1532717868.00
64.000000
-0.00
-0.00
-0.00
-0.00
-0.00
-0.00
-0.00
-0.00
-0.00
-0.00
0.00
0.01
0.01
-0.00
-0.03
-0.05
-0.05
0.00
0.13
0.36
0.66
1.01
1.37
1.72
2.06
2.40
2.79
3.24
3.80
4.43
5.07
5.69
6.26
6.79
7.34
7.99
8.80
9.85
11.08
12.36
13.60
14.72
15.78
16.95
18.43
20.37
23.00
26.11
29.44
32.71
35.73
38.61
41.66
45.33
49.94
55.88
62.80
70.18
77.46
84.31
90.80
97.45
104.99
113.97
124.95
137.43
150.61
163.63
175.95
187.63
199.34
212.45
225.70
241.38
260.10
281.94
305.72
328.55
346.12
353.82
348.32
328.78
297.61
258.66
216.23
173.54
132.13
92.28
53.85
17.08
-17.25
-47.84
-74.10
-96.14
-114.50
-129.73
-142.01
-151.21
-156.92
-159.01
-157.57
-153.53
-148.14
-142.64
-137.98
-134.25
-131.09
-127.92
-124.21
-119.66
-114.43
-108.96
-103.71
-99.01
-94.91
-91.24
-87.71
-84.08
-80.18
-76.12
-72.11
-68.38
-65.04
-62.11
-59.48
-57.03
-54.64
-52.26
-49.94
-47.75
-45.76
-43.98
-42.38
-40.93
-39.60
-38.40
-37.36
-36.57
-36.04
-35.76
-35.67
-35.65
-35.60
-35.50
-35.40
-35.42
-35.74
-36.45
-37.55
-38.89
-40.26
-41.45
-42.43
-43.31
-44.41
-46.06
-48.52
-51.78
-55.55
-59.42
-62.98
-66.09
-68.96
-72.10
-76.09
-81.33
-87.80
-95.11
-102.60
-109.70
-116.16
-122.17
-128.27
-135.16
-143.57
-154.07
-166.97
-181.96
-197.86
-212.54
-223.31
-227.62
-224.07
-212.99
-196.39
-177.20
-158.16
-140.92
-125.79
-112.22
-99.46
-87.30
-76.09
-66.47
-58.79
-52.81
-47.73
-42.59
-36.70
-30.01
-23.12
-16.91
-12.08
-8.84
-6.80
-5.25
-3.57
-1.59
0.35
1.59
1.55
0.12
-2.24
-4.71
-6.44
-7.01
-6.55
-5.72
-5.37
-6.14
-8.17
-11.16
-14.50
-17.62
-20.27
-22.51
-24.60
-26.70
-28.72
-30.31
-31.08
-30.82
-29.73
-28.27
-27.05
-26.42
-26.39
-26.58
-26.51
-25.81
-24.53
-23.07
-21.98
-21.59
-21.85
-22.29
-22.27
-21.39
-19.68
-17.55
-15.51
-13.86
-12.48
-10.97
-8.90
-6.11
-2.86
0.36
3.05
4.94
6.16
7.19
8.54
10.56
13.23
16.24
19.18
21.89
24.57
27.68
31.60
36.33
41.36
45.89
49.29
51.44
52.86
54.46
57.10
61.21
66.52
72.29
77.63
81.89
84.91
87.04
88.79
90.57
92.32
93.60
93.86
92.77
90.52
87.80
85.40
83.75
82.80
82.01
80.85
79.07
76.79
74.21
71.39
68.06
63.94
59.14
54.40
50.80
49.31
50.14
52.50
54.91
55.77
53.81
48.57
40.44
30.60
20.82
13.02
8.75
8.55
11.65
16.27
20.35
22.43
22.23
20.50
18.29
16.19
14.06
11.40
8.01
4.46
1.89
1.33
2.96
5.80
8.29
9.16
8.15
6.17
4.70
4.73
6.13
7.79
8.21
6.58
3.23
-0.48
-2.97
-3.23
-1.35
1.62
4.33
5.85
6.01
5.33
4.58
4.26
4.31
4.24
3.48
1.86
-0.24
-2.04
-2.76
-2.04
-0.19
2.01
3.65
4.18
3.62
2.50
1.48
1.02
1.10
1.35
1.31
0.75
-0.12
-0.75
-0.59
0.60
2.54
4.52
5.73
5.67
4.38
2.49
0.85
0.12
0.46
1.44
2.35
2.64
2.21
1.44
0.93
1.09
1.85
2.70
2.99
2.37
1.04
-0.34
-0.99
-0.51
0.91
2.54
3.54
3.45
2.44
1.16
0.41
0.59
1.54
2.62
3.10
2.69
1.67
0.72
0.52
1.21
2.36
3.09
2.72
1.15
-0.99
-2.61
-2.75
-1.15
1.60
4.30
5.79
5.46
3.60
1.09
-1.02
-2.04
-1.93
-1.15
-0.31
0.13
0.16
0.10
0.33
1.06
2.01
2.70
2.61
1.63
0.14
-1.09
-1.33
-0.36
1.38
3.02
3.70
3.07
1.51
-0.18
-1.22
-1.32
-0.76
-0.13
0.09
-0.14
-0.49
-0.47
0.16
1.21
2.20
2.61
2.17
1.03
-0.32
-1.28
-1.39
-0.57
0.84
2.19
2.84
2.47
1.27
-0.14
-1.02
-0.94
-0.03
1.04
1.49
0.91
-0.45
-1.82
-2.38
-1.77
-0.31
1.18
1.92
1.65
0.68
-0.22
-0.38
0.33
1.48
2.29
2.18
1.10
-0.40
-1.44
-1.37
-0.10
1.75
3.22
3.50
2.41
0.49
-1.31
-2.15
-1.79
-0.69
0.32
0.49
-0.38
-1.82
-3.02
-3.25
-2.30
-0.57
1.14
2.07
1.91
0.89
-0.31
-0.97
-0.72
0.31
1.54
2.35
2.38
1.78
1.06
0.79
1.18
1.99
2.60
2.45
1.40
-0.12
-1.35
-1.62
-0.73
0.88
2.39
3.09
2.69
1.57
0.50
0.17
0.81
2.05
3.09
3.24
2.30
0.68
-0.78
-1.30
-0.66
0.73
1.99
2.35
1.58
0.11
-1.22
-1.70
-1.18
-0.10
0.82
1.02
0.48
-0.36
-0.87
-0.71
-0.03
0.64
0.75
0.04
-1.24
-2.51
-3.12
-2.75
-1.53
0.01
1.23
1.68
1.29
0.41
-0.40
-0.71
-0.47
-0.01
0.18
-0.24
-1.24
-2.36
-3.00
-2.78
-1.75
-0.43
0.57
0.84
0.46
-0.12
-0.35
0.05
0.87
1.61
1.76
1.18
0.19
-0.60
-0.62
0.30
1.84
3.30
4.00
3.60
2.30
0.69
-0.51
-0.80
-0.17
0.93
1.83
2.01
1.37
0.24
-0.79
-1.28
-1.17
-0.81
-0.67
-1.04
-1.77
-2.39
-2.38
-1.52
-0.08
1.32
2.07
1.85
0.88
-0.28
-1.01
-0.99
-0.35
0.46
0.93
0.81
0.23
-0.39
-0.64
-0.35
0.25
0.71
0.63
-0.03
-0.94
-1.53
-1.40
-0.56
0.57
1.36
1.37
0.61
-0.44
-1.11
-0.93
0.10
1.54
2.71
3.03
2.37
1.03
-0.39
-1.30
-1.42
-0.87
-0.09
0.43
0.42
0.03
-0.36
-0.33
0.21
0.98
1.45
1.25
0.37
-0.77
-1.52
-1.47
-0.65
0.48
1.30
1.44
0.94
0.25
-0.13
0.10
0.80
1.53
1.82
1.43
0.53
-0.44
-0.92
-0.65
0.30
1.40
2.00
1.66
0.43
-1.15
-2.27
-2.27
-1.03
0.98
2.85
3.77
3.38
1.93
0.18
-1.13
-1.58
-1.31
-0.84
-0.67
-0.96
-1.38
-1.42
-0.70
0.67
2.10
2.86
2.57
1.44
0.15
-0.53
-0.34
0.38
0.78
0.16
-1.62
-3.91
-5.67
-6.09
-5.02
-3.02
-0.97
0.43
1.07
1.31
1.68
2.47
3.49
4.22
4.13
2.89
0.52
-2.57
-5.72
-8.09
-8.89
-7.68
-4.55
-0.23
4.18
7.59
9.35
9.40
8.10
5.87
2.91
-0.68
-4.66
-8.30
-10.47
-10.12
-6.91
-1.58
4.23
8.65
10.40
9.25
6.06
2.24
-0.97
-2.99
-3.92
-4.18
-4.15
-3.83
-2.89
-1.02
1.73
4.76
7.12
7.87
6.60
3.64
-0.10
-3.47
-5.61
-6.23
-5.65
-4.47
-3.17
-1.83
-0.22
1.90
4.34
6.43
7.15
5.77
2.28
-2.37
-6.62
-9.01
-8.82
-6.38
-2.76
0.77
3.34
4.71
5.12
4.87
4.06
2.59
0.42
-2.25
-4.83
-6.52
-6.60
-4.76
-1.33
2.81
6.42
8.42
8.21
5.96
2.55
-0.82
-3.11
-3.89
-3.35
-2.12
-0.78
0.39
1.46
2.61
3.77
4.48
4.09
2.23
-0.85
-4.24
-6.69
-7.21
-5.59
-2.48
0.88
3.27
4.04
3.28
1.69
0.11
-0.88
-1.20
-1.20
-1.27
-1.57
-1.82
-1.57
-0.45
1.42
3.43
4.67
4.45
2.66
-0.10
-2.74
-4.28
-4.20
-2.79
-0.86
0.70
1.37
1.21
0.74
0.47
0.57
0.78
0.60
-0.30
-1.78
-3.21
-3.82
-3.10
-1.15
1.36
3.52
4.60
4.38
3.18
1.59
0.17
-0.81
-1.40
-1.82
-2.17
-2.35
-2.08
-1.08
0.65
2.68
4.24
4.61
3.48
1.14
-1.57
-3.62
-4.26
-3.34
-1.35
0.87
2.49
3.09
2.74
1.91
1.06
0.47
0.05
-0.43
-1.15
-1.98
-2.54
-2.40
-1.41
0.15
1.64
2.33
1.86
0.37
-1.48
-2.87
-3.21
-2.39
-0.90
0.50
1.13
0.79
-0.16
-1.03
-1.23
-0.66
0.25
0.80
0.51
-0.56
-1.75
-2.24
-1.51
0.28
2.37
3.88
4.27
3.58
2.38
1.33
0.83
0.81
0.92
0.79
0.30
-0.33
-0.68
-0.43
0.48
1.70
2.67
2.89
2.13
0.61
-1.10
-2.32
-2.64
-2.08
-1.08
-0.28
-0.15
-0.77
-1.74
-2.51
-2.62
-2.03
-1.09
-0.35
-0.21
-0.64
-1.23
-1.38
-0.72
0.67
2.28
3.38
3.47
2.52
1.01
-0.29
-0.76
-0.24
0.91
2.01
2.41
1.89
0.69
-0.57
-1.31
-1.28
-0.68
-0.07
0.03
-0.52
-1.44
-2.12
-2.05
-1.19
0.04
1.01
1.22
0.68
-0.14
-0.64
-0.50
0.13
0.73
0.77
0.08
-0.98
-1.74
-1.60
-0.40
1.42
3.04
3.63
2.84
0.98
-1.14
-2.57
-2.74
-1.75
-0.23
0.96
1.22
0.49
-0.76
-1.81
-2.10
-1.56
-0.59
0.23
0.47
0.14
-0.28
-0.21
0.68
2.14
3.49
3.94
3.12
1.30
-0.68
-1.85
-1.68
-0.33
1.42
2.62
2.67
1.60
0.04
-1.23
-1.69
-1.41
-0.90
-0.80
-1.46
-2.68
-3.79
-4.10
-3.28
-1.64
0.06
1.03
0.93
0.07
-0.83
-1.04
-0.33
0.93
2.01
2.23
1.47
0.12
-1.06
-1.37
-0.62
0.85
2.29
3.00
2.67
1.55
0.30
-0.39
-0.22
0.58
1.35
1.42
0.52
-1.04
-2.53
-3.26
-2.95
-1.89
-0.70
0.04
0.16
-0.04
-0.08
0.42
1.38
2.35
2.72
2.15
0.73
-0.96
-2.20
-2.42
-1.54
-0.01
1.44
2.11
1.76
0.68
-0.40
-0.75
-0.10
1.22
2.41
2.74
1.94
0.46
-0.84
-1.19
-0.41
0.93
1.88
1.70
0.28
-1.74
-3.33
-3.70
-2.65
-0.73
1.14
2.17
2.11
1.28
0.36
-0.07
0.13
0.62
0.80
0.30
-0.81
-1.97
-2.50
-2.02
-0.74
0.67
1.45
1.14
-0.10
-1.68
-2.82
-3.01
-2.24
-1.01
0.00
0.30
-0.14
-0.87
-1.25
-0.84
0.29
1.56
2.25
1.90
0.65
-0.78
-1.51
-1.03
0.51
2.35
3.53
3.44
2.15
0.31
-1.20
-1.75
-1.27
-0.23
0.64
0.82
0.27
-0.60
-1.14
-0.92
0.04
1.25
2.01
1.84
0.78
-0.62
-1.58
-1.55
-0.55
0.84
1.80
1.76
0.71
-0.70
-1.63
-1.52
-0.43
1.00
1.97
1.99
1.20
0.22
-0.21
0.24
1.31
2.27
2.41
1.40
-0.42
-2.25
-3.23
-2.91
-1.51
0.25
1.49
1.64
0.71
-0.72
-1.81
-1.96
-1.14
0.14
1.10
1.09
0.06
-1.50
-2.76
-3.05
-2.22
-0.71
0.70
1.40
1.22
0.58
0.13
0.33
1.12
1.96
2.14
1.28
-0.37
-2.02
-2.78
-2.13
-0.32
1.77
3.07
2.92
1.47
-0.44
-1.77
-1.79
-0.60
1.06
2.24
2.32
1.38
0.12
-0.60
-0.29
0.85
2.10
2.70
2.26
1.07
-0.18
-0.74
-0.29
0.89
2.12
2.67
2.19
0.86
-0.76
-1.98
-2.39
-2.00
-1.24
-0.60
-0.42
-0.70
-1.11
-1.25
-0.93
-0.33
0.11
-0.06
-0.93
-2.18
-3.19
-3.33
-2.42
-0.79
0.83
1.71
1.45
0.25
-1.25
-2.32
-2.52
-1.94
-1.07
-0.53
-0.69
-1.43
-2.26
-2.52
-1.85
-0.38
1.31
2.51
2.78
2.13
1.11
0.41
0.54
1.45
2.62
3.27
2.90
1.55
-0.16
-1.39
-1.53
-0.58
0.85
1.93
2.05
1.25
0.08
-0.66
-0.51
0.40
1.42
1.82
1.21
-0.14
-1.54
-2.22
-1.85
-0.67
0.63
1.33
1.08
0.05
-1.15
-1.85
-1.70
-0.87
0.11
0.60
0.26
-0.74
-1.82
-2.30
-1.81
-0.55
0.80
1.49
1.16
0.07
-1.02
-1.28
-0.43
1.16
2.57
2.97
2.08
0.35
-1.24
-1.82
-1.09
0.51
2.08
2.80
2.40
1.29
0.26
0.00
0.66
1.80
2.65
2.60
1.61
0.19
-0.88
-1.04
-0.32
0.68
1.17
0.64
-0.80
-2.49
-3.60
-3.58
-2.47
-0.84
0.53
1.04
0.62
-0.37
-1.26
-1.49
-0.88
0.28
1.40
1.90
1.50
0.42
-0.78
-1.44
-1.21
-0.23
0.91
1.55
1.31
0.32
-0.84
-1.54
-1.43
-0.71
0.02
0.12
-0.63
-1.88
-2.91
-3.02
-1.98
-0.19
1.49
2.27
1.82
0.46
-1.02
-1.83
-1.56
-0.45
0.85
1.61
1.47
0.60
-0.44
-1.00
-0.74
0.18
1.19
1.69
1.38
0.47
-0.43
-0.74
-0.19
0.95
2.00
2.35
1.75
0.55
-0.54
-0.89
-0.28
0.91
1.94
2.14
1.36
-0.04
-1.28
-1.69
-1.02
0.34
1.66
2.19
1.66
0.39
-0.89
-1.45
-1.04
-0.02
0.87
0.97
0.12
-1.20
-2.18
-2.17
-1.14
0.31
1.24
1.00
-0.38
-2.16
-3.30
-3.05
-1.42
0.91
2.87
3.62
2.96
1.41
-0.11
-0.81
-0.45
0.61
1.62
1.91
1.32
0.22
-0.71
-0.91
-0.28
0.72
1.39
1.19
0.11
-1.32
-2.33
-2.38
-1.45
-0.08
0.94
1.03
0.15
-1.19
-2.22
-2.33
-1.45
-0.00
1.24
1.69
1.16
0.06
-0.95
-1.25
-0.70
0.32
1.10
1.07
0.11
-1.29
-2.36
-2.45
-1.44
0.22
1.72
2.35
1.90
0.75
-0.39
-0.84
-0.36
0.78
1.93
2.49
2.18
1.21
0.16
-0.41
-0.19
0.61
1.45
1.80
1.39
0.43
-0.50
-0.85
-0.39
0.57
1.41
1.54
0.77
-0.56
-1.78
-2.22
-1.67
-0.46
0.72
1.19
0.66
-0.55
-1.80
-2.42
-2.12
-1.18
-0.22
0.14
-0.31
-1.23
-1.93
-1.76
-0.55
1.28
2.88
3.49
2.79
1.14
-0.64
-1.71
-1.64
-0.60
0.74
1.65
1.68
0.89
-0.22
-1.04
-1.22
-0.80
-0.19
0.15
-0.04
-0.63
-1.17
-1.20
-0.57
0.43
1.17
1.10
0.11
-1.37
-2.51
-2.64
-1.63
0.02
1.38
1.74
0.97
-0.36
-1.34
-1.32
-0.27
1.19
2.17
2.06
0.88
-0.75
-1.96
-2.13
-1.20
0.29
1.54
1.97
1.45
0.41
-0.45
-0.58
0.09
1.12
1.85
1.76
0.89
-0.24
-0.87
-0.56
0.58
1.88
2.54
2.13
0.87
-0.46
-1.05
-0.49
0.97
2.53
3.37
3.07
1.84
0.36
-0.63
-0.75
-0.18
0.52
0.69
0.06
-1.17
-2.37
-2.87
-2.34
-1.01
0.45
1.25
0.95
-0.32
-1.89
-2.94
-2.93
-1.87
-0.28
1.08
1.63
1.26
0.35
-0.48
-0.77
-0.41
0.28
0.76
0.69
0.04
-0.78
-1.28
-1.14
-0.43
0.44
0.93
0.72
-0.09
-1.06
-1.62
-1.45
-0.64
0.29
0.71
0.25
-0.96
-2.32
-3.06
-2.65
-1.20
0.62
1.93
2.13
1.21
-0.19
-1.24
-1.33
-0.48
0.71
1.49
1.37
0.47
-0.56
-1.00
-0.50
0.69
1.83
2.16
1.35
-0.30
-1.96
-2.76
-2.32
-0.91
0.62
1.38
0.95
-0.44
-1.95
-2.69
-2.17
-0.60
1.22
2.35
2.23
0.99
-0.64
-1.74
-1.76
-0.85
0.31
0.93
0.62
-0.35
-1.24
-1.27
-0.16
1.67
3.31
3.89
3.06
1.23
-0.68
-1.70
-1.37
0.03
1.64
2.50
2.11
0.62
-1.17
-2.34
-2.33
-1.21
0.34
1.46
1.59
0.78
-0.41
-1.21
-1.12
-0.23
0.86
1.41
0.96
-0.31
-1.68
-2.28
-1.59
0.23
2.35
3.74
3.72
2.38
0.49
-0.90
-1.10
-0.19
1.08
1.76
1.29
-0.15
-1.74
-2.55
-2.11
-0.72
0.75
1.42
0.90
-0.44
-1.75
-2.21
-1.49
-0.00
1.46
2.12
1.75
0.71
-0.24
-0.41
0.37
1.71
2.87
3.19
2.49
1.13
-0.18
-0.81
-0.55
0.29
1.08
1.24
0.58
-0.61
-1.66
-1.92
-1.15
0.33
1.76
2.38
1.79
0.29
-1.33
-2.19
-1.83
-0.49
1.03
1.75
1.19
-0.51
-2.57
-4.03
-4.33
-3.55
-2.33
-1.50
-1.54
-2.34
-3.26
-3.50
-2.62
-0.80
1.26
2.72
3.05
2.34
1.23
0.47
0.50
1.26
2.19
2.65
2.28
1.22
-0.02
-0.86
-1.00
-0.62
-0.14
-0.06
-0.51
-1.25
-1.76
-1.62
-0.79
0.34
1.15
1.12
0.19
-1.23
-2.47
-2.89
-2.33
-1.13
0.08
0.70
0.52
-0.14
-0.69
-0.56
0.39
1.82
3.07
3.53
3.03
1.91
0.86
0.47
0.93
1.91
2.78
2.98
2.35
1.21
0.16
-0.26
0.11
0.99
1.80
1.98
1.33
0.10
-1.11
-1.70
-1.40
-0.46
0.52
0.88
0.33
-0.86
-2.03
-2.48
-1.94
-0.75
0.39
0.79
0.24
-0.85
-1.73
-1.74
-0.74
0.80
2.11
2.55
2.00
0.85
-0.18
-0.52
-0.06
0.78
1.32
1.05
-0.14
-1.83
-3.29
-3.89
-3.43
-2.22
-0.95
-0.32
-0.59
-1.49
-2.32
-2.40
-1.46
0.08
1.41
1.73
0.76
-0.96
-2.44
-2.68
-1.36
0.95
3.15
4.19
3.70
2.16
0.60
-0.14
0.21
1.15
1.85
1.72
0.78
-0.37
-0.95
-0.56
0.58
1.79
2.30
1.75
0.35
-1.24
-2.24
-2.24
-1.31
-0.02
0.92
0.99
0.14
-1.23
-2.44
-2.89
-2.45
-1.43
-0.43
0.03
-0.21
-0.82
-1.24
-0.99
0.02
1.41
2.58
3.01
2.58
1.60
0.68
0.35
0.80
1.77
2.63
2.83
2.09
0.66
-0.85
-1.80
-1.84
-1.13
-0.18
0.41
0.29
-0.42
-1.26
-1.68
-1.42
-0.65
0.14
0.48
0.20
-0.47
-1.02
-1.00
-0.31
0.73
1.56
1.73
1.15
0.25
-0.28
0.07
1.34
2.99
4.16
4.20
3.01
1.13
-0.51
-1.17
-0.66
0.49
1.43
1.39
0.19
-1.71
-3.49
-4.39
-4.14
-3.05
-1.80
-1.05
-1.09
-1.71
-2.36
-2.53
-2.05
-1.21
-0.51
-0.41
-0.92
-1.63
-1.92
-1.38
-0.05
1.51
2.57
2.62
1.67
0.30
-0.70
-0.76
0.15
1.45
2.33
2.18
0.99
-0.63
-1.80
-1.91
-0.98
0.33
1.12
0.85
-0.36
-1.79
-2.55
-2.11
-0.66
1.03
2.07
1.94
0.83
-0.55
-1.31
-1.00
0.25
1.75
2.73
2.74
1.92
0.85
0.20
0.31
1.00
1.75
1.92
1.25
-0.06
-1.43
-2.19
-2.00
-1.01
0.20
0.99
0.94
0.14
-0.87
-1.44
-1.16
-0.17
0.96
1.53
1.15
-0.04
-1.41
-2.22
-2.02
-0.91
0.53
1.59
1.78
1.14
0.16
-0.51
-0.45
0.32
1.35
2.04
2.05
1.44
0.69
0.35
0.72
1.60
2.44
2.59
1.71
0.03
-1.74
-2.79
-2.62
-1.37
0.24
1.30
1.20
0.01
-1.61
-2.75
-2.80
-1.86
-0.64
-0.01
-0.47
-1.79
-3.20
-3.85
-3.30
-1.82
-0.15
0.94
1.10
0.58
0.02
0.08
0.97
2.39
3.68
4.21
3.71
2.41
0.93
-0.07
-0.19
0.45
1.32
1.78
1.40
0.26
-1.09
-1.96
-1.90
-0.94
0.37
1.31
1.40
0.66
-0.41
-1.14
-1.14
-0.49
0.31
0.69
0.34
-0.55
-1.50
-1.96
-1.69
-0.83
0.19
0.92
1.10
0.80
0.31
0.02
0.17
0.75
1.44
1.83
1.62
0.80
-0.28
-1.09
-1.27
-0.84
-0.22
-0.01
-0.56
-1.73
-2.93
-3.46
-2.99
-1.74
-0.37
0.40
0.25
-0.59
-1.48
-1.78
-1.22
-0.07
1.01
1.44
1.01
0.01
-0.90
-1.12
-0.46
0.79
1.98
2.52
2.22
1.37
0.61
0.51
1.19
2.28
3.11
3.12
2.15
0.61
-0.84
-1.59
-1.43
-0.65
0.18
0.51
0.15
-0.62
-1.25
-1.22
-0.38
0.95
2.15
2.66
2.25
1.17
0.00
-0.72
-0.73
-0.18
0.47
0.77
0.51
-0.16
-0.79
-0.98
-0.53
0.31
1.08
1.26
0.67
-0.45
-1.53
-1.99
-1.62
-0.67
0.25
0.54
-0.05
-1.21
-2.30
-2.65
-1.96
-0.50
1.02
1.86
1.62
0.50
-0.80
-1.49
-1.12
0.16
1.69
2.71
2.83
2.18
1.35
0.95
1.21
1.82
2.18
1.72
0.35
-1.48
-3.02
-3.58
-2.92
-1.35
0.36
1.39
1.27
0.13
-1.40
-2.48
-2.59
-1.73
-0.49
0.32
0.16
-0.96
-2.43
-3.43
-3.39
-2.33
-0.82
0.41
0.88
0.66
0.25
0.20
0.75
1.63
2.25
2.09
1.02
-0.50
-1.72
-1.98
-1.07
0.62
2.34
3.33
3.26
2.37
1.28
0.61
0.65
1.18
1.65
1.51
0.65
-0.57
-1.48
-1.54
-0.64
0.73
1.80
1.92
0.93
-0.74
-2.30
-3.04
-2.65
-1.42
-0.03
0.86
0.92
0.27
-0.58
-1.13
-1.09
-0.54
0.16
0.65
0.73
0.52
0.33
0.44
0.94
1.58
1.95
1.71
0.81
-0.49
-1.63
-2.15
-1.88
-1.08
-0.31
-0.11
-0.72
-1.88
-2.98
-3.39
-2.85
-1.58
-0.20
0.67
0.70
0.09
-0.63
-0.91
-0.46
0.52
1.55
2.13
2.03
1.49
0.99
1.01
1.68
2.72
3.55
3.60
2.72
1.17
-0.42
-1.43
-1.60
-1.12
-0.51
-0.27
-0.63
-1.35
-1.93
-1.94
-1.35
-0.52
-0.03
-0.32
-1.33
-2.54
-3.17
-2.70
-1.15
0.84
2.35
2.67
1.71
0.02
-1.46
-1.92
-1.10
0.56
2.23
3.12
2.92
1.95
0.89
0.38
0.62
1.31
1.87
1.85
1.20
0.35
-0.09
0.26
1.33
2.53
3.14
2.70
1.27
-0.54
-1.94
-2.34
-1.68
-0.42
0.70
1.08
0.55
-0.58
-1.66
-2.14
-1.82
-0.95
-0.10
0.23
-0.12
-0.86
-1.43
-1.35
-0.56
0.53
1.25
1.08
0.02
-1.38
-2.32
-2.19
-0.95
0.77
2.09
2.31
1.32
-0.32
-1.72
-2.11
-1.30
0.28
1.81
2.53
2.13
0.87
-0.58
-1.58
-1.79
-1.35
-0.74
-0.43
-0.62
-1.13
-1.55
-1.47
-0.80
0.18
1.00
1.23
0.79
-0.06
-0.77
-0.92
-0.36
0.62
1.46
1.66
1.04
-0.11
-1.19
-1.62
-1.21
-0.26
0.60
0.82
0.26
-0.69
-1.37
-1.26
-0.36
0.84
1.59
1.42
0.43
-0.77
-1.42
-1.07
0.14
1.57
2.48
2.44
1.55
0.39
-0.41
-0.44
0.21
1.07
1.57
1.40
0.66
-0.23
-0.75
-0.63
-0.02
0.67
0.97
0.62
-0.25
-1.22
-1.81
-1.76
-1.15
-0.34
0.22
0.27
-0.13
-0.66
-0.90
-0.62
0.11
0.95
1.47
1.38
0.71
-0.21
-0.91
-1.01
-0.47
0.40
1.07
1.12
0.49
-0.48
-1.19
-1.14
-0.31
0.85
1.64
1.51
0.46
-0.99
-2.07
-2.23
-1.45
-0.20
0.83
1.15
0.76
0.06
-0.43
-0.39
0.08
0.61
0.75
0.32
-0.51
-1.30
-1.59
-1.21
-0.35
0.49
0.82
0.43
-0.48
-1.41
-1.85
-1.58
-0.76
0.19
0.77
0.80
0.37
-0.12
-0.27
0.12
0.96
1.85
2.33
2.07
1.09
-0.24
-1.34
-1.70
-1.21
-0.16
0.83
1.20
0.76
-0.17
-0.98
-1.08
-0.29
1.06
2.29
2.84
2.50
1.58
0.69
0.35
0.69
1.41
1.95
1.86
1.08
-0.03
-0.93
-1.22
-0.85
-0.19
0.24
0.04
-0.81
-1.96
-2.87
-3.16
-2.78
-2.06
-1.45
-1.31
-1.61
-2.00
-1.98
-1.25
0.07
1.48
2.35
2.29
1.45
0.41
-0.12
0.29
1.48
2.81
3.48
3.01
1.48
-0.45
-1.97
-2.46
-1.87
-0.66
0.50
1.11
1.09
0.81
0.76
1.22
2.04
2.76
2.82
2.00
0.55
-0.89
-1.68
-1.46
-0.46
0.69
1.28
0.94
-0.20
-1.51
-2.31
-2.19
-1.24
-0.01
0.85
0.95
0.33
-0.59
-1.25
-1.34
-0.92
-0.36
-0.14
-0.50
-1.29
-2.05
-2.21
-1.51
-0.14
1.32
2.16
1.96
0.83
-0.61
-1.58
-1.59
-0.70
0.50
1.26
1.14
0.26
-0.74
-1.14
-0.58
0.72
2.03
2.59
2.01
0.51
-1.16
-2.20
-2.18
-1.29
-0.17
0.46
0.24
-0.57
-1.32
-1.34
-0.43
1.04
2.25
2.50
1.58
-0.08
-1.64
-2.30
-1.77
-0.42
0.96
1.57
1.05
-0.34
-1.85
-2.65
-2.33
-1.02
0.57
1.63
1.66
0.77
-0.46
-1.27
-1.21
-0.44
0.40
0.61
-0.13
-1.52
-2.77
-3.06
-2.05
-0.02
2.18
3.68
3.95
3.11
1.80
0.80
0.63
1.26
2.16
2.65
2.31
1.17
-0.22
-1.17
-1.23
-0.50
0.45
0.92
0.47
-0.72
-2.04
-2.75
-2.42
-1.23
0.17
1.03
0.93
0.03
-1.06
-1.62
-1.28
-0.20
0.96
1.50
1.08
-0.10
-1.33
-1.88
-1.37
-0.05
1.36
2.08
1.76
0.66
-0.50
-1.00
-0.56
0.46
1.34
1.40
0.49
-0.94
-2.05
-2.16
-1.09
0.65
2.18
2.68
1.86
0.13
-1.66
-2.63
-2.37
-1.10
0.44
1.46
1.52
0.82
-0.03
-0.39
-0.02
0.78
1.39
1.27
0.39
-0.79
-1.54
-1.36
-0.28
1.15
2.13
2.13
1.19
-0.13
-1.02
-0.95
0.05
1.39
2.26
2.13
1.00
-0.57
-1.78
-2.08
-1.40
-0.24
0.70
0.84
0.10
-1.15
-2.25
-2.66
-2.19
-1.12
-0.03
0.55
0.36
-0.39
-1.18
-1.44
-0.92
0.16
1.18
1.55
1.03
-0.10
-1.15
-1.47
-0.84
0.36
1.40
1.61
0.86
-0.41
-1.38
-1.42
-0.40
1.18
2.50
2.90
2.22
0.89
-0.38
-0.97
-0.66
0.20
1.00
1.20
0.64
-0.35
-1.17
-1.31
-0.64
0.47
1.37
1.50
0.76
-0.51
-1.62
-1.98
-1.39
-0.17
1.07
1.72
1.47
0.51
-0.67
-1.53
-1.75
-1.45
-1.00
-0.81
-1.03
-1.45
-1.59
-1.06
0.23
1.88
3.18
3.48
2.59
0.90
-0.74
-1.51
-0.99
0.52
2.20
3.14
2.82
1.44
-0.21
-1.17
-0.87
0.56
2.33
3.48
3.38
2.17
0.55
-0.57
-0.69
0.08
1.02
1.36
0.70
-0.69
-2.08
-2.64
-2.04
-0.59
0.90
1.55
0.91
-0.78
-2.72
-3.99
-4.02
-2.91
-1.33
-0.16
0.03
-0.74
-1.84
-2.46
-2.10
-0.89
0.52
1.35
1.17
0.19
-0.89
-1.30
-0.69
0.65
1.97
2.51
1.92
0.52
-0.95
-1.71
-1.42
-0.33
0.88
1.47
1.11
0.01
-1.16
-1.70
-1.22
0.06
1.52
2.46
2.49
1.77
0.85
0.36
0.59
1.36
2.07
2.12
1.21
-0.40
-2.08
-3.12
-3.15
-2.34
-1.29
-0.68
-0.86
-1.65
-2.47
-2.65
-1.86
-0.31
1.31
2.26
2.19
1.29
0.22
-0.31
-0.04
0.81
1.62
1.86
1.36
0.46
-0.21
-0.19
0.57
1.61
2.23
1.92
0.63
-1.17
-2.68
-3.23
-2.61
-1.14
0.40
1.28
1.13
0.14
-1.06
-1.78
-1.65
-0.82
0.15
0.66
0.45
-0.25
-0.89
-0.93
-0.21
0.91
1.86
2.06
1.43
0.34
-0.58
-0.76
-0.10
1.02
1.97
2.22
1.63
0.52
-0.53
-0.99
-0.69
0.15
1.04
1.51
1.34
0.69
-0.03
-0.40
-0.27
0.16
0.48
0.31
-0.44
-1.40
-1.98
-1.63
-0.28
1.57
3.12
3.61
2.80
1.14
-0.55
-1.45
-1.25
-0.31
0.60
0.75
-0.09
-1.52
-2.78
-3.16
-2.48
-1.12
0.19
0.82
0.58
-0.16
-0.75
-0.70
0.07
1.12
1.83
1.72
0.78
-0.53
-1.57
-1.86
-1.36
-0.44
0.35
0.60
0.28
-0.30
-0.68
-0.51
0.23
1.22
1.93
1.95
1.18
-0.09
-1.29
-1.85
-1.56
-0.63
0.37
0.86
0.56
-0.35
-1.28
-1.64
-1.14
0.01
1.24
1.88
1.62
0.67
-0.40
-0.91
-0.50
0.67
1.94
2.53
1.98
0.39
-1.53
-2.90
-3.12
-2.22
-0.80
0.29
0.52
-0.05
-0.82
-1.06
-0.45
0.75
1.78
1.95
1.02
-0.59
-2.02
-2.52
-1.84
-0.39
1.00
1.59
1.12
-0.02
-1.04
-1.21
-0.27
1.39
2.96
3.66
3.14
1.68
-0.01
-1.18
-1.44
-0.99
-0.36
-0.16
-0.62
-1.58
-2.52
-2.90
-2.49
-1.44
-0.29
0.40
0.32
-0.42
-1.28
-1.64
-1.13
0.14
1.57
2.40
2.16
1.03
-0.30
-0.94
-0.38
1.22
3.05
4.08
3.73
2.13
0.09
-1.37
-1.55
-0.51
1.08
2.28
2.44
1.55
0.18
-0.86
-1.04
-0.35
0.69
1.36
1.21
0.29
-0.86
-1.58
-1.46
-0.58
0.52
1.20
1.05
0.19
-0.87
-1.47
-1.23
-0.26
0.82
1.30
0.74
-0.73
-2.45
-3.58
-3.54
-2.41
-0.79
0.46
0.79
0.19
-0.79
-1.42
-1.26
-0.38
0.68
1.30
1.14
0.34
-0.57
-1.04
-0.80
-0.01
0.87
1.29
1.02
0.25
-0.46
-0.59
0.10
1.32
2.37
2.60
1.77
0.22
-1.27
-1.90
-1.33
0.10
1.64
2.46
2.17
0.98
-0.40
-1.26
-1.19
-0.35
0.68
1.29
1.15
0.43
-0.35
-0.61
-0.12
0.90
1.86
2.12
1.40
-0.07
-1.65
-2.62
-2.53
-1.46
0.07
1.33
1.80
1.36
0.35
-0.66
-1.23
-1.26
-1.03
-0.96
-1.32
-2.04
-2.70
-2.86
-2.25
-1.09
0.10
0.72
0.44
-0.57
-1.73
-2.39
-2.20
-1.23
0.02
0.98
1.32
1.12
0.79
0.81
1.38
2.30
3.06
3.10
2.16
0.44
-1.44
-2.71
-2.89
-1.97
-0.46
0.87
1.43
1.09
0.21
-0.60
-0.85
-0.46
0.28
0.92
1.16
1.03
0.82
0.85
1.20
1.67
1.91
1.62
0.78
-0.31
-1.16
-1.35
-0.79
0.25
1.26
1.67
1.23
0.14
-1.08
-1.80
-1.64
-0.70
0.52
1.38
1.45
0.79
-0.09
-0.53
-0.16
0.86
1.91
2.24
1.52
0.03
-1.43
-1.96
-1.15
0.67
2.55
3.48
2.92
1.10
-1.11
-2.69
-2.97
-2.06
-0.68
0.25
0.12
-1.02
-2.45
-3.25
-2.83
-1.26
0.71
2.09
2.17
0.93
-0.93
-2.42
-2.77
-1.85
-0.22
1.23
1.83
1.46
0.57
-0.13
-0.20
0.31
0.85
0.79
-0.17
-1.74
-3.15
-3.61
-2.75
-0.89
1.11
2.31
2.19
0.92
-0.70
-1.72
-1.51
-0.12
1.80
3.34
3.79
3.07
1.66
0.39
-0.11
0.27
1.12
1.70
1.46
0.35
-1.13
-2.21
-2.28
-1.26
0.35
1.71
2.15
1.51
0.27
-0.76
-0.94
-0.12
1.23
2.29
2.34
1.21
-0.63
-2.34
-3.14
-2.74
-1.49
-0.11
0.69
0.62
-0.02
-0.61
-0.64
-0.02
0.86
1.34
0.98
-0.16
-1.54
-2.42
-2.35
-1.41
-0.18
0.60
0.46
-0.52
-1.75
-2.48
-2.17
-0.86
0.92
2.38
2.90
2.36
1.16
0.03
-0.40
0.05
1.02
1.81
1.79
0.84
-0.56
-1.62
-1.63
-0.46
1.34
2.84
3.20
2.15
0.16
-1.89
-3.10
-3.10
-2.18
-1.12
-0.64
-1.04
-1.97
-2.72
-2.61
-1.48
0.22
1.62
2.02
1.23
-0.24
-1.48
-1.73
-0.77
0.92
2.46
3.05
2.42
0.96
-0.53
-1.29
-1.04
-0.09
0.87
1.18
0.65
-0.32
-1.03
-0.88
0.22
1.77
2.95
3.10
2.14
0.61
-0.64
-0.91
-0.06
1.38
2.53
2.67
1.66
-0.04
-1.57
-2.26
-1.92
-0.98
-0.10
0.14
-0.34
-1.17
-1.75
-1.64
-0.86
0.15
0.82
0.73
-0.10
-1.21
-2.02
-2.05
-1.23
0.03
1.12
1.46
0.90
-0.24
-1.29
-1.61
-0.94
0.48
1.97
2.85
2.77
1.89
0.78
0.08
0.08
0.62
1.13
1.05
0.20
-1.12
-2.27
-2.64
-2.04
-0.83
0.31
0.79
0.44
-0.39
-1.10
-1.21
-0.67
0.11
0.58
0.35
-0.50
-1.51
-2.07
-1.80
-0.78
0.55
1.56
1.79
1.18
0.05
-1.03
-1.49
-1.11
-0.07
1.11
1.86
1.86
1.21
0.38
-0.09
0.11
0.78
1.41
1.44
0.65
-0.65
-1.80
-2.17
-1.57
-0.38
0.66
0.93
0.29
-0.82
-1.65
-1.56
-0.42
1.29
2.78
3.33
2.74
1.33
-0.15
-0.99
-0.87
-0.01
0.91
1.24
0.67
-0.54
-1.71
-2.15
-1.58
-0.32
0.92
1.46
1.05
0.05
-0.82
-0.90
-0.04
1.39
2.66
3.14
2.64
1.47
0.26
-0.38
-0.25
0.40
0.97
0.89
-0.07
-1.61
-3.07
-3.75
-3.36
-2.07
-0.53
0.57
0.85
0.40
-0.26
-0.58
-0.30
0.37
0.93
0.88
0.11
-1.08
-2.09
-2.34
-1.62
-0.21
1.23
2.04
1.87
0.87
-0.42
-1.36
-1.61
-1.23
-0.64
-0.30
-0.43
-0.88
-1.22
-1.05
-0.25
0.93
1.94
2.24
1.63
0.32
-1.10
-1.97
-1.88
-0.90
0.45
1.51
1.82
1.39
0.63
0.12
0.15
0.57
0.88
0.58
-0.44
-1.83
-2.85
-2.89
-1.81
-0.03
1.70
2.65
2.52
1.58
0.46
-0.16
0.01
0.81
1.64
1.87
1.22
-0.08
-1.38
-2.00
-1.62
-0.52
0.65
1.23
0.96
0.09
-0.74
-0.98
-0.49
0.36
0.95
0.85
0.06
-0.92
-1.43
-0.98
0.35
1.98
3.09
3.04
1.75
-0.28
-2.15
-3.02
-2.56
-1.09
0.59
1.60
1.51
0.48
-0.79
-1.54
-1.34
-0.40
0.66
1.16
0.79
-0.19
-1.12
-1.37
-0.72
0.52
1.61
1.93
1.27
-0.02
-1.26
-1.84
-1.57
-0.76
-0.03
0.11
-0.43
-1.31
-1.96
-1.93
-1.18
-0.07
0.80
1.00
0.44
-0.53
-1.33
-1.48
-0.85
0.25
1.23
1.57
1.12
0.23
-0.50
-0.49
0.43
1.94
3.32
3.92
3.43
2.08
0.52
-0.60
-0.91
-0.50
0.16
0.56
0.43
-0.16
-0.83
-1.20
-1.06
-0.55
-0.05
0.05
-0.39
-1.16
-1.79
-1.81
-1.07
0.18
1.36
1.86
1.40
0.24
-1.01
-1.66
-1.35
-0.30
0.87
1.48
1.13
0.02
-1.22
-1.85
-1.46
-0.15
1.45
2.59
2.76
1.99
0.77
-0.22
-0.50
-0.12
0.46
0.65
0.11
-0.98
-2.00
-2.30
-1.61
-0.24
1.06
1.56
0.97
-0.34
-1.63
-2.14
-1.60
-0.34
0.94
1.60
1.38
0.56
-0.28
-0.60
-0.25
0.46
1.03
1.06
0.50
-0.32
-0.87
-0.80
-0.12
0.80
1.40
1.28
0.44
-0.70
-1.48
-1.43
-0.53
0.74
1.65
1.64
0.64
-0.81
-1.94
-2.11
-1.24
0.17
1.34
1.63
0.96
-0.20
-1.11
-1.22
-0.52
0.52
1.19
1.03
0.07
-1.19
-2.11
-2.21
-1.48
-0.36
0.52
0.65
-0.07
-1.30
-2.44
-2.91
-2.42
-1.16
0.32
1.41
1.67
1.09
0.16
-0.49
-0.40
0.45
1.61
2.49
2.68
2.23
1.53
1.10
1.16
1.53
1.72
1.30
0.12
-1.46
-2.84
-3.43
-3.00
-1.77
-0.34
0.69
0.99
0.66
0.16
-0.03
0.29
0.88
1.20
0.75
-0.52
-2.19
-3.47
-3.70
-2.70
-0.90
0.86
1.88
1.87
1.20
0.60
0.67
1.57
2.85
3.78
3.74
2.68
1.16
0.04
-0.01
1.08
2.71
3.90
3.89
2.53
0.39
-1.58
-2.62
-2.56
-1.87
-1.36
-1.56
-2.50
-3.58
-4.01
-3.33
-1.69
0.18
1.39
1.40
0.30
-1.27
-2.46
-2.67
-1.87
-0.52
0.69
1.22
0.96
0.27
-0.28
-0.23
0.45
1.42
2.09
2.02
1.17
-0.09
-1.10
-1.39
-0.86
0.10
0.85
0.91
0.20
-0.86
-1.62
-1.56
-0.64
0.68
1.69
1.82
1.00
-0.31
-1.41
-1.72
-1.15
-0.07
0.92
1.35
1.18
0.73
0.50
0.82
1.63
2.53
2.95
2.49
1.16
-0.57
-2.00
-2.53
-2.01
-0.80
0.35
0.77
0.22
-0.92
-1.90
-2.03
-1.07
0.52
1.94
2.46
1.89
0.65
-0.44
-0.73
-0.08
1.03
1.85
1.79
0.85
-0.45
-1.34
-1.28
-0.33
0.94
1.73
1.54
0.45
-1.00
-2.04
-2.21
-1.56
-0.59
0.07
-0.00
-0.70
-1.53
-1.92
-1.55
-0.54
0.57
1.19
0.97
0.05
-1.01
-1.55
-1.16
0.01
1.35
2.07
1.68
0.29
-1.44
-2.61
-2.61
-1.42
0.33
1.72
2.04
1.19
-0.31
-1.59
-1.99
-1.35
-0.04
1.30
2.12
2.26
1.91
1.46
1.21
1.19
1.20
0.96
0.36
-0.45
-1.12
-1.27
-0.76
0.23
1.21
1.67
1.33
0.32
-0.91
-1.76
-1.85
-1.19
-0.16
0.70
0.98
0.61
-0.10
-0.66
-0.68
-0.12
0.69
1.21
0.99
-0.00
-1.33
-2.33
-2.44
-1.63
-0.34
0.65
0.79
0.04
-1.05
-1.71
-1.39
-0.12
1.47
2.59
2.72
1.95
0.87
0.21
0.37
1.16
1.96
2.06
1.20
-0.33
-1.78
-2.42
-1.95
-0.70
0.60
1.19
0.72
-0.53
-1.93
-2.75
-2.66
-1.81
-0.75
-0.09
-0.15
-0.76
-1.41
-1.51
-0.78
0.59
2.00
2.77
2.53
1.47
0.24
-0.42
-0.09
1.08
2.42
3.22
3.10
2.25
1.29
0.79
0.93
1.39
1.58
1.06
-0.20
-1.70
-2.80
-3.01
-2.33
-1.20
-0.26
-0.00
-0.55
-1.58
-2.52
-2.87
-2.43
-1.42
-0.34
0.29
0.20
-0.46
-1.23
-1.58
-1.25
-0.37
0.56
0.99
0.65
-0.23
-1.06
-1.25
-0.53
0.82
2.11
2.69
2.27
1.11
-0.08
-0.65
-0.35
0.53
1.31
1.38
0.59
-0.67
-1.66
-1.78
-0.93
0.40
1.44
1.59
0.78
-0.52
-1.55
-1.75
-1.04
0.15
1.14
1.44
0.93
-0.00
-0.79
-0.96
-0.38
0.63
1.53
1.82
1.33
0.32
-0.63
-0.97
-0.49
0.50
1.39
1.55
0.81
-0.50
-1.70
-2.18
-1.80
-0.92
-0.19
-0.11
-0.68
-1.40
-1.58
-0.83
0.71
2.37
3.31
3.05
1.68
-0.11
-1.42
-1.63
-0.69
0.83
2.11
2.49
1.83
0.55
-0.65
-1.17
-0.86
-0.04
0.73
0.95
0.55
-0.14
-0.54
-0.18
0.97
2.46
3.57
3.66
2.60
0.83
-0.88
-1.78
-1.64
-0.82
-0.03
0.05
-0.76
-2.05
-3.05
-3.17
-2.28
-0.90
0.21
0.40
-0.40
-1.77
-2.97
-3.42
-2.98
-1.98
-1.02
-0.57
-0.77
-1.31
-1.66
-1.38
-0.40
0.93
2.05
2.50
2.16
1.34
0.57
0.30
0.64
1.31
1.79
1.70
0.98
-0.02
-0.75
-0.80
-0.15
0.81
1.50
1.52
0.88
0.02
-0.42
-0.04
1.07
2.28
2.84
2.27
0.73
-1.09
-2.29
-2.28
-1.10
0.59
1.92
2.26
1.51
0.19
-0.99
-1.46
-1.19
-0.58
-0.24
-0.55
-1.42
-2.32
-2.57
-1.82
-0.26
1.41
2.37
2.20
1.08
-0.28
-1.04
-0.76
0.36
1.59
2.16
1.64
0.31
-1.05
-1.66
-1.10
0.33
1.85
2.55
1.98
0.33
-1.65
-3.02
-3.20
-2.22
-0.72
0.45
0.73
0.08
-0.94
-1.57
-1.29
-0.19
1.14
1.89
1.56
0.28
-1.29
-2.27
-2.11
-0.91
0.66
1.73
1.70
0.60
-0.92
-2.04
-2.17
-1.34
-0.11
0.80
0.91
0.28
-0.55
-0.93
-0.52
0.48
1.48
1.84
1.30
0.17
-0.86
-1.10
-0.28
1.27
2.80
3.52
3.06
1.66
0.00
-1.12
-1.26
-0.54
0.41
0.91
0.60
-0.30
-1.12
-1.22
-0.34
1.15
2.45
2.83
2.02
0.43
-1.14
-1.91
-1.60
-0.55
0.49
0.80
0.10
-1.27
-2.52
-2.89
-2.07
-0.40
1.31
2.17
1.79
0.44
-1.07
-1.89
-1.61
-0.52
0.60
0.94
0.19
-1.32
-2.78
-3.38
-2.82
-1.45
-0.07
0.59
0.28
-0.64
-1.40
-1.32
-0.24
1.40
2.82
3.33
2.78
1.59
0.53
0.24
0.84
1.91
2.74
2.78
1.92
0.60
-0.53
-0.94
-0.53
0.30
0.94
0.92
0.16
-0.94
-1.75
-1.78
-0.97
0.25
1.19
1.31
0.55
-0.66
-1.60
-1.70
-0.90
0.34
1.28
1.35
0.51
-0.75
-1.66
-1.67
-0.74
0.59
1.57
1.65
0.84
-0.37
-1.24
-1.29
-0.52
0.57
1.31
1.22
0.32
-0.96
-1.93
-2.10
-1.36
-0.12
0.97
1.36
0.85
-0.21
-1.15
-1.34
-0.55
0.82
1.98
2.14
1.03
-0.92
-2.78
-3.65
-3.14
-1.61
0.06
0.99
0.82
-0.15
-1.16
-1.50
-0.96
0.08
0.91
0.94
0.14
-1.01
-1.77
-1.62
-0.53
0.96
2.11
2.38
1.73
0.60
-0.39
-0.80
-0.53
0.12
0.71
0.90
0.64
0.17
-0.14
0.00
0.63
1.45
2.03
2.04
1.42
0.51
-0.19
-0.21
0.53
1.69
2.64
2.81
2.05
0.68
-0.61
-1.24
-1.03
-0.35
0.15
-0.04
-0.98
-2.13
-2.70
-2.15
-0.52
1.50
2.91
2.94
1.48
-0.80
-2.87
-3.85
-3.46
-2.14
-0.75
-0.07
-0.33
-1.19
-1.94
-1.97
-1.17
0.04
0.99
1.18
0.58
-0.31
-0.82
-0.53
0.46
1.58
2.11
1.67
0.39
-1.12
-2.10
-2.09
-1.14
0.20
1.23
1.46
0.85
-0.14
-0.91
-0.98
-0.30
0.75
1.63
1.90
1.50
0.76
0.20
0.21
0.83
1.74
2.45
2.52
1.86
0.76
-0.24
-0.67
-0.37
0.38
0.99
0.90
-0.06
-1.55
-2.85
-3.29
-2.68
-1.38
-0.17
0.27
-0.25
-1.29
-2.08
-2.01
-1.03
0.32
1.29
1.34
0.52
-0.61
-1.28
-1.03
0.07
1.40
2.27
2.24
1.40
0.32
-0.30
-0.04
1.00
2.22
2.88
2.49
1.08
-0.77
-2.26
-2.75
-2.13
-0.83
0.39
0.92
0.59
-0.18
-0.72
-0.50
0.51
1.75
2.44
2.06
0.70
-0.95
-1.97
-1.72
-0.32
1.48
2.65
2.47
0.98
-1.09
-2.67
-3.04
-2.15
-0.64
0.53
0.71
-0.16
-1.46
-2.37
-2.28
-1.20
0.29
1.39
1.52
0.66
-0.70
-1.81
-2.10
-1.48
-0.32
0.70
1.08
0.74
0.04
-0.42
-0.19
0.78
2.04
2.93
2.91
1.92
0.39
-0.97
-1.54
-1.16
-0.13
0.86
1.26
0.88
0.04
-0.67
-0.75
-0.14
0.71
1.19
0.84
-0.24
-1.44
-2.04
-1.60
-0.32
1.12
1.92
1.68
0.62
-0.58
-1.20
-0.90
0.03
0.95
1.20
0.57
-0.62
-1.67
-1.91
-1.10
0.41
1.93
2.70
2.36
1.09
-0.49
-1.65
-1.88
-1.18
-0.01
0.95
1.21
0.64
-0.42
-1.40
-1.80
-1.51
-0.84
-0.38
-0.55
-1.37
-2.37
-2.88
-2.36
-0.85
1.07
2.59
3.04
2.30
0.87
-0.48
-1.07
-0.71
0.24
1.17
1.55
1.29
0.70
0.32
0.48
1.14
1.87
2.12
1.54
0.24
-1.24
-2.22
-2.23
-1.33
-0.02
0.97
1.10
0.36
-0.80
-1.68
-1.74
-0.95
0.21
1.04
1.02
0.13
-1.11
-1.98
-1.99
-1.16
0.00
0.78
0.75
-0.02
-0.98
-1.43
-0.97
0.27
1.69
2.55
2.45
1.53
0.38
-0.29
-0.07
0.90
2.04
2.68
2.44
1.44
0.23
-0.50
-0.34
0.64
1.89
2.69
2.49
1.24
-0.58
-2.17
-2.86
-2.47
-1.40
-0.42
-0.18
-0.87
-2.08
-3.06
-3.19
-2.37
-1.07
-0.02
0.24
-0.26
-1.03
-1.37
-0.91
0.22
1.40
1.97
1.56
0.37
-1.02
-1.88
-1.79
-0.80
0.59
1.74
2.17
1.79
0.91
0.05
-0.38
-0.26
0.18
0.52
0.50
0.13
-0.24
-0.19
0.50
1.61
2.59
2.87
2.14
0.67
-0.93
-1.93
-1.95
-1.13
-0.06
0.59
0.45
-0.33
-1.20
-1.58
-1.15
-0.13
0.91
1.36
0.91
-0.24
-1.49
-2.18
-1.93
-0.87
0.45
1.34
1.41
0.70
-0.35
-1.10
-1.16
-0.49
0.53
1.36
1.57
1.15
0.43
-0.06
0.06
0.78
1.66
2.07
1.54
0.07
-1.79
-3.22
-3.54
-2.63
-0.99
0.52
1.16
0.75
-0.27
-1.15
-1.24
-0.45
0.77
1.73
1.93
1.33
0.34
-0.44
-0.60
-0.16
0.47
0.78
0.47
-0.34
-1.17
-1.43
-0.81
0.55
2.06
3.02
2.97
1.96
0.55
-0.57
-0.89
-0.43
0.33
0.77
0.50
-0.37
-1.35
-1.84
-1.49
-0.46
0.64
1.15
0.71
-0.50
-1.82
-2.48
-2.03
-0.64
1.00
2.02
1.84
0.50
-1.39
-2.96
-3.56
-3.04
-1.77
-0.41
0.50
0.81
0.75
0.77
1.20
2.01
2.81
3.07
2.43
1.01
-0.63
-1.71
-1.68
-0.53
1.10
2.28
2.34
1.17
-0.62
-2.13
-2.66
-2.14
-1.08
-0.26
-0.25
-1.02
-2.09
-2.78
-2.67
-1.84
-0.77
-0.04
0.03
-0.45
-1.06
-1.24
-0.64
0.70
2.34
3.67
4.22
3.89
2.97
2.04
1.51
1.48
1.67
1.61
1.00
-0.07
-1.16
-1.71
-1.40
-0.34
0.94
1.83
1.88
1.06
-0.24
-1.46
-2.14
-2.13
-1.66
-1.15
-1.00
-1.27
-1.73
-1.92
-1.51
-0.47
0.81
1.74
1.90
1.30
0.39
-0.15
0.14
1.19
2.42
3.04
2.54
0.98
-1.02
-2.60
-3.12
-2.45
-1.04
0.41
1.26
1.30
0.76
0.09
-0.30
-0.39
-0.42
-0.76
-1.56
-2.59
-3.35
-3.32
-2.31
-0.58
1.20
2.32
2.37
1.40
-0.09
-1.45
-2.16
-2.04
-1.28
-0.32
0.38
0.58
0.33
-0.06
-0.26
-0.12
0.20
0.37
0.09
-0.57
-1.23
-1.32
-0.51
1.04
2.72
3.75
3.67
2.55
0.99
-0.27
-0.75
-0.42
0.29
0.84
0.89
0.46
-0.11
-0.43
-0.25
0.40
1.22
1.83
1.94
1.47
0.64
-0.18
-0.61
-0.41
0.33
1.26
1.88
1.82
1.08
0.03
-0.76
-0.82
-0.11
0.91
1.58
1.40
0.42
-0.81
-1.55
-1.40
-0.51
0.45
0.76
0.10
-1.23
-2.55
-3.19
-2.95
-2.08
-1.16
-0.61
-0.47
-0.38
0.13
1.26
2.78
4.04
4.35
3.29
1.04
-1.69
-3.88
-4.70
-3.85
-1.66
1.01
3.22
4.30
4.12
2.99
1.44
-0.11
-1.53
-2.88
-4.21
-5.37
-5.94
-5.47
-3.81
-1.31
1.20
2.76
2.72
1.13
-1.27
-3.31
-4.05
-3.16
-1.10
1.13
2.61
2.91
2.33
1.58
1.31
1.64
2.10
1.94
0.69
-1.41
-3.51
-4.55
-3.90
-1.75
1.01
3.18
3.94
3.15
1.44
-0.20
-0.93
-0.47
0.77
2.02
2.55
2.10
1.00
0.00
-0.22
0.53
1.77
2.66
2.44
0.96
-1.16
-2.88
-3.34
-2.36
-0.54
1.07
1.62
0.90
-0.59
-1.91
-2.35
-1.76
-0.60
0.39
0.65
0.11
-0.81
-1.46
-1.36
-0.42
1.00
2.28
2.84
2.45
1.29
-0.11
-1.16
-1.51
-1.18
-0.53
-0.02
0.08
-0.16
-0.41
-0.37
0.02
0.46
0.47
-0.29
-1.69
-3.15
-3.90
-3.33
-1.46
1.10
3.41
4.67
4.60
3.55
2.26
1.40
1.23
1.53
1.76
1.48
0.64
-0.40
-1.09
-1.02
-0.22
0.82
1.46
1.20
0.02
-1.55
-2.74
-2.94
-2.02
-0.45
1.00
1.67
1.36
0.44
-0.44
-0.78
-0.52
-0.07
-0.01
-0.66
-1.84
-2.94
-3.24
-2.42
-0.73
1.08
2.22
2.21
1.15
-0.36
-1.60
-2.08
-1.77
-1.06
-0.47
-0.33
-0.59
-0.86
-0.69
0.15
1.45
2.65
3.10
2.46
0.90
-0.95
-2.24
-2.41
-1.44
0.13
1.48
1.95
1.42
0.31
-0.70
-1.12
-0.85
-0.28
0.07
-0.14
-0.83
-1.59
-1.94
-1.64
-0.82
0.06
0.54
0.33
-0.44
-1.36
-1.90
-1.68
-0.72
0.63
1.82
2.38
2.15
1.37
0.50
-0.01
-0.00
0.33
0.60
0.50
0.03
-0.50
-0.70
-0.33
0.44
1.21
1.52
1.20
0.49
-0.15
-0.29
0.13
0.83
1.33
1.26
0.58
-0.40
-1.20
-1.39
-0.83
0.30
1.54
2.37
2.43
1.72
0.58
-0.43
-0.80
-0.36
0.60
1.53
1.92
1.62
0.89
0.23
-0.02
0.11
0.24
-0.12
-1.12
-2.50
-3.64
-3.92
-3.11
-1.47
0.34
1.60
1.89
1.22
0.06
-0.94
-1.24
-0.72
0.37
1.48
2.11
2.01
1.38
0.69
0.41
0.73
1.40
1.91
1.78
0.89
-0.45
-1.63
-2.13
-1.82
-1.02
-0.32
-0.19
-0.75
-1.61
-2.21
-2.11
-1.36
-0.40
0.10
-0.29
-1.51
-3.04
-4.15
-4.32
-3.49
-2.07
-0.66
0.25
0.55
0.52
0.62
1.19
2.24
3.44
4.29
4.39
3.71
2.63
1.75
1.53
2.01
2.71
2.96
2.24
0.62
-1.26
-2.49
-2.43
-1.10
0.81
2.34
2.76
2.01
0.66
-0.48
-0.84
-0.40
0.35
0.76
0.47
-0.40
-1.27
-1.55
-0.92
0.40
1.79
2.51
2.12
0.67
-1.27
-2.90
-3.57
-3.14
-2.01
-0.92
-0.51
-1.02
-2.06
-2.94
-3.04
-2.26
-1.07
-0.27
-0.42
-1.50
-2.87
-3.64
-3.22
-1.68
0.33
1.96
2.66
2.46
1.83
1.39
1.51
2.10
2.72
2.90
2.42
1.46
0.47
-0.05
0.15
0.86
1.57
1.64
0.76
-0.87
-2.58
-3.57
-3.30
-1.87
0.03
1.51
1.93
1.24
-0.02
-1.07
-1.39
-0.96
-0.24
0.18
-0.03
-0.73
-1.45
-1.65
-1.13
-0.08
0.92
1.33
0.83
-0.40
-1.81
-2.65
-2.42
-1.13
0.66
2.08
2.42
1.53
-0.09
-1.57
-2.10
-1.47
-0.12
1.13
1.62
1.21
0.34
-0.29
-0.20
0.61
1.70
2.44
2.51
1.97
1.29
0.96
1.17
1.71
2.09
1.83
0.78
-0.75
-2.18
-2.90
-2.69
-1.76
-0.67
-0.02
-0.08
-0.70
-1.34
-1.43
-0.72
0.58
1.89
2.54
2.25
1.21
0.07
-0.47
-0.03
1.17
2.49
3.16
2.76
1.43
-0.17
-1.25
-1.34
-0.54
0.54
1.16
0.91
-0.12
-1.32
-2.03
-1.91
-1.19
-0.48
-0.40
-1.15
-2.37
-3.39
-3.59
-2.79
-1.39
-0.09
0.48
0.14
-0.79
-1.67
-1.94
-1.39
-0.31
0.72
1.16
0.82
-0.02
-0.76
-0.81
0.01
1.47
2.92
3.75
3.63
2.72
1.53
0.66
0.44
0.79
1.27
1.41
0.97
0.10
-0.79
-1.24
-1.10
-0.51
0.09
0.31
0.02
-0.55
-0.96
-0.84
-0.07
0.99
1.82
1.90
1.10
-0.25
-1.47
-1.94
-1.43
-0.29
0.78
1.07
0.35
-1.01
-2.26
-2.67
-2.02
-0.68
0.63
1.23
0.91
-0.02
-0.92
-1.23
-0.75
0.22
1.13
1.49
1.16
0.42
-0.20
-0.28
0.25
1.03
1.53
1.28
0.26
-1.12
-2.24
-2.58
-2.05
-0.98
0.03
0.47
0.22
-0.47
-1.05
-1.01
-0.18
1.20
2.52
3.14
2.71
1.40
-0.17
-1.23
-1.29
-0.42
0.79
1.59
1.50
0.66
-0.26
-0.49
0.33
1.86
3.26
3.67
2.76
0.95
-0.82
-1.63
-1.15
0.22
1.54
1.93
1.04
-0.77
-2.64
-3.72
-3.58
-2.47
-1.10
-0.24
-0.29
-1.12
-2.12
-2.59
-2.14
-0.89
0.54
1.39
1.19
-0.00
-1.58
-2.71
-2.83
-1.94
-0.63
0.36
0.57
0.11
-0.37
-0.19
0.83
2.25
3.22
3.00
1.52
-0.56
-2.23
-2.68
-1.75
-0.03
1.57
2.28
1.90
0.88
-0.02
-0.19
0.49
1.61
2.44
2.40
1.41
-0.07
-1.24
-1.46
-0.63
0.75
1.81
1.87
0.84
-0.74
-2.00
-2.23
-1.41
-0.10
0.85
0.86
-0.09
-1.40
-2.33
-2.37
-1.54
-0.34
0.61
0.91
0.55
-0.07
-0.44
-0.23
0.52
1.45
2.03
1.87
0.91
-0.47
-1.65
-2.08
-1.58
-0.42
0.79
1.48
1.44
0.88
0.32
0.25
0.79
1.67
2.30
2.16
1.16
-0.30
-1.52
-1.85
-1.09
0.34
1.69
2.22
1.65
0.30
-1.11
-1.86
-1.63
-0.68
0.36
0.83
0.42
-0.62
-1.73
-2.27
-1.95
-0.95
0.16
0.79
0.65
-0.10
-0.92
-1.28
-0.97
-0.27
0.30
0.23
-0.55
-1.64
-2.37
-2.18
-1.02
0.57
1.79
1.96
0.99
-0.57
-1.83
-2.06
-1.11
0.54
2.04
2.70
2.33
1.28
0.16
-0.55
-0.75
-0.70
-0.78
-1.16
-1.70
-2.03
-1.79
-0.86
0.55
1.98
2.91
2.95
2.05
0.53
-1.00
-1.92
-1.85
-0.96
0.20
0.89
0.68
-0.33
-1.54
-2.19
-1.86
-0.71
0.64
1.50
1.59
1.18
0.91
1.30
2.34
3.48
3.94
3.17
1.31
-0.92
-2.47
-2.60
-1.19
1.10
3.23
4.24
3.71
1.99
-0.12
-1.71
-2.27
-1.89
-1.14
-0.66
-0.73
-1.14
-1.35
-0.92
0.14
1.27
1.70
0.90
-0.99
-3.23
-4.80
-4.96
-3.64
-1.49
0.54
1.66
1.65
0.88
0.07
-0.23
0.12
0.73
1.01
0.54
-0.60
-1.88
-2.59
-2.29
-1.12
0.33
1.33
1.47
0.86
0.05
-0.35
-0.10
0.61
1.23
1.27
0.60
-0.45
-1.28
-1.33
-0.45
1.05
2.49
3.20
2.90
1.82
0.61
-0.03
0.27
1.31
2.43
2.90
2.29
0.79
-0.96
-2.20
-2.47
-1.89
-1.01
-0.48
-0.63
-1.32
-2.02
-2.19
-1.67
-0.74
0.01
0.07
-0.61
-1.58
-2.14
-1.72
-0.31
1.55
3.04
3.47
2.71
1.19
-0.37
-1.30
-1.34
-0.76
-0.08
0.20
-0.10
-0.70
-1.09
-0.85
0.09
1.32
2.19
2.13
1.06
-0.59
-2.04
-2.59
-1.97
-0.55
0.96
1.82
1.73
0.91
-0.01
-0.38
0.07
1.07
2.01
2.26
1.56
0.21
-1.13
-1.79
-1.48
-0.47
0.59
1.04
0.58
-0.56
-1.77
-2.44
-2.26
-1.42
-0.35
0.46
0.83
0.87
0.82
0.90
1.09
1.23
1.09
0.58
-0.17
-0.92
-1.41
-1.46
-1.15
-0.68
-0.28
-0.12
-0.14
-0.12
0.22
1.04
2.21
3.32
3.82
3.35
1.92
0.01
-1.65
-2.41
-2.07
-0.93
0.33
1.05
0.93
0.12
-0.87
-1.50
-1.51
-1.01
-0.40
-0.05
-0.09
-0.34
-0.44
-0.14
0.50
1.14
1.32
0.80
-0.30
-1.46
-2.08
-1.77
-0.60
0.93
2.10
2.39
1.68
0.42
-0.72
-1.12
-0.62
0.44
1.41
1.68
1.08
-0.10
-1.21
-1.69
-1.39
-0.63
-0.03
-0.07
-0.80
-1.77
-2.37
-2.14
-1.13
0.14
1.00
0.96
0.10
-1.04
-1.72
-1.43
-0.18
1.50
2.79
3.04
2.12
0.52
-0.94
-1.55
-1.07
0.07
1.08
1.28
0.46
-0.93
-2.08
-2.32
-1.45
0.09
1.54
2.20
1.84
0.72
-0.53
-1.38
-1.60
-1.34
-1.03
-0.99
-1.27
-1.61
-1.62
-1.05
-0.01
1.04
1.57
1.27
0.28
-0.85
-1.47
-1.20
-0.15
1.10
1.86
1.75
0.86
-0.29
-0.98
-0.80
0.17
1.40
2.17
2.02
0.97
-0.48
-1.59
-1.80
-1.02
0.35
1.62
2.22
1.98
1.18
0.40
0.14
0.53
1.27
1.82
1.72
0.89
-0.31
-1.24
-1.41
-0.78
0.21
0.83
0.55
-0.66
-2.27
-3.44
-3.54
-2.52
-0.94
0.35
0.68
-0.01
-1.14
-1.86
-1.53
-0.18
1.52
2.62
2.47
1.09
-0.80
-2.23
-2.52
-1.63
-0.23
0.80
0.83
-0.14
-1.50
-2.46
-2.46
-1.58
-0.42
0.25
-0.08
-1.30
-2.85
-4.00
-4.32
-3.94
-3.40
-3.32
-4.02
-5.27
-6.51
-7.21
-7.18
-6.74
-6.51
-6.98
-8.23
-9.89
-11.40
-12.36
-12.80
-13.18
-14.14
-16.12
-19.08
-22.49
-25.64
-28.05
-29.76
-31.39
-33.78
-37.57
-42.88
-49.10
-55.27
-60.52
-64.63
-68.14
-72.10
-77.51
-84.72
-93.24
-101.81
-109.10
-114.54
-118.64
-122.83
-128.67
-136.99
-147.28
-158.17
-167.49
-173.22
-173.93
-168.69
-156.81
-137.50
-110.11
-74.40
-31.34
17.83
72.06
130.59
193.32
260.51
331.98
406.43
481.10
551.23
611.91
658.66
687.84
696.97
684.69
650.24
593.45
518.86
429.72
331.04
230.29
136.23
56.50
-5.08
-50.31
-86.04
-120.40
-160.52
-209.11
-264.25
-321.36
-375.83
-424.80
-467.52
-504.34
-534.99
-558.50
-572.84
-576.16
-567.89
-550.48
-526.60
-499.03
-469.92
-440.46
-411.10
-381.47
-351.09
-320.09
-289.46
-260.81
-236.16
-217.15
-204.42
-197.15
-193.07
-189.21
-182.86
-172.39
-157.46
-138.96
-118.22
-96.12
-71.73
-42.54
-5.08
44.01
107.45
187.06
283.46
395.58
518.24
643.14
758.85
853.08
915.83
942.43
934.57
898.59
842.05
770.04
685.15
588.80
484.30
378.68
282.14
204.26
149.89
120.00
107.00
100.63
92.17
77.16
55.71
30.95
6.24
-16.47
-37.12
-57.39
-78.67
-101.64
-126.04
-152.58
-180.34
-207.92
-234.23
-258.55
-281.08
-301.93
-321.09
-338.05
-351.42
-358.80
-357.22
-343.27
-313.66
-266.59
-202.70
-126.77
-47.96
21.54
69.70
88.30
76.07
39.66
-8.75
-54.06
-82.76
-86.84
-65.78
-26.17
20.61
62.21
89.25
97.83
89.99
71.72
49.93
29.81
13.88
2.62
-4.22
-6.71
-4.96
0.07
5.81
8.58
5.21
-5.04
-19.62
-33.42
-41.08
-39.38
-28.99
-14.38
-1.80
3.71
0.78
-7.76
-16.39
-19.94
-16.22
-7.07
2.70
7.96
5.77
-3.35
-15.95
-27.40
-33.92
-33.87
-27.90
-18.42
-8.48
-0.67
3.58
4.19
2.10
-1.33
-4.85
-7.60
-9.10
-9.00
-7.07
-3.38
1.46
6.11
8.90
8.39
4.13
-3.03
-11.22
-18.36
-22.84
-24.02
-22.15
-18.01
-12.59
-6.89
-1.87
1.62
3.08
2.51
0.61
-1.45
-2.48
-1.82
0.26
2.58
3.70
2.63
-0.50
-4.44
-7.31
-7.41
-4.07
2.04
9.03
14.54
16.49
13.89
7.14
-2.02
-11.19
-18.08
-21.34
-20.87
-17.64
-13.10
-8.54
-4.70
-1.76
0.23
1.19
0.96
-0.43
-2.41
-3.94
-3.94
-1.94
1.50
4.93
6.75
6.24
3.97
1.50
0.46
1.42
3.47
4.58
2.87
-2.24
-9.44
-16.14
-19.71
-18.90
-14.40
-8.41
-3.41
-1.00
-1.31
-3.18
-4.98
-5.53
-4.59
-2.91
-1.72
-1.91
-3.46
-5.31
-5.84
-3.90
0.41
5.52
9.08
9.27
5.87
0.48
-4.25
-6.08
-4.45
-0.62
3.12
4.85
4.04
1.61
-0.79
-1.93
-1.65
-0.80
-0.57
-1.63
-3.76
-5.94
-7.00
-6.38
-4.45
-2.39
-1.51
-2.49
-4.95
-7.58
-8.74
-7.48
-4.03
0.23
3.55
4.76
3.99
2.41
1.57
2.41
4.74
7.42
9.01
8.59
6.24
3.04
0.45
-0.51
0.15
1.37
1.52
-0.57
-4.81
-9.67
-12.74
-12.05
-7.28
-0.04
6.74
10.48
10.26
7.23
3.71
1.57
1.06
0.79
-1.18
-5.87
-12.47
-18.73
-22.22
-21.80
-18.30
-14.09
-11.70
-12.55
-16.14
-20.45
-23.06
-22.52
-19.15
-14.88
-12.17
-12.70
-16.36
-21.45
-25.61
-27.13
-25.89
-23.20
-20.99
-20.73
-22.84
-26.71
-31.29
-35.60
-38.75
-39.75
-37.24
-29.94
-17.36
-0.55
17.89
34.50
46.40
52.63
54.34
54.49
56.55
63.08
74.83
90.71
108.39
125.43
140.25
152.24
161.50
168.22
172.32
173.41
171.09
165.22
156.22
145.29
133.97
123.40
114.04
105.37
96.09
84.69
70.01
50.42
24.49
-8.53
-48.01
-91.22
-133.30
-168.28
-189.70
-194.36
-183.44
-161.72
-135.56
-110.49
-89.70
-73.92
-62.46
-54.45
-49.62
-47.97
-49.07
-51.81
-54.72
-56.58
-56.98
-56.46
-56.06
-57.27
-61.04
-67.37
-75.55
-84.47
-93.19
-101.31
-109.15
-117.50
-127.39
-139.41
-153.41
-168.59
-183.70
-197.44
-208.80
-217.10
-221.96
-223.03
-220.06
-212.14
-198.10
-176.93
-148.23
-112.51
-71.31
-26.89
18.16
61.53
101.58
137.45
168.86
195.84
218.49
236.74
250.49
259.71
264.58
265.67
263.74
259.78
254.95
250.72
248.52
249.12
251.74
253.75
251.13
239.96
218.21
186.86
149.72
112.00
78.41
51.71
32.50
19.74
11.65
6.24
1.38
-5.17
-15.50
-30.61
-49.62
-69.43
-85.36
-92.64
-88.04
-70.98
-43.89
-11.48
20.55
46.96
63.98
69.87
64.88
50.74
30.16
6.51
-16.42
-34.81
-45.59
-47.35
-41.04
-29.74
-17.57
-8.09
-2.93
-1.55
-2.10
-2.86
-3.33
-4.20
-6.38
-9.73
-12.44
-11.68
-5.18
7.26
23.01
37.39
45.50
43.86
31.57
10.15
-17.50
-48.31
-79.73
-109.60
-135.56
-154.40
-162.59
-157.37
-138.40
-108.79
-74.97
-45.02
-26.33
-23.22
-35.47
-58.75
-86.19
-110.72
-127.06
-133.05
-129.68
-119.79
-108.66
-100.88
-100.67
-110.97
-132.56
-163.10
-196.51
-223.64
-234.66
-222.87
-187.81
-136.71
-82.17
-37.14
-9.47
1.09
1.57
1.07
5.09
12.96
18.79
15.96
1.73
-20.57
-43.04
-57.08
-57.22
-43.09
-18.20
12.58
45.42
78.37
110.77
142.00
170.35
193.09
207.17
210.36
202.38
185.37
163.27
140.60
121.02
106.22
95.96
88.24
80.83
72.40
63.09
54.09
46.79
41.97
39.57
39.31
41.33
46.31
54.89
66.88
80.53
92.78
100.33
101.08
95.06
84.31
71.94
60.80
52.68
47.95
46.12
46.31
47.50
48.33
46.78
40.40
27.15
6.76
-18.43
-43.79
-63.95
-75.17
-77.03
-72.71
-67.18
-64.75
-67.04
-72.69
-78.80
-83.02
-84.99
-86.30
-89.33
-95.56
-104.86
-115.63
-125.85
-133.93
-139.07
-141.22
-140.70
-138.03
-133.94
-129.28
-124.87
-121.08
-117.59
-113.05
-105.72
-93.88
-76.41
-53.03
-24.40
8.21
43.19
78.81
113.23
144.53
170.99
191.34
205.08
212.54
214.80
213.52
210.38
206.72
203.16
199.62
195.55
190.35
183.61
175.52
166.95
159.00
152.45
147.25
142.31
135.77
125.58
110.45
89.77
64.26
35.50
5.20
-25.49
-56.45
-88.32
-120.92
-154.41
-188.89
-224.13
-259.23
-291.96
-318.36
-333.15
-331.34
-310.44
-272.43
-223.63
-172.65
-127.59
-93.50
-71.58
-60.12
-56.35
-57.72
-62.54
-69.20
-75.43
-78.39
-75.60
-66.04
-50.57
-31.94
-12.60
5.91
23.75
42.70
65.55
94.97
132.23
175.82
220.69
258.93
281.58
281.85
258.14
215.27
163.07
112.80
73.13
47.63
34.96
30.90
31.26
34.03
39.41
48.24
60.36
73.65
84.59
89.65
86.21
72.65
48.49
13.91
-29.83
-79.68
-130.40
-175.22
-207.64
-222.79
-220.71
-205.94
-185.37
-165.25
-149.03
-137.03
-128.42
-121.69
-116.26
-112.53
-110.94
-111.28
-112.81
-114.88
-117.68
-122.30
-130.14
-142.27
-158.66
-177.69
-196.57
-212.22
-222.28
-225.76
-223.13
-215.54
-204.52
-191.24
-176.03
-158.64
-138.78
-116.78
-93.96
-72.44
-54.48
-41.71
-34.51
-31.80
-31.50
-31.38
-29.85
-26.44
-21.61
-16.07
-10.12
-3.03
6.81
21.41
42.42
70.56
105.25
144.49
185.04
222.70
253.25
273.61
283.04
283.82
280.56
278.45
280.84
287.44
294.17
295.01
284.82
261.88
229.06
192.90
161.21
140.28
133.09
138.74
153.54
172.32
190.09
203.10
209.40
208.87
203.05
194.80
186.97
182.66
184.44
193.58
209.68
230.59
252.77
272.03
284.29
286.51
277.33
257.12
227.75
191.87
152.18
110.82
69.20
28.14
-11.84
-49.99
-85.33
-116.76
-143.29
-164.36
-179.99
-190.75
-197.55
-201.40
-203.07
-203.04
-201.47
-198.41
-193.85
-187.91
-180.85
-173.04
-164.88
-156.67
-148.61
-140.76
-133.09
-125.54
-118.05
-110.62
-103.31
-96.18
-89.32
-82.78
-76.60
-70.77
-65.27
-60.10
-55.23
-50.66
-46.36
-42.34
-38.60
-35.11
-31.87
-28.87
-26.10
-23.55
-21.22
-19.08
-17.08
-15.27
-13.69
-12.36
-11.28
-10.38
-9.60
-8.88
-8.17
-7.47
-6.85
-6.33
-5.97
-5.75
-5.63
-5.53
-5.38
-5.13
-4.81
-4.52
-4.38
-4.46
-4.77
-5.20
-5.59
-5.78
-5.66
-5.34
-5.05
-5.10
-5.70
-6.86
-8.34
-9.70
-10.53
-10.61
-10.15
-9.66
-9.81
-11.08
-13.49
-16.55
-19.42
-21.26
-21.70
-21.04
-20.20
-20.33
-22.24
-25.99
-30.81
-35.36
-38.51
-39.67
-39.15
-37.97
-37.30
-38.11
-41.01
-46.39
-54.07
-62.83
-69.86
-71.12
-62.71
-42.87
-13.52
19.90
50.31
71.94
82.46
83.45
78.85
72.61
66.91
61.91
56.79
51.10
45.40
40.91
38.54
38.16
38.66
38.59
36.77
33.02
28.12
23.36
19.92
18.32
18.26
18.86
19.09
18.27
16.30
13.71
11.21
9.43
8.60
8.53
8.82
9.05
9.04
8.86
8.70
8.69
8.81
8.90
8.82
8.63
8.58
9.05
10.36
12.46
14.93
17.08
18.34
18.53
18.08
17.88
18.87
21.61
25.89
30.79
35.03
37.79
38.75
38.45
37.94
38.29
40.25
44.29
50.56
58.53
66.65
71.88
70.44
59.30
38.06
9.93
-19.16
-42.62
-56.08
-58.65
-53.01
-43.37
-33.29
-24.55
-17.07
-10.51
-5.17
-2.27
-2.96
-7.75
-15.77
-25.20
-34.03
-40.78
-45.15
-47.58
-50.21
-53.95
-59.14
-65.09
-70.24
-72.86
-71.72
-66.45
-57.77
-47.17
-36.21
-26.21
-17.71
-10.51
-4.21
1.43
6.09
8.81
8.28
4.06
-4.37
-16.04
-28.91
-40.69
-49.71
-55.17
-57.55
-58.18
-58.39
-59.55
-62.42
-67.42
-74.40
-82.18
-87.88
-87.55
-77.58
-56.57
-26.92
5.77
34.68
54.59
63.84
64.52
60.61
55.71
51.54
47.84
43.76
39.01
34.31
30.90
29.59
30.05
31.02
31.07
29.11
25.21
20.34
15.84
12.84
11.71
11.96
12.56
12.47
11.03
8.30
4.93
1.76
-0.58
-1.96
-2.76
-3.72
-5.38
-8.02
-11.39
-14.90
-17.86
-19.79
-20.51
-20.09
-18.80
-16.68
-13.54
-9.01
-2.76
5.18
14.28
23.53
31.85
38.45
43.17
46.51
49.44
52.90
57.38
62.73
68.05
72.35
74.82
75.23
74.18
72.79
72.38
73.71
76.96
81.31
84.94
85.33
79.35
64.26
38.79
4.57
-33.17
-66.23
-86.18
-87.65
-70.62
-41.29
-9.67
14.22
24.00
18.86
2.56
-19.54
-41.81
-58.87
-65.76
-57.81
-32.53
8.27
57.45
103.50
133.34
137.96
116.56
76.10
28.70
-13.60
-43.43
-59.01
-63.29
-62.76
-64.47
-69.63
-79.17
-92.86
-109.95
-130.21
-152.76
-167.69
-167.24
-149.37
-117.75
-78.99
-38.53
0.67
36.50
68.56
96.63
119.90
136.42
145.01
147.21
145.29
141.25
134.94
126.21
113.86
96.08
69.63
33.04
-13.06
-67.26
-122.35
-173.82
-217.45
-250.97
-258.97
-234.45
-181.32
-112.43
-41.35
23.65
72.34
108.51
135.08
152.57
158.17
149.84
128.47
96.26
60.49
27.76
3.71
-9.91
-14.77
-15.61
-15.53
-16.31
-17.69
-17.95
-16.03
-16.17
-16.13
-14.43
-12.02
-9.30
-7.56
-7.52
-9.31
-13.82
-22.44
-37.66
-56.72
-80.87
-101.34
-112.94
-114.11
-107.22
-96.26
-84.38
-72.50
-60.75
-49.69
-39.16
-30.35
-24.07
-20.56
-18.92
-18.32
-17.57
-16.08
-14.17
-11.75
-9.99
-9.74
-11.55
-14.64
-18.45
-22.14
-25.32
-28.14
-30.50
-32.99
-35.86
-41.41
-47.23
-51.48
-52.35
-48.63
-39.69
-25.22
-5.86
19.38
47.31
75.78
102.60
126.46
146.31
161.55
172.01
177.65
178.09
172.16
159.68
140.51
115.49
85.80
53.27
20.87
-9.13
-35.46
-58.29
-77.49
-95.16
-109.86
-119.90
-123.35
-118.87
-106.35
-87.41
-65.51
-44.21
-27.11
-16.95
-16.17
-26.04
-45.85
-72.42
-97.68
-114.61
-118.01
-107.11
-85.98
-62.40
-44.11
-35.59
-36.74
-44.24
-54.00
-63.35
-71.74
-79.57
-87.06
-93.12
-96.58
-94.97
-87.20
-73.79
-56.35
-36.78
-16.17
5.25
27.95
52.45
78.84
104.02
125.87
142.64
153.31
157.89
157.33
153.24
147.32
140.89
134.47
128.17
121.52
114.14
105.94
97.14
88.35
80.09
72.74
66.31
60.77
55.71
50.90
46.19
41.55
37.11
33.01
29.34
26.10
23.37
20.99
19.02
17.45
16.25
15.36
14.64
13.91
12.91
12.37
11.22
9.00
5.50
0.59
-5.64
-13.02
-21.19
-29.67
-37.92
-45.49
-51.81
-56.51
-59.46
-60.73
-60.59
-59.48
-57.89
-56.41
-55.46
-55.27
-55.96
-57.55
-59.96
-63.03
-66.56
-70.36
-74.39
-78.35
-82.03
-85.43
-88.62
-91.79
-95.16
-98.99
-103.61
-109.38
-116.06
-123.50
-131.57
-140.15
-149.13
-158.42
-167.97
-177.77
-187.97
-197.95
-207.35
-215.86
-223.16
-228.91
-232.56
-233.20
-229.17
-223.59
-217.21
-210.43
-203.45
-196.36
-189.19
-181.98
-174.68
-167.30
-159.84
-151.50
-141.69
-130.00
-116.20
-100.33
-82.61
-63.50
-43.50
-23.24
-2.65
18.16
38.91
59.12
78.11
95.10
109.37
120.50
128.54
134.39
139.21
144.16
150.09
157.37
165.92
175.50
185.98
197.65
211.42
228.43
249.56
275.02
304.06
335.05
365.95
394.87
420.53
442.83
462.80
482.51
504.43
530.24
559.59
589.23
613.11
623.74
614.62
582.53
528.84
458.98
380.42
300.17
222.99
150.62
82.38
16.40
-49.04
-114.09
-176.54
-231.88
-274.23
-298.20
-300.99
-283.72
-251.86
-213.92
-178.69
-152.26
-136.39
-128.55
-123.63
-116.16
-101.88
-79.16
-49.21
-15.50
17.16
43.72
59.74
62.34
50.91
27.97
-1.87
-33.20
-61.33
-83.57
-99.74
-111.68
-121.93
-132.20
-141.03
-146.20
-146.30
-141.38
-132.24
-119.20
-101.54
-77.57
-45.64
-2.56
50.81
108.73
162.64
205.71
235.60
254.22
265.84
274.68
287.69
306.96
328.48
344.45
348.83
340.00
320.57
295.69
271.04
256.95
258.22
271.57
287.65
297.49
295.89
281.56
255.80
184.05
57.59
-102.05
-256.35
-377.86
-459.30
-506.45
-529.26
-537.25
-538.15
-531.30
-517.36
-497.38
-473.58
-445.55
-410.78
-367.60
-317.22
-263.57
-206.51
-146.22
-83.48
-24.67
26.39
68.20
100.02
121.07
131.02
133.75
133.17
131.03
127.31
121.43
113.03
101.92
88.44
73.55
60.10
50.34
44.24
41.41
40.97
42.19
44.32
46.21
46.23
43.10
35.83
23.26
6.94
-11.18
-28.83
-44.43
-57.52
-68.51
-77.98
-80.74
-83.09
-83.66
-82.47
-80.54
-79.60
-81.32
-86.51
-94.70
-104.29
-114.01
-121.24
-125.20
-126.39
-126.27
-126.54
-128.38
-131.97
-136.44
-141.23
-144.80
-147.21
-149.48
-153.04
-158.89
-166.99
-176.20
-184.83
-191.91
-196.49
-199.06
-200.59
-201.76
-202.46
-201.74
-198.47
-192.11
-183.40
-173.50
-164.14
-156.54
-150.91
-146.16
-140.22
-130.51
-114.57
-90.60
-57.79
-17.04
29.09
76.86
122.33
162.30
194.94
219.82
237.65
249.87
257.76
262.37
264.64
265.66
266.57
268.01
269.77
271.07
271.64
271.03
269.21
266.48
263.66
261.52
259.80
257.22
252.47
246.26
239.42
232.88
227.08
222.45
219.00
215.57
210.07
200.75
188.67
174.04
156.19
133.34
104.47
69.48
28.29
-19.35
-73.11
-129.63
-187.35
-246.06
-306.41
-367.27
-419.56
-449.84
-450.75
-440.16
-428.61
-421.60
-414.54
-404.22
-386.34
-357.05
-315.68
-265.36
-210.87
-153.94
-96.16
-38.48
17.91
72.47
124.48
172.04
212.69
245.17
272.00
295.56
317.16
336.13
351.36
361.95
367.43
368.20
365.89
363.78
363.49
364.31
363.08
356.14
340.50
314.54
278.36
233.81
184.29
132.78
81.16
29.90
-21.51
-74.38
-130.17
-189.36
-250.22
-308.12
-356.72
-390.03
-404.73
-401.50
-384.79
-360.80
-334.85
-309.65
-285.44
-261.46
-237.73
-215.62
-197.15
-183.51
-173.88
-165.51
-155.11
-140.56
-121.83
-100.66
-79.57
-60.60
-45.00
-32.94
-23.83
-16.82
-11.40
-7.72
-6.46
-8.08
-12.40
-18.59
-24.56
-27.40
-24.39
-14.34
1.46
19.56
36.08
47.74
52.35
50.02
42.92
34.70
29.17
29.05
35.64
49.43
69.86
94.95
118.92
133.92
134.64
122.40
103.00
81.94
62.60
49.02
39.19
31.65
26.18
23.39
23.92
27.83
31.90
34.62
35.45
33.99
30.79
26.76
22.94
20.17
18.68
18.03
17.97
17.93
16.80
14.04
9.70
4.58
-0.14
-3.56
-5.47
-5.92
-5.46
-4.98
-4.72
-4.29
-2.90
0.05
4.34
8.86
12.35
13.84
13.02
10.61
7.90
6.14
6.09
7.80
10.84
14.66
18.74
22.53
25.61
27.65
28.52
28.32
27.35
25.95
24.39
22.79
21.16
19.51
17.84
16.13
14.28
12.17
9.76
7.15
4.61
2.42
0.73
-0.56
-1.75
-3.18
-5.03
-7.21
-9.43
-11.32
-12.62
-13.28
-13.41
-13.20
-12.80
-12.27
-11.68
-11.17
-10.95
-11.22
-12.05
-13.32
-14.74
-16.00
-16.96
-17.65
-18.21
-18.71
-19.03
-18.80
-17.63
-15.29
-11.95
-8.09
-4.41
-1.49
0.34
1.09
1.05
0.65
0.32
0.39
1.07
2.38
4.26
6.56
9.18
12.09
15.31
18.81
22.40
25.70
28.22
29.53
29.41
27.96
25.51
22.56
19.64
17.11
15.13
13.59
12.16
10.36
7.82
4.41
0.40
-3.59
-6.84
-8.80
-9.41
-9.14
-8.85
-9.44
-11.44
-14.82
-18.98
-23.09
-26.37
-28.40
-29.11
-28.63
-27.15
-24.71
-21.41
-17.48
-13.43
-9.90
-7.32
-5.71
-4.64
-3.45
-1.77
0.30
2.17
3.11
2.72
1.24
-0.59
-1.96
-2.52
-2.59
-2.91
-4.07
-5.94
-7.58
-7.67
-5.29
-0.66
4.72
8.66
9.26
5.77
-1.03
-9.41
-17.49
-24.04
-28.80
-32.14
-34.61
-36.49
-37.78
-38.37
-38.27
-37.76
-37.22
-36.96
-37.09
-37.43
-37.58
-37.06
-35.35
-32.05
-27.03
-20.54
-13.19
-5.74
1.14
7.08
12.14
16.60
20.75
24.73
28.43
31.67
34.25
36.08
37.13
37.39
36.78
35.24
32.88
30.08
27.51
25.91
25.80
27.21
29.68
32.46
34.77
36.17
36.65
36.42
35.82
34.98
33.90
32.50
30.80
28.97
27.24
25.69
24.11
22.01
18.76
13.94
7.56
0.15
-7.54
-14.92
-21.91
-29.06
-37.20
-47.05
-58.74
-71.70
-84.86
-96.99
-107.07
-114.33
-118.20
-118.20
-113.97
-105.43
-92.96
-77.46
-60.20
-42.50
-25.48
-9.96
3.58
14.92
24.04
31.14
36.54
40.70
44.09
47.09
49.93
52.77
55.72
58.76
61.80
64.52
66.49
67.28
66.63
64.59
61.37
57.24
52.38
46.90
41.00
35.07
29.65
25.22
21.95
19.52
17.29
14.67
11.50
8.00
4.56
1.46
-1.33
-3.77
-5.50
-5.66
-3.15
2.72
11.58
21.67
30.38
35.30
35.31
30.86
23.57
15.31
7.20
-0.75
-9.50
-20.15
-32.93
-47.03
-61.17
-74.26
-85.64
-94.73
-100.65
-102.46
-99.52
-91.67
-79.72
-65.43
-50.88
-37.45
-24.93
-11.65
4.11
22.83
43.35
62.77
76.91
81.35
72.49
49.88
19.42
-9.20
-28.63
-36.96
-36.58
-31.45
-24.94
-18.66
-12.51
-5.85
1.10
6.83
9.89
9.88
7.68
4.86
2.88
2.69
4.26
6.58
7.95
7.46
5.46
3.28
2.09
2.34
3.70
5.21
5.85
4.52
1.37
-2.43
-5.66
-7.66
-9.07
-11.25
-15.54
-22.33
-32.09
-44.15
-57.17
-68.83
-76.76
-78.02
-69.45
-49.22
-17.60
20.94
60.39
95.19
122.75
142.90
157.70
169.14
173.63
172.72
161.18
135.85
95.00
48.24
6.32
-22.85
-36.93
-38.79
-33.66
-27.19
-22.12
-18.05
-13.05
-7.82
-3.80
-3.34
-7.94
-16.68
-27.82
-38.88
-47.34
-51.91
-54.05
-56.49
-62.27
-73.64
-90.63
-106.70
-118.00
-119.88
-108.90
-86.02
-56.59
-28.48
-9.07
-1.76
-5.02
-13.60
-20.74
-21.37
-14.29
-2.03
13.05
28.42
42.36
53.63
61.31
65.33
66.87
68.07
71.69
80.06
92.82
106.78
114.68
111.03
94.38
68.36
39.77
15.84
1.35
-3.53
-1.44
3.93
9.77
13.58
14.84
12.48
6.22
-2.47
-11.10
-15.38
-11.52
1.77
21.06
40.66
54.14
57.87
52.04
38.27
20.14
0.65
-19.03
-41.32
-65.49
-91.55
-118.81
-146.26
-174.32
-201.03
-222.17
-232.05
-227.60
-208.43
-178.76
-145.46
-104.94
-64.76
-34.17
-20.09
-15.56
-16.09
-18.18
-20.98
-23.49
-24.43
-24.53
-23.19
-21.54
-20.53
-20.92
-21.45
-21.03
-19.50
-17.99
-17.54
-18.76
-21.54
-25.45
-31.72
-41.63
-55.90
-73.46
-94.22
-115.88
-135.03
-148.83
-155.91
-157.62
-156.53
-155.38
-155.88
-158.44
-162.48
-167.07
-171.28
-174.34
-176.09
-176.52
-175.46
-172.46
-166.72
-156.94
-141.70
-119.52
-89.35
-51.23
-6.47
42.55
92.97
142.23
188.72
231.58
270.48
305.35
336.21
363.33
387.58
410.27
432.63
454.78
474.93
489.46
493.95
484.87
460.91
423.31
374.99
319.17
258.26
193.58
126.18
57.81
-8.56
-69.09
-120.27
-160.12
-188.62
-207.28
-217.85
-221.16
-216.54
-202.15
-176.18
-138.10
-89.46
-33.85
23.74
77.95
124.08
158.72
180.16
188.34
184.69
171.76
152.82
131.41
110.96
94.19
82.82
77.11
75.62
75.68
74.19
68.94
59.54
47.55
35.61
26.04
19.69
15.78
12.65
8.95
4.51
0.37
-1.89
-1.19
2.36
7.40
11.99
14.42
13.86
10.59
5.73
0.78
-2.89
-4.49
-4.10
-2.61
-1.45
-2.07
-5.43
-11.74
-20.54
-30.93
-41.78
-51.97
-60.37
-66.20
-69.71
-72.86
-79.55
-94.31
-119.92
-155.09
-193.74
-226.64
-244.94
-243.65
-223.32
-188.91
-147.09
-103.49
-61.57
-23.37
9.14
33.28
46.13
46.02
33.61
12.00
-14.16
-39.89
-60.83
-73.59
-76.06
-67.59
-48.99
-22.42
9.18
42.82
75.93
106.55
133.21
154.60
169.64
177.72
178.95
174.45
166.23
156.83
148.61
143.29
141.45
142.43
144.48
145.00
140.87
128.91
106.36
71.60
25.05
-30.36
-89.38
-145.56
-193.24
-229.28
-254.02
-270.64
-283.29
-294.77
-305.08
-311.31
-309.03
-294.37
-265.57
-223.38
-170.28
-109.35
-43.49
24.45
91.06
151.93
201.96
236.65
253.66
253.83
241.13
221.37
200.30
182.02
168.32
158.82
152.04
146.30
140.35
133.57
125.73
116.88
107.20
97.22
87.76
79.98
74.66
71.53
68.67
62.69
49.50
25.75
-9.85
-55.82
-108.16
-161.43
-210.27
-250.95
-281.92
-303.43
-316.30
-320.60
-315.03
-297.21
-264.99
-217.83
-157.92
-90.19
-21.37
41.66
93.49
131.17
154.37
164.87
165.56
159.59
149.70
137.93
125.67
113.88
103.25
94.25
86.98
81.08
75.81
70.23
63.50
55.07
44.77
32.67
18.64
2.04
-18.44
-44.38
-76.78
-115.14
-156.96
-197.96
-233.23
-258.47
-270.84
-269.11
-253.06
-223.03
-179.99
-126.10
-65.35
-3.41
53.34
99.42
131.60
149.40
154.64
150.42
140.25
127.45
114.76
104.01
95.93
89.90
84.48
78.06
69.67
59.06
46.38
31.63
14.46
-5.32
-27.16
-49.73
-71.35
-90.88
-108.01
-122.67
-133.85
-138.95
-134.22
-116.57
-85.48
-43.90
2.48
47.33
85.91
116.26
139.00
156.01
169.03
178.97
185.98
190.00
191.35
190.83
189.45
187.93
186.31
183.89
179.51
172.10
161.12
146.69
129.38
109.65
87.43
61.96
31.87
-4.46
-48.57
-101.27
-162.02
-228.31
-295.52
-357.51
-407.82
-441.17
-454.47
-447.07
-420.30
-376.78
-319.93
-254.07
-184.26
-115.84
-53.73
-1.47
39.32
68.99
89.16
101.90
109.02
112.25
113.31
113.68
114.16
114.39
113.01
108.53
100.28
88.72
75.63
63.32
53.40
45.94
39.63
32.82
24.58
15.16
4.82
-5.47
-14.25
-20.28
-23.48
-24.80
-25.64
-26.96
-28.90
-32.97
-39.58
-47.86
-56.58
-65.75
-76.45
-89.72
-105.42
-122.21
-141.65
-164.29
-188.41
-210.67
-228.24
-239.49
-243.97
-242.12
-235.18
-229.35
-228.82
-233.32
-239.02
-242.70
-243.70
-243.87
-245.79
-222.74
-162.58
-73.37
23.64
111.60
183.67
238.97
278.55
304.54
320.07
324.11
316.82
300.91
282.78
265.14
249.04
234.47
220.86
207.20
188.68
162.23
128.61
92.27
60.17
37.36
25.36
22.64
26.10
30.48
32.48
31.89
30.71
30.58
31.69
33.22
34.21
34.25
32.57
29.48
26.16
24.22
24.26
25.18
25.47
23.41
17.98
8.80
-3.50
-17.76
-32.73
-47.57
-61.88
-75.05
-85.82
-92.37
-93.22
-88.10
-78.14
-64.71
-48.58
-29.68
-7.63
16.93
41.59
62.47
75.87
78.03
67.94
48.28
23.96
-0.66
-23.96
-47.36
-73.68
-104.56
-138.95
-173.04
-202.30
-223.80
-237.17
-243.84
-245.41
-242.12
-232.42
-214.25
-186.63
-151.18
-112.30
-75.83
-47.11
-29.28
-22.90
-26.72
-38.88
-57.40
-80.31
-105.04
-128.10
-145.30
-152.85
-148.60
-132.86
-108.29
-78.59
-47.30
-16.89
11.46
37.42
61.16
83.18
104.27
125.71
149.06
175.73
206.08
238.96
271.54
299.95
320.42
330.46
329.72
319.96
304.27
285.73
266.43
246.95
226.76
205.00
181.40
156.83
133.15
112.73
97.64
88.86
85.51
84.77
82.66
75.49
61.42
41.46
19.09
-1.16
-15.74
-23.42
-25.46
-24.43
-22.85
-22.08
-22.33
-23.37
-25.12
-27.85
-31.58
-35.64
-38.49
-38.54
-34.97
-28.36
-20.48
-13.61
-9.51
-8.87
-11.31
-15.67
-20.66
-25.26
-29.00
-32.07
-35.27
-39.74
-46.42
-55.46
-65.74
-74.95
-80.32
-79.89
-73.49
-62.96
-51.54
-42.31
-36.81
-34.18
-31.63
-25.83
-14.66
1.90
22.05
43.29
63.76
83.00
101.65
120.33
138.60
154.41
165.09
168.83
165.70
157.99
149.39
143.63
143.19
148.52
157.80
168.36
177.80
184.08
185.03
178.44
162.80
138.63
109.15
78.64
51.72
31.31
16.58
2.90
-15.19
-39.95
-68.08
-91.70
-103.88
-100.92
-83.83
-58.46
-33.62
-17.47
-14.52
-24.99
-46.65
-78.80
-120.43
-168.63
-218.59
-265.11
-303.68
-330.99
-345.49
-334.46
-294.16
-235.51
-175.94
-126.92
-91.61
-68.39
-53.50
-42.58
-32.39
-23.79
-19.05
-19.22
-23.52
-30.19
-37.02
-41.57
-40.99
-34.31
-23.34
-10.46
2.33
13.08
18.78
16.45
5.31
-11.19
-26.75
-35.76
-35.14
-25.52
-10.99
2.85
11.94
11.96
3.45
-10.33
-25.92
-40.69
-52.85
-60.88
-63.79
-61.57
-55.96
-49.81
-46.73
-49.52
-58.36
-70.29
-80.50
-84.67
-80.92
-70.44
-56.34
-42.74
-33.38
-30.68
-35.18
-45.54
-58.77
-70.82
-77.66
-76.13
-65.33
-46.75
-23.49
1.17
25.18
48.09
70.45
92.61
114.01
133.16
148.38
158.90
165.34
169.37
172.78
176.49
180.24
182.99
183.71
181.98
178.07
172.67
166.33
159.26
151.42
142.80
133.62
124.45
115.89
108.32
101.43
94.08
84.51
70.97
52.65
30.32
6.35
-15.99
-33.83
-45.71
-52.01
-54.40
-54.81
-54.39
-53.30
-51.26
-48.37
-45.52
-44.22
-45.66
-49.75
-54.78
-57.89
-55.96
-46.88
-30.60
-9.44
12.30
29.51
37.80
34.94
21.49
0.66
-22.80
-44.14
-60.04
-69.30
-72.64
-72.08
-69.89
-67.89
-67.05
-67.57
-69.21
-71.62
-74.57
-78.06
-82.29
-87.48
-93.43
-99.48
-104.47
-106.93
-105.51
-99.48
-89.01
-75.19
-59.55
-43.29
-26.91
-10.20
6.98
23.88
38.62
48.78
52.79
51.18
46.72
43.42
44.70
51.68
62.77
74.53
83.46
87.62
87.34
84.77
82.77
83.68
88.59
96.87
106.08
112.56
112.55
103.80
86.85
65.30
44.61
29.92
23.91
25.93
32.71
40.22
45.35
46.79
44.63
39.54
31.99
22.24
10.74
-1.45
-12.67
-21.13
-25.44
-24.93
-19.89
-11.57
-2.08
5.97
10.14
8.93
2.49
-7.18
-16.94
-23.61
-25.23
-21.88
-15.46
-8.84
-4.49
-3.50
-5.11
-7.24
-7.46
-3.98
3.57
13.91
24.39
31.70
32.81
26.31
13.28
-2.63
-16.13
-22.24
-17.83
-2.75
20.04
45.33
66.96
79.50
79.60
66.96
44.36
16.93
-9.45
-29.82
-41.49
-44.23
-39.53
-29.42
-15.57
0.71
17.98
34.15
46.76
53.78
54.60
50.64
44.96
41.41
42.96
50.60
62.73
75.73
85.71
90.11
88.94
84.72
81.18
81.33
86.08
93.97
102.21
108.26
110.85
109.99
106.17
99.46
89.09
73.94
53.38
27.59
-2.41
-35.15
-68.82
-101.14
-128.96
-148.46
-156.11
-150.08
-131.54
-105.00
-77.39
-56.01
-46.08
-48.86
-61.17
-76.71
-88.96
-94.39
-94.23
-93.97
-100.40
-117.92
-146.12
-180.21
-213.83
-242.70
-266.33
-287.17
-307.68
-327.29
-341.57
-343.90
-328.77
-294.62
-244.66
-185.73
-125.82
-71.75
-28.00
3.32
21.83
28.37
24.47
12.58
-3.77
-19.86
-30.29
-30.22
-16.85
9.35
44.41
81.72
114.14
136.14
145.32
142.61
131.33
115.62
99.05
83.98
71.48
61.76
54.59
49.58
46.33
44.52
43.95
44.15
44.19
42.57
37.60
27.97
13.35
-5.54
-27.39
-50.91
-75.27
-100.07
-124.86
-148.71
-170.13
-187.67
-200.52
-209.07
-214.80
-219.75
-225.57
-232.52
-239.17
-242.58
-239.47
-227.14
-204.42
-171.98
-132.03
-87.46
-40.79
6.38
53.18
98.44
140.48
177.46
208.07
232.30
251.70
268.89
286.38
305.40
324.52
341.08
352.97
359.78
362.75
364.04
366.14
371.10
380.05
391.16
401.37
408.08
409.79
405.44
394.00
374.98
348.61
316.02
276.09
228.02
173.23
115.36
58.07
3.72
-46.49
-91.81
-131.68
-169.55
-209.58
-253.89
-302.11
-353.51
-408.14
-465.99
-526.27
-564.59
-560.77
-512.57
-435.89
-349.06
-263.74
-186.19
-119.63
-65.25
-22.30
8.00
25.45
32.88
35.07
35.05
33.20
27.22
14.51
-5.79
-34.89
-71.39
-109.92
-141.29
-159.66
-166.14
-165.33
-161.87
-156.51
-147.87
-133.94
-110.98
-79.12
-43.70
-13.14
7.73
17.62
19.32
16.41
12.24
9.34
8.17
7.62
6.72
11.25
22.38
42.14
69.55
101.49
134.25
163.65
186.23
199.73
209.79
222.23
240.88
265.66
294.42
324.86
355.06
384.69
385.07
343.54
265.78
170.17
71.79
-22.43
-108.93
-183.61
-238.27
-275.75
-293.83
-292.91
-276.63
-250.45
-218.39
-181.71
-144.49
-110.51
-84.26
-64.07
-47.24
-30.89
-12.78
9.11
35.98
66.94
99.12
127.18
148.53
160.98
163.28
155.96
141.79
124.90
108.80
95.60
85.36
79.07
77.37
80.37
87.23
96.08
103.98
107.38
103.45
90.73
70.49
45.75
20.31
-2.24
-19.25
-29.63
-34.16
-35.19
-35.91
-39.02
-45.69
-55.01
-64.50
-71.11
-72.73
-69.04
-61.64
-53.14
-46.27
-43.21
-45.50
-54.29
-69.94
-91.39
-115.65
-138.01
-153.17
-156.84
-147.33
-125.95
-96.67
-64.33
-33.28
-6.48
14.39
28.64
36.32
38.15
35.79
31.35
27.77
28.36
35.52
49.52
68.24
87.94
104.47
115.02
118.12
114.85
108.45
102.27
97.90
95.29
93.83
93.11
93.63
94.56
94.89
93.76
89.96
81.51
66.84
45.77
18.98
-12.34
-49.64
-94.31
-145.03
-197.47
-245.23
-280.48
-296.24
-289.11
-250.59
-186.36
-117.30
-64.56
-34.92
-22.20
-16.29
-8.02
1.39
7.36
4.18
-9.49
-29.02
-46.77
-59.12
-63.97
-62.12
-57.08
-52.45
-52.40
-58.21
-67.29
-74.54
-74.86
-64.10
-40.52
-5.69
36.46
79.33
117.16
146.49
166.32
177.35
181.66
181.61
178.98
175.40
171.93
170.50
172.41
176.99
181.21
181.05
173.23
156.66
133.68
108.94
88.56
76.23
71.61
71.19
70.67
66.65
56.90
40.25
10.18
-32.51
-79.55
-120.20
-147.59
-160.39
-160.96
-153.59
-142.62
-131.06
-119.24
-106.93
-94.74
-84.00
-75.94
-70.70
-67.74
-65.87
-63.67
-59.17
-51.53
-41.80
-32.24
-25.69
-23.18
-25.07
-30.81
-39.21
-48.37
-56.88
-64.40
-70.45
-76.56
-84.24
-94.71
-108.33
-124.09
-140.65
-152.64
-154.29
-141.91
-115.14
-77.70
-36.29
1.97
31.76
51.32
62.42
69.77
77.18
86.39
96.67
106.62
115.58
123.61
131.63
140.99
155.42
172.05
189.77
207.69
225.27
241.01
251.57
253.48
230.43
177.53
105.83
35.85
-17.42
-49.67
-65.26
-71.44
-72.01
-69.13
-62.39
-51.85
-38.59
-25.49
-16.22
-13.42
-18.53
-27.76
-38.07
-47.22
-54.32
-59.47
-64.26
-70.17
-80.68
-98.85
-122.33
-151.58
-184.12
-220.53
-262.25
-310.58
-349.12
-364.26
-376.62
-390.15
-391.87
-379.58
-357.30
-331.57
-308.31
-289.89
-276.98
-267.32
-253.06
-230.09
-199.85
-165.49
-129.73
-94.17
-59.27
-26.98
0.76
25.96
49.06
68.64
84.32
97.37
110.14
125.12
142.78
162.25
183.70
205.25
223.17
234.44
237.76
233.45
223.00
207.78
189.10
169.26
149.88
131.69
115.55
102.44
93.48
89.69
91.82
100.41
116.23
139.33
168.59
201.78
235.50
265.58
287.91
299.55
299.69
290.06
274.44
257.39
242.69
232.18
225.48
220.60
215.17
207.24
195.60
179.62
158.90
133.48
104.32
73.72
45.10
22.05
6.85
-0.73
-3.47
-5.48
-10.29
-19.14
-30.55
-41.05
-46.93
-45.88
-37.86
-24.89
-10.05
3.52
13.31
17.47
14.72
4.35
-13.32
-36.20
-60.30
-80.51
-92.30
-93.68
-86.36
-75.21
-66.20
-63.80
-69.16
-79.92
-91.80
-100.68
-104.30
-102.61
-96.94
-88.81
-79.03
-67.61
-54.23
-38.85
-22.11
-5.28
10.08
22.55
31.32
36.33
38.26
38.29
37.60
36.90
36.11
34.49
31.09
25.31
17.42
8.57
0.43
-5.46
-8.28
-8.16
-5.98
-2.87
0.31
3.22
5.95
8.71
11.52
14.17
16.36
17.95
19.07
19.91
20.46
20.32
18.76
15.01
8.71
0.11
-9.90
-20.01
-28.92
-35.58
-39.51
-40.93
-40.68
-40.04
-40.27
-42.12
-45.45
-49.23
-51.98
-52.32
-49.61
-44.12
-36.79
-28.79
-21.00
-13.79
-6.95
0.08
8.01
17.46
28.82
42.19
57.32
73.69
90.64
107.46
123.39
137.52
148.56
154.83
154.38
145.24
125.84
95.48
54.91
6.68
-44.64
-93.11
-132.88
-160.13
-174.81
-181.12
-186.22
-197.55
-219.64
-252.17
-289.88
-324.80
-349.23
-358.46
-351.79
-331.86
-302.85
-268.69
-232.04
-194.37
-156.44
-118.93
-82.54
-47.70
-14.32
18.12
50.06
81.03
109.13
131.05
142.70
140.21
121.06
84.99
34.34
-25.89
-88.67
-145.86
-189.67
-214.20
-216.73
-198.23
-162.82
-116.43
-64.93
-12.56
38.80
89.13
138.96
187.78
233.13
270.86
296.60
307.65
304.28
289.78
269.14
247.02
226.25
207.48
190.00
173.09
156.93
142.42
130.27
120.07
109.97
97.35
80.00
57.26
30.45
2.68
-22.21
-40.78
-51.05
-53.08
-48.88
-41.61
-34.46
-29.48
-27.07
-26.10
-24.80
-21.60
-15.72
-7.22
3.38
15.36
27.87
39.71
49.22
54.56
54.41
48.64
38.60
26.83
16.03
8.08
3.52
1.73
1.56
2.14
3.08
4.33
5.72
6.67
6.29
3.89
-0.68
-6.94
-14.08
-21.41
-28.64
-35.83
-43.22
-51.05
-59.60
-69.16
-79.99
-91.98
-104.39
-115.89
-125.03
-130.88
-133.29
-132.71
-129.51
-123.54
-114.23
-101.26
-85.36
-68.39
-52.69
-40.00
-30.73
-23.96
-18.36
-13.11
-8.36
-4.93
-3.51
-4.15
-6.13
-8.44
-10.32
-11.38
-11.54
-10.77
-8.96
-6.13
-2.51
1.37
4.97
8.03
10.75
13.52
16.63
20.03
23.27
25.68
26.93
27.35
27.77
29.02
31.54
35.15
39.41
43.99
48.55
53.02
57.43
61.73
65.62
68.57
70.00
69.57
67.22
62.59
55.53
46.38
36.04
25.61
16.50
9.79
6.47
6.93
9.10
10.13
8.00
2.25
-6.30
-15.39
-23.20
-27.86
-28.32
-27.73
-29.77
-35.79
-44.26
-52.79
-58.09
-59.48
-56.36
-48.63
-41.55
-40.08
-45.08
-53.04
-60.51
-63.80
-64.25
-63.80
-64.71
-75.46
-103.30
-149.31
-208.41
-275.50
-344.61
-414.53
-482.98
-506.64
-457.50
-342.67
-199.18
-63.94
26.47
79.66
103.95
107.01
96.30
77.77
56.32
39.53
43.39
70.95
113.24
153.01
180.88
198.33
206.80
207.44
200.08
186.63
169.34
153.77
143.63
140.39
140.20
133.49
110.04
65.74
5.38
-61.09
-120.38
-161.53
-179.95
-175.40
-153.61
-122.94
-90.31
-59.15
-30.56
-2.89
27.58
61.05
98.01
136.08
170.52
196.22
209.83
210.29
199.52
183.66
165.65
151.00
143.81
144.99
152.15
160.64
165.41
150.02
132.09
112.22
95.96
88.06
89.31
95.84
100.69
97.19
81.40
55.82
21.93
-13.80
-44.50
-65.07
-72.29
-64.15
-39.05
2.96
58.52
110.33
140.11
138.65
109.29
63.48
14.49
-25.86
-55.61
-75.77
-92.82
-112.41
-138.45
-173.14
-213.42
-256.32
-299.12
-339.75
-374.53
-399.06
-406.72
-392.59
-357.33
-310.32
-267.02
-241.22
-238.34
-252.33
-269.90
-276.42
-263.02
-228.29
-178.95
-124.84
-72.52
-22.99
26.79
79.40
134.52
188.97
241.12
288.77
330.26
366.01
398.41
430.80
465.35
502.57
540.90
579.88
614.03
633.85
630.13
597.71
538.15
458.40
368.71
258.62
136.85
23.06
-65.31
-122.74
-154.07
-166.44
-166.28
-158.39
-146.77
-131.43
-114.17
-99.12
-88.55
-84.18
-85.62
-91.62
-99.76
-107.46
-110.32
-107.29
-100.85
-95.09
-96.07
-103.75
-117.88
-136.19
-155.82
-173.44
-188.94
-205.50
-215.50
-214.52
-202.78
-186.50
-171.55
-160.27
-150.49
-137.76
-116.55
-81.88
-34.22
20.84
71.56
105.69
115.05
99.60
67.36
30.97
1.89
-18.01
-30.25
-39.37
-47.52
-53.88
-55.70
-51.06
-40.81
-28.92
-21.90
-20.79
-29.48
-47.49
-70.04
-89.28
-96.94
-86.90
-57.92
-15.08
32.35
73.37
100.87
113.53
115.16
111.80
108.79
108.54
110.64
113.75
116.03
116.53
114.30
107.47
93.86
73.23
48.41
24.66
7.96
1.96
7.12
20.73
37.89
53.43
64.19
68.92
67.23
59.01
44.29
23.99
0.37
-23.92
-46.42
-64.28
-75.15
-78.50
-75.58
-69.04
-62.03
-57.58
-54.64
-53.97
-56.01
-60.97
-70.18
-85.80
-110.10
-144.79
-182.78
-216.67
-242.28
-259.65
-270.65
-276.41
-274.63
-260.31
-229.46
-182.14
-124.01
-64.87
-16.63
18.81
42.64
58.40
70.82
83.27
97.14
112.60
129.13
147.10
168.10
193.13
219.10
243.10
262.06
267.47
254.45
223.10
178.86
129.98
83.07
41.84
7.79
-19.50
-41.27
-57.83
-69.30
-75.45
-76.40
-73.20
-67.57
-60.98
-55.00
-50.85
-48.58
-49.44
-53.67
-60.95
-71.02
-83.64
-98.01
-113.42
-129.14
-143.98
-156.45
-165.97
-172.46
-176.39
-178.61
-179.62
-179.91
-179.82
-179.21
-177.79
-175.07
-170.50
-163.42
-155.22
-146.57
-137.96
-129.65
-121.64
-113.74
-105.66
-97.19
-88.33
-79.36
-70.42
-61.67
-53.17
-44.73
-36.00
-26.50
-15.89
-4.14
8.32
21.04
33.48
45.35
56.74
68.13
80.18
93.40
107.92
123.29
138.97
154.40
169.27
183.74
198.22
213.26
229.52
247.72
268.55
292.31
318.14
343.56
364.63
376.97
377.30
364.68
340.90
309.81
275.97
243.32
214.61
191.37
174.28
163.42
158.15
157.05
158.01
158.72
157.34
153.04
146.09
137.47
128.47
120.06
112.63
105.57
97.37
86.03
70.11
49.78
27.35
6.83
-7.61
-13.49
-11.17
-3.75
4.30
9.16
8.95
4.03
-3.87
-12.91
-22.05
-31.07
-40.06
-48.81
-56.69
-62.92
-67.07
-69.39
-70.81
-72.54
-75.55
-80.20
-86.14
-92.51
-98.38
-103.11
-106.43
-108.34
-108.71
-106.98
-102.15
-93.26
-80.04
-63.37
-45.24
-28.14
-14.14
-4.15
2.26
6.43
9.82
13.40
17.46
21.80
26.14
30.32
34.30
38.01
41.20
43.46
44.38
43.75
41.60
38.18
33.72
28.16
21.15
12.05
0.34
-14.06
-30.51
-47.71
-64.00
-77.88
-88.54
-95.98
-100.87
-104.14
-106.60
-108.76
-110.70
-112.27
-113.35
-113.95
-114.23
-114.31
-114.16
-113.54
-112.06
-109.02
-103.49
-94.66
-82.22
-66.58
-48.68
-29.57
-10.10
8.97
27.03
43.19
56.12
64.40
67.74
67.68
67.22
68.94
72.84
75.96
73.35
60.25
34.12
-4.32
-51.92
-104.61
-158.76
-211.42
-258.29
-293.26
-309.79
-303.68
-275.30
-229.99
-175.91
-118.72
-65.49
-21.70
10.14
31.42
44.60
51.25
52.92
51.86
52.34
58.89
75.45
103.70
142.09
185.33
226.06
252.95
256.99
235.00
191.53
138.11
87.98
50.08
25.88
10.78
-1.84
-16.18
-32.57
-48.47
-60.29
-65.59
-63.99
-56.94
-46.64
-35.13
-23.35
-11.38
1.01
14.24
28.47
43.38
57.99
70.82
80.02
84.21
82.74
75.87
64.74
50.77
34.98
17.84
-0.61
-20.21
-39.93
-57.89
-71.80
-79.98
-81.96
-78.69
-71.80
-62.85
-52.82
-41.99
-30.40
-18.31
-6.37
4.71
13.78
19.94
22.77
22.35
19.25
14.58
9.54
5.12
1.67
-1.21
-4.38
-8.66
-14.41
-21.33
-28.45
-34.61
-38.84
-40.61
-39.85
-36.95
-32.55
-27.55
-22.95
-19.51
-17.85
-18.25
-20.52
-24.00
-27.71
-30.66
-32.10
-31.74
-29.49
-25.86
-21.62
-17.54
-14.20
-11.81
-10.06
-8.26
-5.47
-0.40
7.51
17.92
29.57
40.62
49.33
54.74
57.10
55.09
49.61
42.19
34.49
27.89
23.32
21.41
22.40
26.07
31.63
38.34
45.16
51.32
56.51
60.95
65.08
69.15
72.84
75.31
75.80
73.66
68.72
61.37
52.40
42.77
33.32
24.54
16.62
9.67
3.55
-1.92
-6.88
-11.37
-15.41
-19.03
-22.41
-25.80
-29.35
-33.11
-36.95
-40.59
-43.77
-46.33
-48.19
-49.37
-49.83
-49.43
-48.11
-46.04
-43.74
-42.07
-41.95
-43.92
-47.81
-52.64
-56.93
-59.25
-58.79
-55.55
-50.36
-44.40
-38.74
-34.07
-30.61
-28.20
-26.56
-25.29
-23.99
-22.32
-20.03
-17.07
-13.66
-10.17
-7.03
-4.51
-2.74
-1.69
-1.30
-1.38
-1.63
-1.63
-0.69
1.91
6.72
13.95
23.29
33.98
44.83
54.54
61.88
66.12
67.26
66.10
63.96
62.27
62.06
63.54
66.09
68.56
69.71
68.67
65.15
59.47
52.33
44.52
36.63
29.03
21.92
15.44
9.81
5.35
2.30
0.74
0.42
0.92
1.76
2.66
3.55
4.53
5.69
6.96
8.10
8.80
8.79
8.03
6.64
4.85
2.84
0.64
-1.90
-5.02
-8.99
-13.96
-19.78
-26.01
-31.96
-36.78
-39.80
-40.64
-39.32
-36.21
-31.95
-27.27
-22.88
-19.32
-16.85
-15.51
-15.05
-15.10
-15.31
-15.64
-16.45
-18.35
-21.76
-26.46
-31.43
-35.11
-36.03
-33.44
-27.73
-20.24
-12.80
-7.03
-3.90
-3.70
-6.25
-11.03
-17.41
-24.64
-31.81
-38.03
-42.55
-44.90
-44.99
-43.10
-39.68
-35.30
-30.46
-25.51
-20.66
-15.92
-11.23
-6.46
-1.58
3.28
7.84
11.71
14.52
16.04
16.23
15.33
13.74
11.99
10.55
9.69
9.52
10.07
11.39
13.62
16.98
21.64
27.62
34.64
42.10
49.18
55.02
58.84
60.21
59.17
56.18
52.06
47.69
43.76
40.63
38.20
36.10
33.90
31.30
28.24
24.89
21.45
18.12
14.97
11.90
8.73
5.19
1.02
-3.97
-9.84
-16.55
-23.89
-31.53
-39.06
-46.04
-52.13
-57.11
-60.98
-63.90
-66.21
-68.15
-69.74
-70.61
-70.03
-67.17
-61.46
-53.02
-42.71
-31.99
-22.44
-15.29
-11.15
-9.95
-11.23
-14.40
-18.84
-23.96
-29.05
-33.27
-35.83
-36.23
-34.53
-31.39
-27.92
-25.39
-24.86
-27.04
-32.21
-40.10
-49.81
-59.88
-68.50
-73.94
-75.11
-71.92
-65.10
-55.72
-44.51
-31.55
-16.39
1.30
21.06
41.38
60.06
75.04
85.18
90.62
92.59
92.64
92.05
91.40
90.57
89.11
86.66
83.19
79.02
74.53
69.98
65.45
60.94
56.55
52.64
49.72
48.25
48.33
49.60
51.24
52.24
51.75
49.34
45.10
39.56
33.43
27.40
21.95
17.22
13.14
9.45
5.83
2.04
-2.04
-6.39
-10.83
-15.07
-18.84
-22.06
-24.97
-28.13
-32.23
-37.70
-44.52
-52.00
-59.11
-64.87
-68.84
-71.36
-73.51
-76.67
-82.17
-90.86
-102.86
-117.46
-133.05
-147.30
-157.55
-161.48
-157.86
-147.03
-130.81
-111.82
-92.39
-73.71
-55.57
-36.90
-16.65
5.35
28.09
49.79
68.60
83.31
93.57
99.60
101.76
100.10
94.54
85.20
72.90
59.35
46.72
36.95
31.07
28.86
29.12
30.27
31.11
31.13
30.58
30.02
30.01
30.77
32.17
33.82
35.30
36.30
36.74
36.74
36.52
36.29
36.16
36.17
36.29
36.62
37.37
38.86
41.41
45.05
49.55
54.39
58.99
63.04
66.66
70.37
74.77
80.03
85.43
89.33
89.62
84.60
73.82
58.48
41.09
24.55
11.06
1.42
-4.95
-9.53
-14.16
-20.57
-30.22
-44.01
-61.78
-81.86
-101.01
-115.12
-120.66
-116.20
-103.11
-85.08
-66.62
-51.26
-40.61
-34.36
-31.21
-29.86
-29.59
-30.08
-31.02
-31.86
-31.85
-30.39
-27.36
-23.07
-18.08
-12.90
-7.70
-2.42
3.05
8.63
13.90
18.09
20.25
19.52
15.41
8.03
-1.99
-13.59
-25.74
-37.63
-48.99
-59.92
-70.60
-80.97
-90.42
-97.90
-102.03
-101.63
-96.07
-85.54
-71.05
-54.23
-36.95
-20.91
-7.45
2.60
8.86
11.44
10.90
8.23
4.75
1.82
0.54
1.41
4.25
8.29
12.51
16.06
18.53
19.93
20.54
20.63
20.27
19.26
17.30
14.20
10.05
5.31
0.62
-3.33
-6.12
-7.61
-7.98
-7.55
-6.59
-5.24
-3.51
-1.32
1.31
4.18
6.95
9.20
10.63
11.11
10.78
9.94
9.00
8.36
8.20
8.53
9.19
9.97
10.70
11.32
11.80
12.17
12.38
12.42
12.26
11.96
11.58
11.21
10.83
10.35
9.64
8.55
7.08
5.34
3.52
1.84
0.42
-0.73
-1.72
-2.72
-3.89
-5.37
-7.18
-9.25
-11.31
-13.03
-13.97
-13.79
-12.24
-9.35
-5.33
-0.57
4.46
9.31
13.64
17.22
19.95
21.81
22.83
23.09
22.72
21.90
20.91
20.01
19.36
19.04
18.95
18.97
18.98
18.95
18.92
18.94
18.98
18.93
18.63
17.97
16.92
15.56
13.99
12.28
10.43
8.37
6.02
3.34
0.40
-2.68
-5.69
-8.51
-11.08
-13.47
-15.76
-17.99
-20.05
-21.66
-22.50
-22.35
-21.21
-19.29
-16.93
-14.49
-12.21
-10.17
-8.43
-7.05
-6.09
-5.62
-5.52
-5.59
-5.52
-5.11
-4.38
-3.55
-2.97
-2.86
-3.19
-3.71
-4.07
-4.06
-3.69
-3.27
-3.13
-3.43
-3.94
-4.14
-3.47
-1.56
1.62
5.95
11.42
18.38
27.52
39.60
54.93
73.15
93.13
113.34
132.35
149.15
163.33
174.82
183.69
189.81
192.92
192.74
189.13
182.21
172.36
160.06
145.69
129.44
111.34
91.47
70.10
47.82
25.53
4.20
-15.27
-32.31
-46.69
-58.56
-68.35
-76.56
-83.69
-90.07
-95.85
-101.02
-105.53
-109.34
-112.51
-115.09
-117.13
-118.54
-119.14
-118.75
-117.24
-114.66
-111.15
-106.89
-101.99
-96.40
-90.00
-82.68
-74.51
-65.78
-56.99
-48.64
-41.06
-34.36
-28.44
-23.16
-18.48
-14.43
-11.03
-8.23
-5.78
-3.32
-0.56
2.62
6.08
9.47
12.39
14.52
15.72
16.06
15.81
15.24
14.54
13.80
13.00
12.12
11.17
10.20
9.25
8.29
7.23
5.95
4.43
2.74
1.08
-0.39
-1.61
-2.66
-3.69
-4.84
-6.13
-7.42
-8.40
-8.75
-8.18
-6.59
-4.08
-0.92
2.55
6.04
9.37
12.45
15.22
17.58
19.39
20.54
21.00
20.93
20.54
20.07
19.66
19.30
18.90
18.33
17.53
16.44
15.10
13.56
11.87
10.10
8.34
6.68
5.24
4.15
3.50
3.33
3.58
4.06
4.49
4.57
4.06
2.87
1.09
-1.14
-3.63
-6.34
-9.33
-12.76
-16.77
-21.35
-26.28
-31.08
-35.15
-37.81
-38.55
-37.06
-33.35
-27.67
-20.54
-12.57
-4.44
3.19
9.82
15.16
19.12
21.82
23.53
24.54
25.09
25.28
25.11
24.53
23.45
21.75
19.36
16.18
12.24
7.58
2.36
-3.17
-8.70
-13.85
-18.25
-21.57
-23.52
-23.98
-22.97
-20.70
-17.51
-13.79
-9.94
-6.31
-3.21
-0.85
0.59
1.08
0.77
-0.06
-1.00
-1.60
-1.48
-0.37
1.81
4.92
8.67
12.65
16.46
19.73
22.31
24.16
25.34
25.96
26.11
25.88
25.32
24.43
23.19
21.66
19.87
17.94
15.98
14.10
12.37
10.83
9.45
8.25
7.30
6.67
6.42
6.63
7.40
8.84
10.97
13.56
16.07
17.77
18.03
16.65
14.09
11.25
9.23
8.89
10.64
14.39
19.76
26.19
33.02
39.55
45.01
48.83
50.74
50.86
49.57
47.30
44.34
40.76
36.55
31.76
26.69
21.78
17.53
14.25
11.90
10.08
8.21
5.72
2.26
-2.16
-7.32
-12.89
-18.63
-24.35
-29.83
-34.68
-38.38
-40.48
-40.78
-39.57
-37.36
-34.68
-31.80
-28.67
-25.08
-20.92
-16.29
-11.49
-6.85
-2.60
1.19
4.49
7.20
9.10
9.79
8.72
5.29
-1.08
-10.66
-23.16
-37.60
-52.52
-66.33
-77.84
-86.40
-91.88
-94.40
-94.07
-90.92
-85.24
-77.68
-69.40
-61.70
-55.54
-51.20
-48.25
-45.85
-43.26
-40.14
-36.57
-32.88
-29.34
-25.98
-22.62
-19.01
-15.03
-10.78
-6.55
-2.61
0.91
4.05
7.00
9.94
12.99
16.09
19.10
21.80
24.00
25.56
26.43
26.62
26.26
25.57
24.82
24.33
24.32
24.90
26.00
27.40
28.77
29.83
30.33
30.12
29.12
27.30
24.72
21.53
17.97
14.33
10.95
8.06
5.79
4.09
2.85
1.91
1.15
0.51
-0.02
-0.46
-0.86
-1.36
-2.05
-3.03
-4.31
-5.71
-7.04
-8.10
-8.79
-9.18
-9.47
-9.82
-10.34
-10.98
-11.62
-12.13
-12.48
-12.74
-13.06
-13.55
-14.21
-14.99
-15.71
-16.18
-16.20
-15.56
-14.15
-12.03
-9.37
-6.50
-3.79
-1.51
0.22
1.41
2.15
2.50
2.49
2.16
1.59
0.94
0.45
0.29
0.51
1.03
1.64
2.15
2.41
2.33
1.95
1.37
0.70
0.08
-0.40
-0.69
-0.86
-1.02
-1.38
-2.05
-3.01
-4.08
-5.04
-5.68
-5.95
-5.94
-5.86
-5.92
-6.21
-6.76
-7.50
-8.33
-9.15
-9.81
-10.07
-9.73
-8.61
-6.71
-4.22
-1.45
1.23
3.57
5.39
6.70
7.59
8.19
8.62
9.00
9.37
9.75
10.07
10.27
10.31
10.22
10.10
9.98
9.85
9.60
9.07
8.20
7.03
5.76
4.56
3.54
2.62
1.62
0.37
-1.14
-2.77
-4.28
-5.43
-6.10
-6.29
-6.12
-5.73
-5.28
-4.95
-4.87
-5.20
-5.96
-7.06
-8.28
-9.33
-9.92
-9.84
-9.03
-7.50
-5.43
-3.04
-0.64
1.50
3.17
4.34
5.11
5.63
6.06
6.42
6.68
6.71
6.43
5.85
5.10
4.35
3.78
3.48
3.46
3.64
3.93
4.19
4.35
4.37
4.25
3.97
3.51
2.86
2.07
1.23
0.46
-0.16
-0.62
-1.03
-1.54
-2.23
-3.11
-4.06
-4.90
-5.56
-6.03
-6.44
-6.93
-7.61
-8.50
-9.56
-10.66
-11.69
-12.54
-13.10
-13.26
-12.92
-12.00
-10.51
-8.55
-6.30
-3.91
-1.55
0.68
2.70
4.41
5.66
6.33
6.39
5.93
5.24
4.64
4.37
4.51
4.92
5.41
5.81
6.07
6.21
6.33
6.45
6.53
6.51
6.34
6.06
5.76
5.52
5.31
5.01
4.46
3.57
2.38
1.03
-0.26
-1.33
-2.07
-2.54
-2.88
-3.26
-3.89
-4.84
-6.15
-7.69
-9.33
-10.83
-11.93
-12.40
-12.07
-10.88
-8.86
-6.19
-3.12
0.01
2.89
5.28
7.03
8.15
8.76
9.12
9.43
9.81
10.16
10.32
10.12
9.55
8.80
8.15
7.92
8.19
8.84
9.60
10.21
10.50
10.45
10.15
9.66
9.00
8.16
7.12
5.92
4.64
3.39
2.20
1.11
0.05
-1.01
-2.07
-3.07
-3.90
-4.51
-4.89
-5.13
-5.36
-5.79
-6.49
-7.46
-8.50
-9.30
-9.57
-9.08
-7.79
-5.83
-3.48
-1.04
1.27
3.30
5.04
6.48
7.61
8.40
8.83
8.91
8.72
8.38
8.00
7.70
7.49
7.39
7.38
7.44
7.58
7.79
8.08
8.38
8.68
8.89
8.93
8.75
8.30
7.59
6.71
5.80
4.99
4.36
3.84
3.35
2.70
1.82
0.72
-0.47
-1.55
-2.40
-3.00
-3.48
-4.04
-4.80
-5.81
-6.98
-8.15
-9.13
-9.73
-9.79
-9.18
-7.87
-5.95
-3.63
-1.22
0.99
2.76
3.99
4.71
5.05
5.18
5.28
5.49
5.86
6.36
6.86
7.18
7.18
6.81
6.14
5.35
4.66
4.26
4.21
4.49
4.93
5.30
5.43
5.19
4.65
3.96
3.32
2.89
2.70
2.69
2.71
2.59
2.23
1.59
0.66
-0.50
-1.80
-3.14
-4.35
-5.29
-5.93
-6.32
-6.62
-7.00
-7.60
-8.34
-9.09
-9.56
-9.55
-8.95
-7.78
-6.22
-4.47
-2.71
-1.03
0.49
1.86
3.07
4.11
4.98
5.65
6.14
6.47
6.63
6.65
6.54
6.31
5.99
5.60
5.21
4.88
4.67
4.62
4.69
4.83
4.90
4.79
4.46
3.95
3.37
2.81
2.36
2.00
1.68
1.27
0.71
-0.00
-0.82
-1.63
-2.36
-2.98
-3.54
-4.18
-5.01
-6.08
-7.31
-8.48
-9.35
-9.67
-9.34
-8.38
-6.89
-5.09
-3.15
-1.23
0.54
2.11
3.43
4.52
5.36
6.00
6.45
6.71
6.79
6.70
6.51
6.27
6.06
5.91
5.86
5.92
6.11
6.42
6.82
7.24
7.50
7.49
7.14
6.48
5.68
4.92
4.33
3.98
3.85
3.87
3.91
3.89
3.72
3.37
2.89
2.39
1.95
1.61
1.34
1.05
0.71
0.33
-0.05
-0.41
-0.82
-1.38
-2.14
-3.00
-3.68
-3.81
-3.13
-1.59
0.60
3.10
5.53
7.66
9.38
10.69
11.60
12.06
12.00
11.35
10.11
8.38
6.34
4.23
2.21
0.36
-1.41
-3.27
-5.38
-7.77
-10.31
-12.65
-14.36
-15.07
-14.60
-13.03
-10.62
-7.69
-4.50
-1.19
2.15
5.42
8.41
10.89
12.67
13.69
14.07
14.04
13.85
13.51
12.91
11.76
9.87
7.21
4.02
0.70
-2.21
-4.17
-4.82
-3.98
-1.80
1.39
5.09
8.84
12.33
15.41
18.09
20.38
22.22
23.45
23.98
23.81
23.12
22.22
21.38
20.70
20.07
19.29
18.17
16.69
15.00
13.34
11.92
10.79
9.82
8.76
7.39
5.59
3.40
1.02
-1.31
-3.40
-5.17
-6.65
-7.95
-9.17
-10.33
-11.41
-12.34
-13.09
-13.70
-14.28
-14.97
-15.90
-17.14
-18.66
-20.28
-21.71
-22.61
-22.66
-21.71
-19.82
-17.27
-14.48
-11.90
-9.91
-8.67
-8.18
-8.31
-8.88
-9.73
-10.73
-11.75
-12.70
-13.50
-14.03
-14.27
-14.25
-14.08
-13.91
-13.91
-14.19
-14.76
-15.51
-16.31
-16.99
-17.46
-17.64
-17.57
-17.26
-16.79
-16.21
-15.59
-15.02
-14.57
-14.26
-14.06
-13.95
-13.88
-13.86
-13.90
-14.02
-14.24
-14.53
-14.82
-15.04
-15.21
-15.42
-15.74
-16.27
-17.02
-17.85
-18.53
-18.76
-18.29
-17.04
-15.09
-12.66
-10.04
-7.45
-5.09
-3.07
-1.50
-0.47
-0.02
-0.09
-0.55
-1.21
-1.87
-2.45
-2.92
-3.25
-3.47
-3.51
-3.28
-2.71
-1.77
-0.46
1.20
3.24
5.74
8.75
12.31
16.27
20.31
24.03
27.12
29.47
31.26
32.84
34.41
35.94
37.07
37.32
36.32
33.99
30.58
26.43
21.84
16.88
11.45
5.44
-1.13
-8.10
-15.14
-21.93
-28.26
-34.01
-39.17
-43.81
-47.97
-51.69
-55.02
-58.00
-60.69
-63.12
-65.21
-66.74
-67.23
-66.07
-62.59
-56.33
-47.20
-35.56
-22.17
-7.93
6.34
19.95
32.39
43.22
51.99
58.35
62.07
63.25
62.28
59.82
56.56
53.00
49.43
45.86
42.24
38.61
35.08
31.88
29.14
26.87
24.86
22.82
20.50
17.76
14.69
11.40
8.01
4.51
0.85
-3.07
-7.26
-11.69
-16.21
-20.64
-24.68
-28.05
-30.49
-31.88
-32.34
-32.20
-31.90
-31.80
-32.01
-32.38
-32.57
-32.18
-30.92
-28.60
-25.23
-20.86
-15.68
-9.95
-4.07
1.53
6.48
10.55
13.77
16.26
18.19
19.58
20.34
20.33
19.51
18.04
16.26
14.57
13.28
12.47
11.95
11.45
10.76
9.77
8.54
7.17
5.78
4.40
3.00
1.55
0.10
-1.27
-2.51
-3.70
-5.09
-7.00
-9.69
-13.25
-17.61
-22.67
-28.59
-36.04
-45.98
-59.19
-75.46
-93.08
-108.93
-119.52
-122.23
-116.44
-103.79
-87.23
-69.96
-54.18
-40.93
-30.58
-23.43
-19.62
-18.48
-17.84
-14.54
-6.01
7.63
22.68
32.99
32.77
19.71
-3.65
-31.07
-55.41
-71.72
-78.58
-77.56
-71.25
-61.53
-49.10
-34.09
-17.26
-0.36
14.30
24.97
31.30
34.45
36.64
39.82
44.90
51.42
57.99
63.08
65.78
66.15
65.10
64.01
64.13
66.24
70.46
76.26
82.57
88.16
92.00
93.58
93.02
90.86
87.74
84.05
79.83
74.88
69.09
62.54
55.56
48.56
41.87
35.59
29.55
23.33
16.47
8.55
-0.64
-11.02
-22.21
-33.55
-44.27
-53.60
-60.92
-65.85
-68.24
-68.20
-66.08
-62.48
-58.12
-53.72
-49.83
-46.70
-44.29
-42.46
-41.06
-40.01
-39.41
-39.39
-39.96
-40.98
-42.08
-42.78
-42.55
-41.01
-37.92
-33.29
-27.24
-20.02
-11.96
-3.42
5.16
13.35
20.79
27.24
32.63
37.04
40.55
43.13
44.66
44.92
43.77
41.27
37.62
33.17
28.30
23.40
18.74
14.64
11.35
9.16
8.28
8.77
10.50
13.15
16.29
19.43
22.17
24.18
25.32
25.53
24.86
23.41
21.33
18.85
16.20
13.59
11.05
8.47
5.63
2.46
-0.96
-4.40
-7.53
-10.00
-11.56
-12.07
-11.45
-9.62
-6.45
-1.89
3.93
10.71
17.88
24.88
31.15
36.34
40.35
43.21
45.03
45.87
45.71
44.46
42.02
38.39
33.68
28.20
22.39
16.82
12.05
8.58
6.63
6.05
6.35
6.79
6.54
4.94
1.64
-3.37
-9.69
-16.62
-23.33
-29.02
-33.01
-34.94
-34.69
-32.40
-28.36
-22.97
-16.65
-9.84
-3.00
3.43
9.06
13.57
16.81
18.70
19.30
18.76
17.34
15.39
13.28
11.29
9.60
8.25
7.23
6.54
6.21
6.33
6.98
8.15
9.67
11.31
12.84
14.08
15.00
15.59
15.95
16.21
16.54
17.16
18.25
19.86
21.83
23.78
25.28
25.95
25.70
24.67
23.30
22.07
21.33
21.13
21.23
21.11
20.18
18.08
14.72
10.51
6.13
2.40
-0.04
-0.92
-0.50
0.55
1.34
0.97
-1.14
-5.28
-11.31
-18.79
-27.05
-35.28
-42.63
-48.34
-51.79
-52.65
-50.93
-46.98
-41.31
-34.51
-27.08
-19.36
-11.57
-3.87
3.62
10.75
17.33
23.18
28.02
31.55
33.49
33.67
32.08
29.04
25.10
20.99
17.39
14.76
13.19
12.39
11.87
11.12
9.77
7.77
5.28
2.65
0.20
-1.81
-3.27
-4.17
-4.53
-4.43
-3.97
-3.28
-2.43
-1.47
-0.39
0.86
2.23
3.60
4.73
5.32
5.03
3.68
1.19
-2.29
-6.47
-11.02
-15.51
-19.56
-22.78
-24.93
-25.84
-25.51
-24.07
-21.72
-18.72
-15.32
-11.75
-8.23
-4.93
-2.03
0.44
2.52
4.36
6.14
7.98
9.88
11.80
13.71
15.68
17.84
20.33
23.15
26.02
28.47
29.86
29.71
27.83
24.42
20.04
15.41
11.25
8.07
6.13
5.40
5.67
6.66
8.06
9.55
10.86
11.73
11.90
11.19
9.48
6.80
3.29
-0.94
-5.75
-11.03
-16.68
-22.48
-28.07
-33.04
-37.03
-39.96
-42.01
-43.58
-44.93
-46.11
-46.82
-46.60
-45.08
-42.10
-37.78
-32.37
-26.17
-19.40
-12.35
-5.34
1.25
7.00
11.64
15.13
17.56
19.14
20.03
20.34
20.12
19.45
18.37
17.04
15.63
14.27
13.03
11.92
10.91
10.04
9.33
8.81
8.42
8.03
7.45
6.60
5.52
4.46
3.78
3.80
4.68
6.42
8.75
11.27
13.54
15.16
15.93
16.02
15.86
16.14
17.42
19.94
23.50
27.55
31.43
34.71
37.27
39.27
40.92
42.22
42.89
42.40
40.15
35.76
29.13
20.57
10.58
-0.16
-11.04
-21.54
-31.25
-39.95
-47.54
-54.03
-59.57
-64.36
-68.56
-72.20
-75.10
-76.86
-76.93
-74.73
-69.82
-62.03
-51.52
-38.81
-24.63
-9.87
4.59
17.90
29.40
38.59
45.28
49.56
51.77
52.44
52.05
50.86
48.86
45.85
41.60
36.07
29.56
22.58
15.76
9.60
4.44
0.38
-2.55
-4.38
-5.14
-4.98
-4.23
-3.32
-2.75
-2.85
-3.74
-5.32
-7.41
-9.81
-12.41
-15.14
-17.86
-20.43
-22.65
-24.42
-25.72
-26.61
-27.18
-27.48
-27.57
-27.52
-27.51
-27.74
-28.37
-29.45
-30.86
-32.36
-33.52
-33.74
-32.29
-28.46
-21.80
-12.40
-1.00
11.17
22.78
32.80
40.68
46.39
50.10
51.95
51.90
49.85
45.85
40.26
33.73
27.01
20.75
15.36
10.93
7.37
4.47
2.09
0.21
-1.08
-1.68
-1.53
-0.73
0.53
2.01
3.52
4.95
6.32
7.67
9.00
10.22
11.21
11.87
12.19
12.22
11.99
11.49
10.67
9.54
8.25
7.07
6.33
6.23
6.68
7.33
7.63
6.99
5.02
1.53
-3.40
-9.53
-16.52
-23.91
-31.18
-37.68
-42.79
-45.97
-46.96
-45.84
-43.09
-39.44
-35.63
-32.23
-29.50
-27.36
-25.52
-23.70
-21.73
-19.62
-17.55
-15.73
-14.34
-13.40
-12.86
-12.61
-12.46
-12.19
-11.46
-9.84
-6.79
-1.83
5.22
14.14
24.25
34.54
43.95
51.69
57.32
60.78
62.14
61.50
58.91
54.43
48.24
40.71
32.39
23.84
15.52
7.77
0.82
-5.14
-9.91
-13.36
-15.49
-16.49
-16.71
-16.59
-16.51
-16.73
-17.34
-18.30
-19.41
-20.45
-21.16
-21.37
-20.99
-20.08
-18.83
-17.43
-16.07
-14.83
-13.67
-12.57
-11.45
-10.31
-9.15
-7.95
-6.70
-5.38
-4.05
-2.78
-1.67
-0.75
-0.04
0.50
0.85
1.01
0.93
0.59
0.03
-0.71
-1.62
-2.68
-3.91
-5.27
-6.69
-8.10
-9.46
-10.72
-11.87
-12.82
-13.45
-13.61
-13.25
-12.42
-11.19
-9.69
-7.97
-6.04
-3.96
-1.84
0.07
1.56
2.54
3.05
3.33
3.60
4.00
4.48
4.88
5.03
4.86
4.49
4.09
3.83
3.76
3.83
3.96
4.03
4.04
4.00
3.91
3.72
3.33
2.69
1.82
0.86
-0.00
-0.62
-0.96
-1.14
-1.36
-1.89
-2.86
-4.32
-6.11
-7.90
-9.36
-10.23
-10.36
-9.79
-8.68
-7.24
-5.69
-4.23
-2.99
-2.16
-1.87
-2.27
-3.35
-5.11
-7.48
-10.35
-13.51
-16.68
-19.49
-21.54
-22.51
-22.20
-20.59
-17.79
-13.97
-9.39
-4.33
0.84
5.73
9.93
13.14
15.23
16.25
16.49
16.22
15.70
15.09
14.37
13.45
12.24
10.74
9.05
7.40
5.99
4.99
4.48
4.41
4.66
5.05
5.41
5.63
5.66
5.48
5.20
4.92
4.73
4.71
4.82
4.97
5.06
4.99
4.73
4.31
3.77
3.17
2.58
2.04
1.62
1.39
1.37
1.50
1.68
1.74
1.54
1.08
0.40
-0.35
-1.02
-1.53
-1.89
-2.16
-2.50
-3.04
-3.83
-4.80
-5.78
-6.48
-6.69
-6.29
-5.36
-4.11
-2.85
-1.80
-1.07
-0.61
-0.27
0.09
0.59
1.21
1.90
2.58
3.15
3.54
3.70
3.60
3.24
2.72
2.13
1.58
1.18
0.95
0.88
0.92
0.94
0.84
0.53
-0.01
-0.72
-1.52
-2.30
-2.96
-3.52
-4.01
-4.50
-5.04
-5.65
-6.29
-6.90
-7.36
-7.55
-7.36
-6.68
-5.48
-3.80
-1.82
0.27
2.21
3.81
4.93
5.53
5.68
5.48
5.09
4.69
4.37
4.14
3.94
3.67
3.28
2.80
2.33
1.95
1.71
1.61
1.59
1.56
1.53
1.47
1.43
1.41
1.40
1.38
1.36
1.35
1.37
1.37
1.19
0.69
-0.23
-1.52
-3.03
-4.42
-5.43
-5.83
-5.59
-4.82
-3.72
-2.51
-1.39
-0.49
0.07
0.18
-0.28
-1.34
-2.96
-4.87
-6.69
-7.95
-8.25
-7.40
-5.48
-2.76
0.35
3.46
6.31
8.69
10.37
11.08
10.52
8.48
4.97
0.35
-4.83
-9.83
-14.05
-17.11
-18.89
-19.48
-19.09
-17.90
-16.07
-13.71
-10.90
-7.72
-4.25
-0.55
3.27
7.14
10.94
14.50
17.63
20.08
21.61
21.99
21.08
18.80
15.25
10.69
5.49
0.14
-4.89
-9.17
-12.42
-14.45
-15.28
-15.02
-13.94
-12.37
-10.67
-9.14
-7.95
-7.23
-6.96
-7.09
-7.48
-7.86
-7.87
-7.09
-5.25
-2.24
1.68
6.08
10.34
13.91
16.38
17.52
17.35
16.10
14.14
11.89
9.76
7.99
6.60
5.51
4.54
3.55
2.53
1.53
0.64
-0.08
-0.65
-1.29
-2.13
-3.31
-4.81
-6.49
-8.13
-9.49
-10.41
-10.86
-10.88
-10.52
-9.84
-8.89
-7.65
-6.14
-4.39
-2.50
-0.67
0.84
1.81
2.07
1.62
0.62
-0.67
-1.93
-2.82
-3.13
-2.76
-1.82
-0.57
0.61
1.39
1.53
0.95
-0.23
-1.78
-3.42
-4.86
-5.80
-6.02
-5.35
-3.74
-1.29
1.78
5.26
8.93
12.67
16.39
19.97
23.25
25.96
27.78
28.38
27.60
25.43
22.13
18.12
13.88
9.80
6.14
2.95
0.14
-2.41
-4.78
-6.92
-8.75
-10.16
-11.09
-11.53
-11.47
-10.97
-10.04
-8.78
-7.33
-5.89
-4.68
-3.88
-3.51
-3.49
-3.66
-3.86
-4.00
-4.06
-4.03
-3.95
-3.86
-3.79
-3.82
-4.00
-4.32
-4.77
-5.32
-6.00
-6.86
-7.97
-9.36
-10.97
-12.62
-14.12
-15.24
-15.82
-15.65
-14.62
-12.66
-9.86
-6.52
-3.12
-0.21
1.79
2.68
2.50
1.44
-0.28
-2.42
-4.82
-7.34
-9.84
-12.18
-14.20
-15.77
-16.78
-17.12
-16.58
-14.90
-11.80
-7.18
-1.14
5.86
13.12
19.86
25.40
29.37
31.71
32.63
32.37
31.10
28.90
25.83
22.03
17.81
13.58
9.78
6.77
4.79
3.92
4.01
4.71
5.44
5.53
4.37
1.66
-2.52
-7.58
-12.72
-17.17
-20.39
-22.23
-22.88
-22.71
-22.16
-21.56
-20.96
-20.12
-18.48
-15.43
-10.59
-4.16
3.09
10.02
15.62
19.45
21.63
22.72
23.18
23.18
22.52
20.99
18.58
15.66
12.74
10.19
8.03
5.96
3.55
0.48
-3.20
-7.19
-11.06
-14.44
-17.21
-19.47
-21.46
-23.39
-25.32
-27.08
-28.36
-28.83
-28.26
-26.57
-23.89
-20.44
-16.51
-12.44
-8.48
-4.81
-1.50
1.49
4.30
7.01
9.67
12.25
14.68
16.92
19.03
21.04
23.06
25.13
27.25
29.33
31.21
32.69
33.55
33.65
32.98
31.69
30.02
28.26
26.63
25.21
23.99
22.88
21.72
20.30
18.41
15.86
12.54
8.49
3.90
-0.95
-5.76
-10.31
-14.40
-17.91
-20.72
-22.77
-24.03
-24.54
-24.38
-23.65
-22.44
-20.85
-19.00
-16.99
-15.00
-13.16
-11.53
-10.14
-8.94
-7.90
-6.90
-5.88
-4.70
-3.29
-1.66
0.06
1.66
2.91
3.68
4.00
4.05
4.09
4.30
4.75
5.34
5.87
6.16
6.15
5.83
5.26
4.47
3.44
2.04
0.17
-2.25
-5.28
-8.92
-13.16
-17.97
-23.16
-28.44
-33.38
-37.47
-40.26
-41.45
-40.95
-38.90
-35.62
-31.48
-26.82
-21.87
-16.73
-11.44
-6.05
-0.75
4.23
8.61
12.24
15.07
17.21
18.81
19.97
20.79
21.32
21.63
21.86
22.09
22.40
22.74
22.99
23.00
22.65
21.92
20.88
19.67
18.44
17.32
16.35
15.48
14.62
13.65
12.49
11.12
9.59
8.00
6.47
5.10
3.94
2.94
1.99
0.89
-0.54
-2.41
-4.69
-7.25
-9.93
-12.59
-15.16
-17.60
-19.82
-21.65
-22.86
-23.17
-22.39
-20.51
-17.73
-14.43
-11.08
-8.12
-5.88
-4.50
-3.95
-4.03
-4.46
-4.92
-5.17
-5.01
-4.34
-3.10
-1.28
1.08
3.90
6.99
10.08
12.88
15.13
16.68
17.51
17.73
17.50
16.95
16.13
15.04
13.61
11.79
9.61
7.21
4.86
2.88
1.61
1.28
1.98
3.55
5.61
7.67
9.13
9.52
8.57
6.23
2.74
-1.52
-6.09
-10.50
-14.37
-17.45
-19.63
-20.91
-21.33
-20.91
-19.63
-17.49
-14.57
-11.11
-7.52
-4.20
-1.47
0.48
1.67
2.15
2.03
1.45
0.56
-0.42
-1.28
-1.92
-2.45
-3.15
-4.34
-6.20
-8.67
-11.46
-14.09
-16.12
-17.13
-16.90
-15.25
-12.22
-7.99
-2.93
2.47
7.69
12.29
15.97
18.63
20.30
21.06
21.02
20.32
19.11
17.55
15.80
13.96
12.12
10.27
8.40
6.42
4.23
1.82
-0.84
-3.72
-6.72
-9.67
-12.35
-14.54
-16.01
-16.54
-15.97
-14.25
-11.53
-8.14
-4.56
-1.32
1.21
2.86
3.66
3.77
3.36
2.55
1.42
0.08
-1.28
-2.36
-2.94
-2.93
-2.43
-1.72
-1.11
-0.84
-1.00
-1.52
-2.16
-2.76
-3.23
-3.65
-4.12
-4.71
-5.39
-6.01
-6.40
-6.41
-6.00
-5.24
-4.22
-3.04
-1.76
-0.41
0.93
2.22
3.43
4.54
5.57
6.57
7.59
8.64
9.68
10.59
11.27
11.59
11.54
11.16
10.62
10.10
9.78
9.74
9.98
10.37
10.75
10.94
10.81
10.33
9.60
8.74
7.84
6.90
5.76
4.22
2.15
-0.42
-3.20
-5.77
-7.63
-8.48
-8.22
-7.04
-5.30
-3.38
-1.58
-0.02
1.29
2.43
3.45
4.35
5.10
5.66
6.05
6.25
6.28
6.14
5.82
5.36
4.83
4.26
3.57
2.60
1.11
-1.07
-3.92
-7.17
-10.38
-13.15
-15.17
-16.34
-16.70
-16.38
-15.50
-14.16
-12.47
-10.55
-8.57
-6.69
-5.02
-3.65
-2.57
-1.76
-1.11
-0.49
0.22
1.08
2.03
2.87
3.37
3.28
2.55
1.27
-0.33
-1.95
-3.36
-4.39
-4.94
-5.02
-4.66
-3.96
-3.05
-2.03
-0.96
0.23
1.68
3.53
5.79
8.27
10.64
12.54
13.72
14.13
13.89
13.20
12.22
11.04
9.74
8.42
7.24
6.49
6.38
7.03
8.49
10.62
13.23
16.03
18.65
20.66
21.70
21.52
20.12
17.91
15.60
14.00
13.66
14.61
16.36
18.12
19.27
19.67
19.79
20.44
22.50
26.49
32.43
39.86
47.98
55.85
62.54
67.22
69.34
68.75
65.86
61.41
56.34
51.40
46.96
42.96
39.12
35.17
31.08
27.15
23.82
21.46
20.28
20.27
21.22
22.77
24.33
25.09
24.12
20.66
14.51
6.19
-3.13
-12.08
-19.66
-25.57
-30.31
-34.80
-39.92
-46.17
-53.45
-61.25
-68.79
-75.34
-80.25
-83.02
-83.31
-80.98
-76.16
-69.30
-61.17
-52.72
-44.88
-38.35
-33.41
-29.90
-27.40
-25.38
-23.43
-21.30
-18.99
-16.63
-14.41
-12.49
-10.94
-9.73
-8.70
-7.67
-6.51
-5.15
-3.63
-2.00
-0.35
1.24
2.69
3.90
4.73
5.03
4.74
3.94
2.79
1.55
0.46
-0.34
-0.83
-1.21
-1.81
-2.94
-4.67
-6.74
-8.55
-9.35
-8.53
-5.82
-1.39
4.28
10.55
16.87
22.79
27.98
32.16
35.06
36.45
36.19
34.36
31.24
27.34
23.30
19.74
17.08
15.47
14.82
14.84
15.33
16.25
17.92
20.88
25.70
32.58
41.22
50.77
60.06
67.93
73.56
76.54
76.72
74.00
68.22
59.24
47.18
32.45
15.79
-2.05
-20.41
-38.83
-56.83
-73.81
-88.90
-101.24
-110.26
-115.87
-118.51
-118.86
-117.56
-115.01
-111.43
-106.99
-101.91
-96.52
-91.04
-85.57
-79.99
-74.10
-67.73
-60.85
-53.62
-46.30
-39.15
-32.45
-26.44
-21.41
-17.59
-15.15
-14.09
-14.27
-15.41
-17.16
-19.09
-20.76
-21.69
-21.44
-19.77
-16.69
-12.51
-7.76
-2.99
1.40
5.26
8.62
11.68
14.63
17.62
20.71
23.91
27.12
30.25
33.21
35.98
38.64
41.36
44.36
47.81
51.76
56.06
60.36
64.12
66.72
67.63
66.56
63.60
59.12
53.58
47.31
40.32
32.28
22.72
11.32
-1.91
-16.57
-32.13
-48.06
-64.03
-79.79
-94.97
-108.80
-120.20
-128.04
-131.48
-130.38
-125.25
-117.01
-106.55
-94.43
-80.84
-65.82
-49.55
-32.55
-15.73
-0.19
13.01
23.01
29.27
31.56
30.05
25.22
17.85
8.89
-0.69
-10.08
-18.69
-26.17
-32.28
-36.87
-39.87
-41.23
-41.02
-39.48
-37.00
-34.12
-31.32
-28.96
-27.16
-25.83
-24.73
-23.63
-22.42
-21.11
-19.87
-18.91
-18.37
-18.29
-18.53
-18.80
-18.75
-18.08
-16.57
-14.14
-10.74
-6.42
-1.33
4.14
9.24
13.11
15.06
14.96
13.41
11.49
10.22
10.10
10.91
12.00
12.81
13.25
13.79
15.03
17.22
19.99
22.54
24.05
24.17
23.18
21.73
20.51
19.82
19.52
19.21
18.55
17.41
15.97
14.55
13.38
12.50
11.78
10.96
9.82
8.27
6.33
4.09
1.71
-0.67
-2.96
-5.01
-6.62
-7.54
-7.47
-6.20
-3.67
-0.00
4.43
9.17
13.76
17.88
21.41
24.33
26.68
28.44
29.52
29.87
29.53
28.73
27.80
27.08
26.77
26.85
27.11
27.30
27.21
26.85
26.31
25.74
25.24
24.78
24.22
23.41
22.26
20.83
19.31
17.88
16.67
15.68
14.73
13.66
12.32
10.74
9.05
7.38
5.84
4.42
3.04
1.57
-0.07
-1.99
-4.16
-6.48
-8.74
-10.64
-11.83
-12.04
-11.17
-9.27
-6.52
-3.13
0.64
4.58
8.45
12.07
15.26
17.89
19.88
21.22
21.92
22.07
21.81
21.33
20.80
20.36
20.07
19.91
19.85
19.86
19.95
20.10
20.26
20.33
20.21
19.84
19.24
18.46
17.61
16.77
15.97
15.21
14.43
13.60
12.67
11.64
10.52
9.35
8.18
7.05
5.97
4.84
3.52
1.84
-0.26
-2.70
-5.25
-7.64
-9.60
-11.00
-11.77
-11.91
-11.39
-10.10
-7.98
-5.04
-1.46
2.46
6.33
9.81
12.67
14.80
16.21
16.95
17.14
16.88
16.33
15.66
15.03
14.58
14.39
14.47
14.73
15.10
15.44
15.65
15.68
15.47
15.00
14.32
13.48
12.58
11.70
10.86
10.05
9.21
8.30
7.32
6.32
5.35
4.42
3.50
2.49
1.30
-0.09
-1.63
-3.16
-4.52
-5.61
-6.45
-7.15
-7.79
-8.33
-8.62
-8.43
-7.56
-6.05
-4.09
-1.95
0.12
2.04
3.85
5.65
7.45
9.14
10.49
11.30
11.50
11.21
10.66
10.11
9.74
9.55
9.46
9.35
9.17
8.95
8.76
8.67
8.67
8.72
8.74
8.67
8.51
8.28
8.01
7.69
7.29
6.75
6.05
5.19
4.25
3.30
2.43
1.69
1.07
0.52
-0.03
-0.64
-1.34
-2.06
-2.76
-3.37
-3.96
-4.62
-5.47
-6.57
-7.87
-9.19
-10.28
-10.91
-10.94
-10.32
-9.14
-7.51
-5.64
-3.70
-1.89
-0.36
0.79
1.51
1.83
1.88
1.80
1.72
1.72
1.80
1.91
2.03
2.20
2.53
3.10
4.00
5.15
6.43
7.69
8.88
10.04
11.28
12.68
14.26
15.90
17.43
18.71
19.62
20.09
20.07
19.47
18.22
16.30
13.80
10.93
7.98
5.27
3.03
1.38
0.35
-0.14
-0.17
0.20
0.90
1.88
3.10
4.55
6.30
8.45
11.17
14.60
18.79
23.73
29.30
35.36
41.75
48.31
54.78
60.84
66.09
70.14
72.75
73.82
73.52
72.11
69.91
67.20
64.15
60.88
57.40
53.70
49.69
45.21
40.10
34.22
27.53
20.11
12.17
4.05
-3.84
-11.11
-17.53
-23.14
-28.27
-33.35
-38.75
-44.52
-50.27
-55.37
-59.12
-61.06
-61.03
-59.20
-55.92
-51.60
-46.66
-41.53
-36.65
-32.41
-29.04
-26.59
-24.92
-23.73
-22.73
-21.70
-20.52
-19.22
-17.88
-16.60
-15.45
-14.46
-13.63
-12.94
-12.33
-11.75
-11.16
-10.54
-9.86
-9.15
-8.45
-7.86
-7.47
-7.35
-7.40
-7.44
-7.19
-6.37
-4.90
-2.89
-0.66
1.41
3.04
4.21
5.15
6.22
7.76
9.86
12.36
14.89
17.09
18.71
19.87
20.97
22.66
25.54
29.95
35.79
42.58
49.66
56.36
62.34
67.58
72.42
77.42
83.16
90.03
97.89
105.73
111.56
112.68
106.48
91.47
68.08
38.89
7.86
-20.83
-44.04
-60.35
-69.98
-74.21
-74.61
-72.61
-69.38
-65.90
-63.10
-61.70
-62.04
-63.88
-66.53
-68.98
-70.35
-70.13
-68.30
-65.29
-61.70
-58.12
-54.89
-52.10
-49.60
-47.18
-44.66
-42.01
-39.37
-36.96
-35.03
-33.66
-32.73
-31.96
-31.01
-29.64
-27.89
-26.00
-24.30
-23.08
-22.47
-22.37
-22.54
-22.72
-22.72
-22.47
-22.09
-21.74
-21.65
-21.95
-22.64
-23.62
-24.71
-25.82
-26.99
-28.37
-30.09
-32.16
-34.38
-36.39
-37.83
-38.42
-38.07
-36.86
-34.98
-32.60
-29.88
-26.91
-23.83
-20.82
-18.12
-15.87
-14.08
-12.48
-10.55
-7.77
-3.80
1.31
7.13
13.01
18.31
22.68
26.06
28.60
30.46
31.69
32.19
31.89
30.73
28.83
26.36
23.56
20.65
17.81
15.15
12.68
10.33
8.03
5.77
3.65
1.89
0.68
0.05
-0.17
-0.29
-0.68
-1.52
-2.86
-4.60
-6.64
-8.79
-10.79
-12.24
-12.67
-11.79
-9.72
-7.11
-4.95
-4.16
-5.14
-7.52
-10.31
-12.40
-13.03
-12.08
-10.05
-7.59
-5.19
-2.95
-0.70
1.78
4.58
7.54
10.43
13.00
15.09
16.64
17.57
17.85
17.48
16.59
15.36
13.86
11.97
9.31
5.42
-0.09
-7.34
-16.13
-25.93
-35.88
-44.82
-51.42
-54.40
-52.94
-46.97
-37.29
-25.48
-13.38
-2.66
5.68
11.32
14.52
15.84
15.86
15.08
13.95
12.94
12.58
13.43
15.86
19.91
25.18
30.86
35.99
39.67
41.29
40.70
38.20
34.52
30.62
27.49
25.73
25.36
25.81
26.09
25.29
22.84
18.73
13.23
6.68
-0.78
-9.29
-19.06
-30.33
-43.31
-58.26
-75.43
-94.81
-115.76
-136.81
-155.84
-170.63
-179.55
-182.17
-179.36
-172.80
-164.32
-155.34
-146.50
-137.85
-129.10
-119.94
-110.14
-99.46
-87.64
-74.38
-59.57
-43.41
-26.57
-9.95
5.49
19.14
30.87
40.95
49.85
57.88
65.08
71.25
76.06
79.37
81.27
82.13
82.41
82.42
82.29
81.84
80.76
78.71
75.44
70.84
64.99
58.16
50.83
43.64
37.28
32.28
28.88
26.97
26.12
25.82
25.67
25.55
25.53
25.82
26.48
27.27
27.58
26.58
23.49
17.85
9.78
-0.11
-10.85
-21.43
-31.01
-39.08
-45.45
-50.14
-53.32
-55.22
-56.07
-56.06
-55.25
-53.65
-51.17
-47.79
-43.62
-38.87
-33.87
-28.95
-24.41
-20.46
-17.28
-14.95
-13.53
-12.94
-13.02
-13.54
-14.21
-14.74
-14.83
-14.27
-12.87
-10.58
-7.42
-3.56
0.72
5.02
8.85
11.71
13.19
13.09
11.43
8.50
4.77
0.68
-3.37
-7.18
-10.67
-13.83
-16.67
-19.14
-21.18
-22.75
-23.91
-24.84
-25.80
-27.07
-28.85
-31.16
-33.71
-35.97
-37.25
-36.93
-34.59
-30.24
-24.24
-17.20
-9.74
-2.32
4.78
11.39
17.40
22.64
26.93
30.20
32.49
34.03
35.11
35.96
36.68
37.27
37.72
38.06
38.42
38.96
39.76
40.78
41.83
42.66
43.02
42.79
41.91
40.45
38.50
36.16
33.49
30.52
27.30
23.93
20.60
17.51
14.87
12.74
10.97
9.32
7.44
5.13
2.31
-0.84
-4.07
-7.04
-9.41
-10.86
-11.05
-9.67
-6.53
-1.65
4.64
11.75
18.99
25.76
31.62
36.33
39.83
42.07
43.11
43.06
42.13
40.61
38.82
37.00
35.36
34.01
33.00
32.32
31.83
31.37
30.72
29.76
28.45
26.91
25.23
23.43
21.44
19.18
16.65
13.97
11.41
9.16
7.33
5.85
4.57
3.36
2.18
1.05
0.01
-1.03
-2.23
-3.78
-5.79
-8.17
-10.61
-12.64
-13.75
-13.50
-11.69
-8.32
-3.66
1.88
7.80
13.66
19.06
23.78
27.68
30.67
32.69
33.69
33.65
32.66
30.96
28.82
26.50
24.12
21.63
18.92
15.95
12.86
9.87
7.19
4.81
2.46
-0.28
-3.79
-8.16
-13.19
-18.42
-23.31
-27.39
-30.35
-32.07
-32.57
-31.99
-30.49
-28.22
-25.27
-21.71
-17.63
-13.19
-8.64
-4.23
-0.12
3.61
7.02
10.12
12.89
15.23
17.07
18.47
19.66
20.99
22.72
24.92
27.37
29.77
31.85
33.59
35.21
37.00
39.08
41.22
42.91
43.54
42.66
40.22
36.50
32.00
27.15
22.14
16.99
11.60
6.01
0.42
-4.77
-9.11
-12.24
-13.97
-14.37
-13.71
-12.37
-10.82
-9.42
-8.35
-7.55
-6.82
-5.91
-4.64
-3.04
-1.25
0.54
2.27
4.01
5.87
7.90
9.99
11.94
13.54
14.73
15.57
16.26
16.99
17.81
18.65
19.31
19.53
19.10
17.91
15.96
13.30
10.04
6.33
2.47
-1.18
-4.23
-6.43
-7.80
-8.72
-9.71
-11.16
-13.19
-15.52
-17.70
-19.33
-20.30
-20.70
-20.73
-20.59
-20.35
-20.09
-19.84
-19.63
-19.35
-18.77
-17.56
-15.47
-12.47
-8.77
-4.77
-0.95
2.25
4.44
5.35
4.82
2.90
-0.15
-3.84
-7.65
-11.08
-13.85
-15.86
-17.16
-17.88
-18.12
-18.00
-17.52
-16.71
-15.50
-13.84
-11.70
-9.13
-6.26
-3.29
-0.42
2.17
4.43
6.40
8.18
9.80
11.19
12.18
12.62
12.47
11.90
11.21
10.66
10.38
10.34
10.48
10.89
12.01
14.40
18.61
24.72
32.21
40.09
47.21
52.68
56.09
57.47
57.16
55.49
52.71
48.90
44.16
38.75
33.07
27.59
22.66
18.37
14.60
11.10
7.69
4.40
1.43
-1.03
-2.96
-4.57
-6.21
-8.15
-10.39
-12.63
-14.46
-15.65
-16.25
-16.64
-17.20
-18.16
-19.44
-20.69
-21.51
-21.66
-21.09
-19.91
-18.19
-15.93
-13.01
-9.30
-4.82
0.29
5.70
11.06
16.06
20.51
24.34
27.62
30.43
32.81
34.69
35.90
36.20
35.35
33.24
29.96
25.83
21.25
16.56
11.92
7.25
2.32
-3.08
-8.99
-15.14
-21.02
-26.02
-29.69
-31.85
-32.66
-32.51
-31.84
-31.04
-30.31
-29.75
-29.40
-29.23
-29.29
-29.60
-30.24
-31.21
-32.46
-33.83
-35.04
-35.77
-35.81
-35.22
-34.36
-33.69
-33.51
-33.70
-33.74
-32.87
-30.49
-26.51
-21.44
-16.21
-11.75
-8.51
-6.20
-3.88
-0.26
5.78
14.79
26.45
39.49
51.93
61.51
66.22
64.84
57.34
44.79
29.08
12.31
-3.78
-18.14
-30.62
-41.84
-52.87
-64.76
-77.90
-91.38
-102.92
-109.41
-108.20
-98.48
-81.81
-61.45
-40.69
-21.35
-3.38
14.20
31.55
47.02
57.57
60.48
55.27
44.28
31.72
21.47
15.31
12.40
10.53
7.86
4.30
1.61
2.09
7.09
16.04
26.57
35.70
41.23
42.62
40.87
37.64
34.10
30.30
25.30
17.85
7.19
-6.47
-22.04
-37.92
-52.40
-63.88
-71.09
-73.35
-71.02
-65.59
-59.52
-55.35
-54.74
-57.76
-62.74
-67.03
-68.06
-64.36
-55.92
-43.88
-29.86
-15.28
-1.00
12.56
25.14
36.38
45.93
53.51
59.26
63.83
68.20
73.40
80.13
88.49
97.96
107.57
116.23
123.19
128.27
131.90
134.78
137.38
139.64
140.78
139.66
135.28
127.33
116.40
103.87
91.36
80.24
71.28
64.54
59.65
56.23
54.13
53.66
55.42
59.98
67.56
77.76
89.62
101.80
112.87
121.57
126.87
128.09
124.94
117.46
106.08
91.55
74.73
56.55
37.81
19.09
0.80
-16.78
-33.38
-48.71
-62.53
-74.84
-85.94
-96.47
-107.14
-118.38
-130.02
-141.29
-151.05
-158.29
-162.55
-163.99
-163.23
-160.87
-157.27
-152.36
-145.97
-138.00
-128.65
-118.53
-108.32
-98.62
-89.73
-81.57
-73.93
-66.59
-59.55
-53.02
-47.35
-42.76
-39.24
-36.55
-34.25
-31.93
-29.34
-26.51
-23.59
-20.88
-18.65
-17.08
-16.27
-16.23
-16.89
-18.07
-19.50
-20.80
-21.60
-21.61
-20.68
-18.87
-16.40
-13.60
-10.81
-8.31
-6.27
-4.76
-3.74
-3.07
-2.60
-2.20
-1.84
-1.55
-1.43
-1.58
-2.04
-2.82
-3.81
-4.89
-5.85
-6.48
-6.50
-5.67
-3.83
-0.99
2.63
6.69
10.72
14.27
16.95
18.40
18.33
16.56
13.04
7.95
1.75
-4.93
-11.41
-17.08
-21.59
-24.83
-26.91
-28.04
-28.44
-28.24
-27.53
-26.38
-24.85
-23.07
-21.20
-19.44
-17.89
-16.57
-15.40
-14.25
-13.02
-11.66
-10.18
-8.61
-7.01
-5.40
-3.85
-2.41
-1.14
-0.09
0.80
1.65
2.66
4.01
5.84
8.18
10.65
12.81
14.35
15.15
15.33
15.10
14.77
14.69
15.06
15.63
16.01
15.92
15.28
14.22
13.00
11.91
11.28
11.27
11.35
11.04
10.23
9.26
8.46
7.99
7.87
8.32
9.53
10.09
8.97
6.17
2.69
-0.36
-2.43
-3.37
-2.67
-0.14
1.01
-1.70
-8.44
-17.09
-25.19
-31.37
-35.29
-36.15
-33.91
-33.78
-39.58
-51.64
-67.15
-83.67
-101.30
-122.58
-149.53
-184.92
-236.72
-308.74
-397.54
-493.19
-585.09
-666.26
-735.08
-792.36
-794.95
-717.61
-566.57
-377.72
-188.91
-20.83
121.28
230.38
317.88
389.28
439.97
466.71
472.27
465.70
452.03
435.63
418.67
403.63
390.43
373.62
349.18
316.84
280.10
243.01
208.43
177.26
150.87
129.08
108.90
88.58
68.59
51.17
38.15
30.08
25.88
24.65
24.72
23.57
19.90
13.97
7.33
1.51
-2.50
-4.61
-4.80
-3.56
-1.70
0.30
2.19
3.86
4.95
5.01
3.64
0.94
-2.67
-6.29
-8.81
-9.30
-7.25
-2.79
3.34
9.93
15.60
19.27
20.45
19.41
17.04
14.54
13.10
13.48
15.83
19.54
23.33
25.66
25.31
21.87
15.99
9.10
2.82
-1.67
-4.01
-4.61
-4.24
-3.56
-2.93
-2.40
-1.99
-1.89
-2.51
-4.24
-7.25
-11.30
-15.70
-19.58
-22.12
-22.93
-22.24
-20.74
-19.37
-18.80
-19.19
-20.16
-21.02
-21.24
-20.71
-19.88
-19.47
-20.10
-21.89
-24.37
-26.69
-27.97
-27.82
-26.45
-24.68
-23.56
-23.87
-25.78
-28.68
-31.37
-32.33
-30.23
-24.25
-14.42
-1.58
12.84
27.19
39.96
49.99
56.50
59.03
57.69
53.28
47.35
41.75
37.64
34.71
31.09
24.46
13.65
-0.23
-14.07
-24.29
-28.76
-27.79
-23.50
-18.19
-12.72
-6.04
3.77
18.03
36.25
56.30
75.41
91.38
103.27
111.23
115.92
118.01
117.81
115.25
110.12
102.10
91.13
77.51
61.86
45.12
28.24
12.09
-2.77
-15.75
-26.05
-32.55
-34.25
-31.11
-24.63
-17.70
-13.50
-14.19
-19.97
-29.27
-39.77
-49.79
-58.95
-67.80
-76.89
-85.85
-93.32
-97.62
-97.74
-93.89
-87.29
-79.41
-71.21
-62.98
-54.63
-46.03
-37.45
-29.54
-23.12
-18.80
-16.74
-16.55
-17.39
-18.32
-18.48
-17.39
-14.95
-11.43
-7.24
-2.88
1.24
4.82
7.74
10.05
11.89
13.40
14.63
15.60
16.22
16.49
16.49
16.43
16.59
17.17
18.21
19.58
21.13
22.76
24.48
26.40
28.56
30.94
33.29
35.22
36.41
36.69
36.13
35.05
33.85
32.85
32.21
31.88
31.63
31.26
30.66
29.87
29.03
28.31
27.82
27.60
27.66
28.06
28.99
30.76
33.81
38.52
45.21
54.04
64.98
77.80
91.81
105.72
117.52
124.87
125.64
118.69
104.35
84.40
61.48
38.24
16.60
-2.45
-18.67
-32.16
-43.01
-51.22
-56.87
-60.29
-62.09
-62.93
-63.30
-63.37
-62.99
-61.90
-59.90
-57.04
-53.62
-50.12
-46.99
-44.57
-42.93
-41.93
-41.31
-40.77
-40.13
-39.38
-38.61
-37.95
-37.51
-37.32
-37.37
-37.61
-38.04
-38.60
-39.12
-39.24
-38.51
-36.52
-33.12
-28.47
-23.07
-17.54
-12.47
-8.18
-4.71
-1.94
0.27
2.03
3.31
4.09
4.36
4.22
3.84
3.39
3.00
2.66
2.32
1.95
1.57
1.32
1.35
1.73
2.38
3.11
3.62
3.73
3.36
2.67
1.88
1.22
0.78
0.46
0.08
-0.57
-1.58
-2.87
-4.25
-5.48
-6.40
-7.00
-7.43
-7.91
-8.63
-9.72
-11.16
-12.81
-14.40
-15.58
-15.98
-15.32
-13.41
-10.33
-6.36
-1.92
2.50
6.48
9.78
12.29
14.04
15.10
15.56
15.52
15.11
14.48
13.77
13.09
12.46
11.87
11.28
10.61
9.85
8.98
7.99
6.89
5.70
4.42
3.08
1.71
0.30
-1.10
-2.45
-3.73
-4.86
-5.79
-6.56
-7.20
-7.83
-8.58
-9.53
-10.64
-11.80
-12.84
-13.64
-14.25
-14.85
-15.68
-16.91
-18.46
-20.04
-21.14
-21.29
-20.17
-17.78
-14.37
-10.40
-6.36
-2.64
0.50
2.95
4.67
5.66
5.93
5.57
4.73
3.67
2.70
2.06
1.85
2.00
2.29
2.50
2.51
2.29
1.91
1.47
1.06
0.72
0.47
0.30
0.15
-0.03
-0.33
-0.87
-1.69
-2.79
-4.11
-5.57
-7.12
-8.67
-10.16
-11.50
-12.62
-13.51
-14.25
-14.95
-15.79
-16.83
-18.09
-19.43
-20.67
-21.55
-21.84
-21.29
-19.72
-17.02
-13.24
-8.64
-3.65
1.20
5.46
8.83
11.25
12.86
13.90
14.56
14.95
15.08
14.92
14.50
13.93
13.38
12.98
12.81
12.76
12.68
12.41
11.88
11.21
10.58
10.20
10.16
10.34
10.47
10.31
9.70
8.68
7.45
6.24
5.19
4.28
3.40
2.39
1.21
-0.12
-1.51
-2.90
-4.25
-5.58
-6.91
-8.21
-9.48
-10.72
-11.99
-13.42
-15.10
-17.03
-19.09
-20.97
-22.29
-22.66
-21.79
-19.59
-16.18
-11.88
-7.17
-2.59
1.38
4.42
6.46
7.59
8.07
8.12
7.94
7.57
6.99
6.19
5.20
4.11
3.07
2.22
1.61
1.22
0.97
0.79
0.59
0.32
-0.03
-0.46
-0.90
-1.30
-1.56
-1.67
-1.68
-1.71
-1.92
-2.43
-3.36
-4.71
-6.40
-8.31
-10.24
-12.04
-13.57
-14.81
-15.78
-16.58
-17.26
-17.91
-18.57
-19.30
-20.15
-21.11
-22.09
-22.82
-22.90
-21.95
-19.74
-16.29
-11.83
-6.79
-1.54
3.57
8.33
12.51
15.84
18.10
19.16
19.20
18.59
17.88
17.55
17.83
18.70
19.96
21.38
22.79
24.15
25.41
26.53
27.41
27.90
27.96
27.59
26.88
25.90
24.70
23.24
21.49
19.41
17.04
14.50
11.94
9.49
7.23
5.17
3.23
1.32
-0.65
-2.73
-4.92
-7.21
-9.53
-11.82
-14.02
-16.10
-18.05
-19.89
-21.62
-23.15
-24.32
-24.84
-24.41
-22.87
-20.22
-16.67
-12.61
-8.39
-4.35
-0.70
2.42
4.90
6.64
7.61
7.85
7.53
6.88
6.11
5.36
4.66
3.94
3.15
2.30
1.49
0.92
0.82
1.41
2.79
4.92
7.57
10.39
13.00
15.12
16.66
17.69
18.34
18.75
18.99
19.03
18.82
18.32
17.51
16.39
14.99
13.37
11.61
9.80
8.03
6.36
4.81
3.40
2.11
0.89
-0.31
-1.53
-2.78
-4.05
-5.29
-6.52
-7.77
-9.19
-10.91
-13.03
-15.43
-17.81
-19.74
-20.78
-20.60
-19.09
-16.33
-12.57
-8.14
-3.42
1.21
5.44
9.05
11.91
14.09
15.74
17.05
18.17
19.16
19.97
20.48
20.64
20.43
19.95
19.36
18.84
18.53
18.47
18.63
18.92
19.28
19.65
19.98
20.22
20.30
20.16
19.73
18.99
17.98
16.85
15.72
14.72
13.89
13.19
12.54
11.86
11.06
10.09
8.85
7.27
5.26
2.79
-0.10
-3.27
-6.55
-9.85
-13.21
-16.67
-20.30
-24.03
-27.68
-31.06
-34.00
-36.40
-38.14
-39.03
-38.75
-36.99
-33.61
-28.80
-23.11
-17.25
-11.87
-7.30
-3.61
-0.65
1.73
3.50
4.59
4.89
4.48
3.63
2.75
2.20
2.09
2.34
2.70
2.91
2.85
2.54
2.08
1.51
0.75
-0.35
-1.90
-3.84
-5.90
-7.68
-8.83
-9.13
-8.62
-7.50
-6.00
-4.35
-2.75
-1.41
-0.61
-0.66
-1.79
-3.96
-6.85
-9.94
-12.65
-14.61
-15.73
-16.12
-15.94
-15.24
-13.97
-12.11
-9.94
-7.96
-6.83
-7.01
-8.46
-10.68
-12.84
-14.17
-14.31
-13.30
-11.47
-9.19
-6.72
-4.14
-1.48
1.18
3.68
5.85
7.55
8.77
9.56
10.00
10.19
10.14
9.89
9.47
8.92
8.29
7.63
6.97
6.41
6.06
6.03
6.34
6.92
7.60
8.22
8.65
8.87
8.94
8.84
8.54
7.95
7.06
5.93
4.75
3.73
3.02
2.70
2.68
2.81
2.89
2.78
2.39
1.76
0.95
0.10
-0.67
-1.32
-1.90
-2.53
-3.40
-4.61
-6.16
-7.89
-9.54
-10.89
-11.83
-12.46
-13.02
-13.77
-14.92
-16.50
-18.35
-20.20
-21.71
-22.56
-22.47
-21.20
-18.58
-14.64
-9.63
-4.08
1.35
6.01
9.47
11.61
12.63
12.87
12.68
12.28
11.72
10.93
9.83
8.41
6.76
5.10
3.65
2.59
2.00
1.85
1.99
2.28
2.59
2.86
3.05
3.16
3.19
3.13
3.00
2.81
2.57
2.26
1.85
1.30
0.62
-0.13
-0.88
-1.60
-2.31
-3.04
-3.81
-4.65
-5.50
-6.35
-7.19
-8.09
-9.07
-10.14
-11.24
-12.30
-13.29
-14.29
-15.44
-16.84
-18.43
-19.93
-20.90
-20.91
-19.65
-17.14
-13.60
-9.43
-5.00
-0.64
3.43
7.02
9.95
12.13
13.50
14.18
14.32
14.11
13.72
13.22
12.67
12.08
11.48
10.89
10.40
10.04
9.90
10.04
10.48
11.19
11.96
12.52
12.60
12.03
10.88
9.36
7.81
6.48
5.48
4.71
3.98
3.13
2.09
0.92
-0.27
-1.38
-2.41
-3.37
-4.29
-5.18
-6.04
-6.90
-7.85
-8.99
-10.38
-11.98
-13.68
-15.32
-16.85
-18.31
-19.94
-21.98
-24.55
-27.51
-30.41
-32.59
-33.44
-32.57
-29.91
-25.70
-20.42
-14.60
-8.73
-3.24
1.58
5.58
8.76
11.28
13.31
14.95
16.24
17.10
17.52
17.60
17.60
17.74
18.16
18.80
19.46
19.99
20.25
20.31
20.24
20.12
19.94
19.62
19.09
18.33
17.41
16.42
15.43
14.44
13.40
12.25
10.96
9.61
8.31
7.21
6.36
5.68
4.98
4.06
2.80
1.22
-0.55
-2.30
-3.89
-5.32
-6.68
-8.13
-9.77
-11.64
-13.68
-15.76
-17.79
-19.71
-21.60
-23.59
-25.82
-28.32
-30.99
-33.52
-35.45
-36.27
-35.57
-33.13
-29.04
-23.68
-17.58
-11.33
-5.42
-0.15
4.34
8.03
10.97
13.21
14.81
15.91
16.66
17.24
17.76
18.26
18.70
18.99
19.03
18.81
18.38
17.85
17.35
16.99
16.77
16.65
16.53
16.35
16.08
15.74
15.38
14.99
14.50
13.80
12.82
11.58
10.22
8.88
7.69
6.70
5.79
4.82
3.64
2.20
0.51
-1.35
-3.28
-5.22
-7.16
-9.14
-11.24
-13.50
-15.94
-18.57
-21.37
-24.34
-27.44
-30.52
-33.21
-34.97
-35.18
-33.39
-29.59
-24.19
-17.94
-11.59
-5.69
-0.45
4.14
8.15
11.58
14.35
16.44
17.95
19.08
20.03
20.87
21.54
21.90
21.88
21.53
21.02
20.52
20.17
19.98
19.93
19.93
19.93
19.86
19.68
19.33
18.76
17.99
17.06
16.07
15.06
14.06
12.99
11.76
10.29
8.63
6.95
5.50
4.43
3.72
3.16
2.40
1.12
-0.79
-3.22
-5.86
-8.38
-10.50
-12.17
-13.49
-14.69
-16.00
-17.62
-19.65
-22.06
-24.68
-27.21
-29.27
-30.40
-30.17
-28.30
-24.70
-19.56
-13.33
-6.61
-0.01
5.98
11.06
15.16
18.36
20.81
22.67
24.03
24.92
25.35
25.40
25.16
24.79
24.42
24.14
23.95
23.83
23.71
23.55
23.36
23.12
22.81
22.38
21.83
21.21
20.62
20.11
19.64
19.08
18.24
17.00
15.39
13.56
11.71
10.00
8.46
7.08
5.79
4.59
3.44
2.34
1.19
-0.11
-1.62
-3.32
-5.10
-6.89
-8.71
-10.63
-12.78
-15.16
-17.64
-19.96
-21.88
-23.31
-24.35
-25.30
-26.47
-28.14
-30.38
-33.02
-35.69
-37.88
-39.07
-38.83
-36.86
-33.15
-27.90
-21.60
-14.82
-8.22
-2.31
2.61
6.47
9.36
11.49
13.04
14.14
14.85
15.21
15.31
15.24
15.13
15.06
15.06
15.14
15.23
15.27
15.23
15.11
14.94
14.70
14.35
13.83
13.08
12.14
11.10
10.12
9.28
8.53
7.71
6.66
5.30
3.73
2.17
0.84
-0.14
-0.81
-1.38
-2.06
-2.97
-4.12
-5.35
-6.50
-7.42
-8.11
-8.69
-9.36
-10.25
-11.40
-12.69
-13.90
-14.89
-15.61
-16.20
-16.85
-17.78
-19.10
-20.86
-23.03
-25.52
-28.17
-30.71
-32.70
-33.62
-33.06
-30.79
-26.94
-21.94
-16.38
-10.91
-6.01
-1.97
1.12
3.34
4.85
5.91
6.72
7.40
7.98
8.47
8.82
9.06
9.19
9.22
9.11
8.85
8.42
7.85
7.22
6.63
6.20
5.97
5.96
6.14
6.43
6.78
7.16
7.62
8.28
9.25
10.59
12.17
13.73
14.92
15.43
15.14
14.09
12.47
10.55
8.59
6.74
5.10
3.72
2.56
1.58
0.68
-0.25
-1.22
-2.21
-3.14
-3.94
-4.62
-5.31
-6.19
-7.48
-9.32
-11.69
-14.41
-17.14
-19.45
-20.90
-21.09
-19.79
-16.99
-12.90
-7.94
-2.65
2.43
6.90
10.52
13.26
15.20
16.48
17.21
17.49
17.41
17.07
16.67
16.37
16.26
16.32
16.37
16.23
15.78
15.01
14.01
12.87
11.58
10.05
8.23
6.13
3.88
1.63
-0.50
-2.50
-4.42
-6.32
-8.12
-9.65
-10.69
-11.14
-11.06
-10.67
-10.27
-10.06
-10.15
-10.44
-10.75
-10.88
-10.76
-10.43
-10.12
-10.10
-10.58
-11.59
-12.94
-14.23
-14.98
-14.74
-13.25
-10.54
-6.85
-2.56
1.87
6.01
9.55
12.31
14.25
15.43
15.98
16.05
15.78
15.27
14.63
14.03
13.59
13.43
13.60
14.01
14.55
15.03
15.35
15.51
15.58
15.68
15.89
16.21
16.53
16.74
16.69
16.33
15.69
14.89
14.01
13.14
12.27
11.36
10.34
9.12
7.61
5.75
3.47
0.79
-2.25
-5.56
-9.05
-12.68
-16.40
-20.17
-23.95
-27.71
-31.52
-35.49
-39.73
-44.10
-48.09
-50.85
-51.45
-49.20
-43.98
-36.30
-27.15
-17.62
-8.62
-0.67
5.99
11.37
15.48
18.41
20.26
21.22
21.53
21.42
21.01
20.33
19.38
18.16
16.76
15.33
14.05
13.06
12.38
12.01
11.85
11.74
11.46
10.79
9.53
7.64
5.27
2.75
0.49
-1.18
-2.13
-2.49
-2.51
-2.47
-2.55
-2.81
-3.28
-4.03
-5.20
-6.96
-9.35
-12.21
-15.18
-17.81
-19.78
-21.00
-21.64
-22.03
-22.51
-23.33
-24.59
-26.28
-28.28
-30.36
-32.12
-33.12
-32.96
-31.43
-28.62
-24.90
-20.80
-16.81
-13.22
-10.12
-7.44
-5.07
-2.92
-0.96
0.78
2.29
3.62
4.86
6.15
7.68
9.60
12.05
14.97
18.18
21.30
23.89
25.53
25.98
25.24
23.56
21.36
19.04
16.82
14.71
12.55
10.16
7.52
4.73
2.01
-0.44
-2.53
-4.33
-5.95
-7.50
-9.04
-10.58
-12.05
-13.40
-14.53
-15.41
-16.06
-16.56
-17.08
-17.82
-18.92
-20.44
-22.30
-24.35
-26.37
-28.05
-29.00
-28.85
-27.19
-23.82
-18.79
-12.42
-5.30
1.92
8.66
14.55
19.43
23.40
26.67
29.46
32.00
34.34
36.46
38.23
39.51
40.14
40.05
39.27
37.87
35.97
33.73
31.26
28.63
25.89
23.04
20.07
17.01
13.83
10.62
7.49
4.63
2.28
0.63
-0.19
-0.17
0.61
1.94
3.56
5.16
6.49
7.39
7.83
7.88
7.67
7.28
6.70
5.86
4.62
2.80
0.21
-3.35
-8.07
-14.01
-21.00
-28.53
-35.80
-41.85
-45.86
-47.23
-45.86
-42.01
-36.24
-29.27
-21.84
-14.53
-7.77
-1.74
3.64
8.53
13.13
17.56
21.83
25.81
29.29
32.04
33.78
34.34
33.61
31.71
28.92
25.66
22.40
19.45
16.95
14.79
12.80
10.80
8.75
6.75
4.87
3.14
1.47
-0.32
-2.34
-4.58
-6.89
-9.07
-10.99
-12.67
-14.26
-15.90
-17.70
-19.63
-21.61
-23.56
-25.43
-27.18
-28.80
-30.27
-31.58
-32.77
-33.98
-35.37
-37.05
-38.92
-40.64
-41.69
-41.52
-39.79
-36.49
-31.93
-26.63
-21.18
-16.04
-11.48
-7.66
-4.58
-2.21
-0.43
0.93
2.10
3.32
4.70
6.21
7.66
8.84
9.62
10.04
10.32
10.71
11.41
12.41
13.55
14.58
15.29
15.57
15.45
14.96
14.11
12.89
11.31
9.48
7.62
6.02
4.87
4.14
3.62
2.99
2.02
0.64
-1.04
-2.81
-4.52
-6.16
-7.79
-9.50
-11.36
-13.40
-15.67
-18.30
-21.32
-24.62
-27.77
-30.08
-30.74
-29.15
-25.15
-19.09
-11.71
-3.87
3.70
10.51
16.34
21.20
25.17
28.38
31.01
33.23
35.19
36.94
38.46
39.61
40.23
40.21
39.52
38.26
36.58
34.68
32.67
30.62
28.43
25.94
23.03
19.62
15.78
11.68
7.50
3.46
-0.31
-3.70
-6.69
-9.27
-11.51
-13.53
-15.49
-17.51
-19.65
-21.88
-24.12
-26.36
-28.60
-30.89
-33.22
-35.53
-37.65
-39.49
-41.03
-42.40
-43.87
-45.65
-47.78
-49.95
-51.60
-51.99
-50.48
-46.74
-40.88
-33.47
-25.25
-16.98
-9.07
-1.63
5.51
12.58
19.67
26.64
33.14
38.80
43.27
46.37
48.11
48.65
48.27
47.26
45.83
44.06
41.87
39.10
35.56
31.06
25.45
18.59
10.51
1.50
-7.75
-16.21
-22.69
-26.24
-26.45
-23.59
-18.51
-12.35
-6.11
-0.47
4.27
8.15
11.35
14.14
16.69
19.07
21.11
22.43
22.50
20.80
17.02
11.25
4.00
-3.78
-10.97
-16.49
-19.56
-19.85
-17.55
-13.29
-7.96
-2.49
2.41
6.36
9.36
11.69
13.72
15.75
17.92
20.19
22.42
24.45
26.15
27.48
28.45
29.07
29.36
29.33
28.99
28.37
27.49
26.37
25.01
23.40
21.50
19.29
16.80
14.16
11.56
9.23
7.31
5.83
4.61
3.38
1.87
-0.07
-2.37
-4.87
-7.38
-9.78
-12.13
-14.59
-17.35
-20.44
-23.66
-26.54
-28.49
-28.97
-27.67
-24.60
-20.09
-14.69
-8.96
-3.39
1.73
6.22
9.99
12.98
15.11
16.37
16.81
16.60
16.01
15.31
14.68
14.22
13.92
13.71
13.60
13.57
13.60
13.61
13.43
12.94
12.03
10.79
9.31
7.78
6.27
4.75
3.17
1.46
-0.40
-2.35
-4.34
-6.29
-8.19
-10.02
-11.84
-13.66
-15.56
-17.56
-19.73
-22.07
-24.53
-26.88
-28.81
-29.89
-29.72
-28.04
-24.84
-20.33
-14.85
-8.77
-2.49
3.67
9.33
14.14
17.79
20.17
21.37
21.67
21.47
21.08
20.71
20.41
20.19
20.04
20.00
20.12
20.39
20.74
21.01
21.08
20.83
20.23
19.32
18.14
16.76
15.18
13.42
11.50
9.48
7.38
5.22
2.98
0.59
-2.01
-4.79
-7.64
-10.40
-12.93
-15.15
-17.06
-18.69
-20.16
-21.60
-23.21
-25.16
-27.49
-30.02
-32.29
-33.73
-33.84
-32.45
-29.78
-26.34
-22.70
-19.23
-16.03
-12.95
-9.86
-6.74
-3.78
-1.22
0.80
2.32
3.51
4.62
5.75
6.86
7.81
8.48
8.90
9.18
9.54
10.07
10.71
11.27
11.48
11.23
10.49
9.40
8.13
6.81
5.53
4.33
3.24
2.35
1.72
1.34
1.10
0.79
0.23
-0.69
-1.91
-3.25
-4.51
-5.56
-6.41
-7.22
-8.18
-9.52
-11.32
-13.57
-16.10
-18.75
-21.34
-23.75
-25.92
-27.86
-29.63
-31.37
-33.27
-35.49
-38.09
-40.86
-43.33
-44.82
-44.64
-42.35
-37.88
-31.59
-24.13
-16.23
-8.55
-1.48
4.79
10.27
15.06
19.26
22.87
25.82
28.04
29.50
30.31
30.66
30.73
30.65
30.41
29.98
29.33
28.55
27.82
27.35
27.19
27.30
27.48
27.48
27.16
26.49
25.57
24.54
23.50
22.46
21.33
20.01
18.39
16.47
14.33
12.11
9.98
8.00
6.16
4.32
2.33
0.09
-2.38
-4.93
-7.31
-9.29
-10.74
-11.70
-12.39
-13.11
-14.14
-15.63
-17.53
-19.57
-21.30
-22.25
-21.95
-20.13
-16.75
-12.11
-6.74
-1.30
3.61
7.56
10.36
12.09
12.95
13.20
13.06
12.64
12.03
11.24
10.39
9.57
8.93
8.54
8.42
8.50
8.65
8.77
8.75
8.59
8.32
8.03
7.74
7.50
7.28
7.01
6.57
5.78
4.48
2.54
-0.04
-3.12
-6.45
-9.76
-12.83
-15.63
-18.23
-20.76
-23.30
-25.85
-28.35
-30.75
-33.03
-35.25
-37.43
-39.63
-41.82
-43.97
-46.09
-48.20
-50.28
-52.20
-53.65
-54.19
-53.29
-50.53
-45.79
-39.30
-31.64
-23.58
-15.84
-8.95
-3.11
1.70
5.64
8.79
11.21
12.88
13.85
14.24
14.32
14.33
14.45
14.73
15.12
15.51
15.90
16.31
16.81
17.45
18.21
18.93
19.42
19.52
19.11
18.22
16.96
15.52
14.10
12.86
11.88
11.10
10.34
9.34
7.91
5.98
3.66
1.20
-1.12
-3.12
-4.80
-6.32
-7.90
-9.71
-11.76
-14.00
-16.31
-18.65
-20.98
-23.31
-25.56
-27.67
-29.59
-31.37
-33.18
-35.18
-37.31
-39.20
-40.18
-39.48
-36.58
-31.47
-24.62
-16.86
-9.08
-1.97
4.11
9.08
13.03
16.04
18.19
19.53
20.16
20.26
20.06
19.83
19.76
19.93
20.29
20.74
21.17
21.51
21.74
21.92
22.09
22.30
22.55
22.79
22.89
22.74
22.21
21.28
20.00
18.49
16.86
15.17
13.42
11.61
9.77
8.00
6.42
5.08
3.93
2.81
1.52
-0.12
-2.17
-4.58
-7.18
-9.75
-12.14
-14.27
-16.24
-18.24
-20.56
-23.38
-26.69
-30.16
-33.15
-34.86
-34.56
-31.90
-27.02
-20.52
-13.27
-6.12
0.35
5.89
10.48
14.18
17.03
18.97
20.00
20.15
19.59
18.57
17.33
16.06
14.89
13.93
13.24
12.93
13.00
13.42
14.04
14.61
14.91
14.80
14.24
13.34
12.30
11.35
10.65
10.23
9.95
9.61
8.98
7.95
6.52
4.85
3.08
1.30
-0.52
-2.51
-4.82
-7.53
-10.54
-13.65
-16.61
-19.22
-21.38
-23.14
-24.69
-26.22
-27.93
-29.89
-31.99
-33.94
-35.25
-35.36
-33.76
-30.17
-24.64
-17.59
-9.70
-1.69
5.77
12.24
17.48
21.42
24.07
25.53
25.90
25.39
24.27
22.85
21.43
20.20
19.30
18.70
18.35
18.16
18.05
18.04
18.17
18.49
19.01
19.68
20.39
21.02
21.48
21.70
21.65
21.36
20.85
20.19
19.43
18.58
17.62
16.54
15.27
13.78
12.07
10.20
8.24
6.29
4.39
2.52
0.59
-1.51
-3.81
-6.28
-8.75
-11.07
-13.12
-14.94
-16.69
-18.66
-21.12
-24.17
-27.72
-31.34
-34.37
-36.03
-35.65
-32.90
-27.90
-21.28
-13.89
-6.60
0.01
5.68
10.42
14.35
17.52
19.90
21.40
21.98
21.72
20.75
19.30
17.66
16.14
15.08
14.75
15.27
16.62
18.55
20.78
23.02
25.02
26.65
27.81
28.43
28.46
27.93
26.95
25.71
24.39
23.07
21.69
20.11
18.19
15.88
13.26
10.49
7.70
5.02
2.42
-0.14
-2.71
-5.28
-7.84
-10.30
-12.64
-14.82
-16.81
-18.63
-20.32
-22.02
-23.92
-26.13
-28.65
-31.26
-33.49
-34.75
-34.48
-32.33
-28.29
-22.72
-16.24
-9.58
-3.35
2.02
6.41
9.84
12.40
14.14
15.04
15.16
14.63
13.73
12.80
12.13
11.80
11.73
11.77
11.75
11.68
11.62
11.68
11.88
12.14
12.29
12.17
11.68
10.85
9.80
8.63
7.43
6.22
5.01
3.79
2.60
1.47
0.44
-0.56
-1.63
-2.90
-4.45
-6.28
-8.27
-10.27
-12.10
-13.68
-15.01
-16.14
-17.23
-18.50
-20.15
-22.29
-24.82
-27.36
-29.28
-29.87
-28.58
-25.23
-20.10
-13.81
-7.13
-0.78
4.73
9.16
12.45
14.70
16.08
16.77
16.95
16.77
16.32
15.66
14.80
13.77
12.60
11.35
10.14
9.12
8.46
8.33
8.76
9.67
10.84
11.96
12.73
12.94
12.53
11.57
10.25
8.82
7.54
6.60
6.09
5.97
6.06
6.15
6.04
5.57
4.63
3.12
0.96
-1.83
-5.17
-8.83
-12.50
-15.93
-18.98
-21.66
-24.11
-26.53
-29.06
-31.67
-34.19
-36.19
-37.16
-36.60
-34.21
-29.95
-24.18
-17.47
-10.56
-4.19
1.14
5.13
7.82
9.51
10.58
11.43
12.32
13.31
14.32
15.27
16.05
16.67
17.16
17.52
17.69
17.63
17.33
16.80
16.05
15.06
13.77
12.11
10.09
7.84
5.63
3.75
2.42
1.72
1.53
1.68
1.95
2.19
2.29
2.18
1.82
1.16
0.16
-1.15
-2.80
-4.79
-7.12
-9.74
-12.53
-15.27
-17.72
-19.66
-20.94
-21.60
-21.77
-21.70
-21.65
-21.77
-22.06
-22.27
-21.98
-20.68
-18.02
-13.89
-8.55
-2.50
3.60
9.18
13.84
17.44
20.06
21.86
23.05
23.78
24.17
24.25
24.06
23.62
22.95
22.10
21.14
20.17
19.28
18.59
18.13
17.79
17.39
16.68
15.51
13.89
12.01
10.11
8.40
6.94
5.61
4.24
2.70
0.96
-0.92
-2.86
-4.77
-6.67
-8.55
-10.38
-12.12
-13.71
-15.14
-16.42
-17.60
-18.76
-19.97
-21.32
-22.84
-24.54
-26.38
-28.14
-29.48
-29.91
-28.99
-26.47
-22.43
-17.32
-11.80
-6.52
-1.96
1.74
4.66
6.97
8.78
10.07
10.75
10.77
10.30
9.63
9.12
8.99
9.26
9.74
10.20
10.47
10.53
10.49
10.46
10.44
10.29
9.79
8.81
7.36
5.66
3.97
2.59
1.58
0.85
0.16
-0.73
-1.85
-3.12
-4.34
-5.37
-6.20
-6.98
-7.93
-9.13
-10.53
-11.92
-13.15
-14.18
-15.16
-16.34
-17.86
-19.71
-21.70
-23.62
-25.36
-26.96
-28.58
-30.28
-31.88
-32.92
-32.83
-31.11
-27.62
-22.63
-16.76
-10.75
-5.23
-0.56
3.18
6.08
8.28
9.87
10.86
11.34
11.43
11.38
11.45
11.76
12.24
12.68
12.76
12.35
11.54
10.63
9.99
9.84
10.14
10.62
10.95
10.88
10.36
9.50
8.52
7.60
6.88
6.43
6.29
6.47
6.95
7.67
8.48
9.20
9.65
9.72
9.37
8.61
7.52
6.17
4.66
3.04
1.33
-0.45
-2.36
-4.38
-6.54
-8.86
-11.33
-13.98
-16.67
-19.16
-20.98
-21.62
-20.60
-17.77
-13.34
-7.87
-2.11
3.24
7.72
11.16
13.63
15.32
16.37
16.85
16.72
15.97
14.58
12.69
10.49
8.19
5.98
3.96
2.16
0.65
-0.52
-1.21
-1.35
-0.96
-0.21
0.61
1.21
1.35
0.99
0.24
-0.72
-1.77
-2.85
-4.00
-5.26
-6.65
-8.10
-9.49
-10.72
-11.73
-12.52
-13.17
-13.80
-14.50
-15.34
-16.33
-17.40
-18.49
-19.51
-20.42
-21.23
-22.00
-22.86
-23.93
-25.38
-27.32
-29.74
-32.42
-34.86
-36.38
-36.28
-34.08
-29.75
-23.69
-16.61
-9.35
-2.61
3.21
7.99
11.84
14.94
17.49
19.57
21.24
22.48
23.28
23.64
23.61
23.31
22.90
22.59
22.56
22.88
23.55
24.45
25.45
26.38
27.15
27.70
28.03
28.13
28.00
27.62
26.95
25.98
24.73
23.27
21.67
19.98
18.21
16.29
14.17
11.84
9.36
6.88
4.47
2.20
-0.01
-2.26
-4.68
-7.30
-10.06
-12.80
-15.41
-17.80
-19.96
-21.90
-23.70
-25.42
-27.20
-29.19
-31.52
-34.18
-36.94
-39.29
-40.56
-40.14
-37.75
-33.51
-27.91
-21.70
-15.54
-9.91
-5.07
-1.06
2.13
4.56
6.23
7.19
7.56
7.52
7.31
7.11
7.03
7.08
7.21
7.38
7.60
7.95
8.52
9.31
10.21
11.05
11.65
11.96
11.99
11.79
11.43
10.93
10.26
9.43
