1532022034.00
64.000000
-0.00
-0.00
-0.00
-0.00
-0.00
-0.00
-0.00
-0.00
-0.00
-0.00
0.00
0.01
0.01
-0.00
-0.03
-0.05
-0.05
0.00
0.13
0.36
0.66
1.01
1.37
1.72
2.06
2.40
2.79
3.24
3.80
4.42
5.06
5.66
6.20
6.68
7.15
7.68
8.31
9.14
10.09
11.04
11.88
12.56
13.14
13.76
14.65
15.96
17.91
20.32
22.90
25.38
27.58
29.57
31.68
34.32
37.81
42.54
48.15
54.10
59.83
64.97
69.58
74.14
79.34
85.71
93.76
103.00
112.62
121.73
129.77
136.75
143.30
150.75
157.77
166.64
177.95
191.79
206.97
220.57
228.25
225.36
208.53
176.87
132.76
80.05
23.07
-34.94
-92.44
-149.16
-205.23
-260.37
-313.74
-363.87
-409.83
-450.91
-486.50
-515.74
-537.23
-549.22
-549.96
-538.37
-514.21
-478.67
-433.88
-382.45
-327.02
-269.84
-212.63
-156.66
-102.95
-52.37
-5.90
35.58
71.43
101.35
125.50
144.38
158.69
169.15
176.37
180.75
182.57
182.07
179.51
175.23
169.65
163.18
156.15
148.81
141.30
133.69
126.02
118.33
110.69
103.16
95.80
88.68
81.83
75.25
68.95
62.95
57.25
51.86
46.78
42.03
37.59
33.45
29.61
26.07
22.81
19.83
17.11
14.67
12.48
10.54
8.83
7.35
6.07
4.97
4.05
3.27
2.62
2.09
1.65
1.30
1.01
0.79
0.61
0.47
0.36
0.28
0.23
0.21
0.20
0.20
0.19
0.17
0.11
0.03
-0.04
-0.09
-0.10
-0.06
-0.00
0.05
0.07
0.04
-0.02
-0.08
-0.10
-0.07
0.01
0.11
0.17
0.16
0.05
-0.12
-0.28
-0.35
-0.26
-0.03
0.25
0.44
0.42
0.14
-0.30
-0.73
-0.94
-0.79
-0.32
0.29
0.74
0.74
0.23
-0.64
-1.53
-2.02
-1.85
-1.05
0.01
0.82
0.93
0.18
-1.17
-2.56
-3.38
-3.27
-2.27
-0.80
0.53
1.13
0.56
-1.50
-5.16
-10.11
-15.34
-19.16
-19.67
-15.61
-7.22
3.71
14.29
21.79
24.67
23.18
18.84
13.57
8.71
4.67
1.25
-1.86
-4.55
-6.30
-6.54
-5.10
-2.40
0.72
3.26
4.51
4.32
3.07
1.49
0.26
-0.33
-0.42
-0.52
-1.11
-2.36
-4.06
-5.70
-6.75
-6.97
-6.48
-5.72
-5.26
-5.44
-6.36
-7.79
-9.31
-10.57
-11.46
-12.08
-12.70
-13.64
-15.06
-16.96
-19.16
-21.46
-23.70
-25.85
-27.93
-30.06
-32.36
-34.95
-37.93
-41.23
-44.56
-47.46
-49.43
-50.19
-49.81
-48.75
-47.60
-46.91
-46.98
-47.75
-48.83
-49.76
-50.18
-49.89
-48.80
-46.78
-43.44
-38.02
-29.28
-15.71
4.33
32.08
67.93
110.90
158.35
206.16
249.26
282.78
303.09
308.56
299.83
279.28
250.25
216.18
180.11
144.55
111.62
83.02
59.90
42.62
30.64
22.68
17.29
13.28
10.10
7.75
6.43
6.09
6.28
6.13
4.76
1.51
-3.68
-10.30
-17.42
-24.05
-29.55
-33.80
-37.30
-40.84
-45.16
-50.58
-56.89
-63.49
-69.68
-74.99
-79.34
-82.95
-86.15
-89.18
-92.10
-94.87
-97.43
-99.84
-102.19
-104.56
-106.86
-108.88
-110.45
-111.85
-113.90
-117.80
-124.43
-133.70
-144.06
-152.74
-156.51
-152.78
-140.31
-119.45
-91.77
-59.38
-24.42
11.18
45.74
77.82
106.25
130.36
150.03
165.59
177.49
186.02
191.21
192.88
190.95
185.59
177.36
167.02
155.38
143.01
130.19
116.93
103.14
88.69
73.62
58.06
42.23
26.37
10.72
-4.50
-19.01
-32.46
-44.47
-54.80
-63.36
-70.38
-76.27
-81.54
-86.58
-91.45
-95.89
-99.27
-100.86
-100.04
-96.48
-90.25
-81.78
-71.79
-61.10
-50.53
-40.85
-32.64
-26.21
-21.61
-18.65
-17.13
-16.91
-18.06
-20.66
-24.68
-29.73
-35.06
-39.78
-43.16
-44.91
-45.15
-44.33
-42.94
-41.38
-39.83
-38.25
-36.48
-34.28
-31.47
-28.00
-23.99
-19.67
-15.25
-10.79
-6.24
-1.50
3.45
8.42
13.09
17.18
20.58
23.45
26.07
28.67
31.19
33.27
34.36
33.92
31.61
27.45
21.83
15.40
8.84
2.64
-3.01
-8.27
-13.39
-18.56
-23.83
-29.13
-34.36
-39.54
-44.72
-49.87
-54.80
-59.15
-62.53
-64.71
-65.62
-65.30
-63.91
-61.67
-59.02
-56.69
-55.51
-56.07
-58.34
-61.46
-63.87
-63.79
-59.76
-51.15
-38.39
-22.81
-6.25
9.44
22.87
33.32
40.67
45.12
46.87
46.08
43.13
38.98
35.44
34.84
39.26
49.51
64.60
81.82
97.62
108.82
113.59
111.99
105.62
96.88
88.07
80.70
75.24
71.36
68.24
65.09
61.27
56.35
50.07
42.34
33.26
23.24
12.98
3.23
-5.40
-12.70
-18.81
-24.17
-29.21
-34.20
-39.16
-43.87
-47.92
-50.79
-52.12
-51.73
-49.78
-46.71
-43.17
-39.84
-37.23
-35.43
-34.29
-33.56
-33.08
-32.78
-32.66
-32.71
-32.83
-32.97
-33.02
-32.97
-32.96
-33.15
-33.38
-33.39
-32.95
-32.18
-31.53
-31.27
-31.47
-32.07
-32.80
-33.16
-32.85
-32.17
-32.08
-33.90
-38.05
-44.26
-51.87
-60.10
-67.73
-73.71
-77.56
-79.43
-79.90
-78.36
-73.68
-64.88
-51.42
-32.72
-8.74
19.59
50.14
79.61
105.88
127.43
143.08
147.76
137.37
112.53
79.62
50.25
27.06
10.07
-1.54
-9.45
-14.64
-17.05
-15.96
-10.74
-1.60
9.78
22.16
34.10
44.13
51.31
55.97
59.21
61.97
64.35
65.40
64.86
62.83
59.68
56.06
52.96
51.30
51.30
52.36
53.13
52.88
51.35
48.60
44.95
40.80
36.45
32.00
27.39
22.52
17.77
13.69
10.70
9.02
8.61
9.19
10.24
11.16
11.37
10.59
8.79
6.20
3.20
0.16
-2.56
-4.80
-6.57
-8.07
-9.52
-11.13
-13.01
-15.24
-17.87
-20.98
-24.66
-28.95
-33.71
-38.63
-43.18
-46.83
-49.10
-49.79
-48.98
-47.06
-44.54
-41.92
-39.53
-37.54
-36.06
-35.22
-35.32
-36.76
-39.95
-45.18
-52.53
-61.86
-72.67
-84.10
-94.88
-103.40
-108.09
-107.83
-102.32
-92.15
-78.65
-63.42
-47.90
-33.15
-19.66
-7.41
4.11
15.53
27.32
39.40
51.01
61.00
68.42
72.98
75.35
76.85
78.81
82.05
86.68
92.36
98.76
105.77
113.33
121.13
128.31
133.72
136.32
135.74
132.44
127.49
121.97
116.53
111.12
105.09
97.62
88.19
76.79
64.03
50.79
37.88
25.71
14.15
2.68
-9.33
-22.17
-35.50
-48.35
-59.29
-66.91
-70.20
-68.84
-63.14
-53.82
-41.81
-28.16
-14.21
-1.70
7.56
12.42
13.14
11.57
10.38
11.65
15.63
20.37
22.82
20.42
12.44
0.16
-14.14
-28.60
-42.58
-56.48
-70.64
-84.44
-96.15
-103.71
-105.90
-103.11
-97.13
-90.28
-84.37
-79.98
-76.56
-73.07
-68.85
-63.98
-59.16
-55.08
-51.91
-49.16
-46.04
-42.01
-37.24
-32.38
-28.20
-25.09
-22.85
-20.96
-18.96
-16.69
-14.24
-11.72
-9.02
-5.81
-1.88
2.52
6.58
9.26
9.81
8.28
5.62
3.28
2.47
3.58
6.05
8.71
10.48
10.93
10.45
9.98
10.40
12.12
14.89
18.07
21.00
23.30
24.95
26.02
26.58
26.77
26.97
27.93
30.54
35.17
41.18
46.87
50.07
49.21
44.12
36.12
27.35
19.67
13.92
9.80
6.45
3.26
0.31
-1.86
-2.66
-1.97
-0.32
1.45
2.51
2.41
1.17
-0.86
-3.26
-5.74
-8.32
-11.23
-14.79
-19.10
-23.89
-28.53
-32.19
-34.23
-34.38
-32.91
-30.48
-27.95
-26.04
-25.17
-25.42
-26.55
-28.07
-29.42
-30.04
-29.48
-27.48
-24.10
-19.65
-14.68
-9.77
-5.29
-1.38
2.08
5.31
8.45
11.48
14.17
16.27
17.63
18.36
18.71
19.04
19.59
20.36
21.21
21.88
22.23
22.26
22.10
21.92
21.75
21.50
20.97
19.99
18.50
16.65
14.60
12.51
10.38
8.19
5.90
3.53
1.23
-0.90
-2.84
-4.67
-6.53
-8.47
-10.32
-11.73
-12.26
-11.58
-9.63
-6.68
-3.20
0.31
3.45
6.02
8.00
9.47
10.53
11.27
11.85
12.40
13.07
13.89
14.80
15.64
16.24
16.51
16.46
16.16
15.76
15.38
15.13
15.10
15.34
15.78
16.26
16.49
16.23
15.36
13.95
12.19
10.28
8.36
6.49
4.68
2.92
1.19
-0.56
-2.40
-4.32
-6.23
-7.83
-8.75
-8.65
-7.34
-4.87
-1.50
2.34
6.23
9.70
12.39
14.04
14.60
14.23
13.25
12.02
10.88
10.06
9.65
9.68
10.07
10.71
11.45
12.15
12.73
13.15
13.37
13.38
13.14
12.57
11.68
10.49
9.07
7.52
5.90
4.27
2.68
1.22
0.00
-0.95
-1.71
-2.55
-3.76
-5.60
-8.13
-11.11
-14.06
-16.41
-17.65
-17.54
-16.13
-13.75
-10.83
-7.77
-4.83
-2.07
0.52
2.94
5.12
6.92
8.21
8.96
9.27
9.31
9.28
9.33
9.47
9.69
9.98
10.32
10.75
11.22
11.62
11.82
11.67
11.14
10.30
9.27
8.20
7.14
6.09
5.05
4.03
3.09
2.25
1.49
0.67
-0.34
-1.59
-3.03
-4.55
-6.06
-7.50
-8.91
-10.25
-11.43
-12.24
-12.43
-11.87
-10.57
-8.72
-6.60
-4.41
-2.29
-0.31
1.46
2.91
3.92
4.39
4.36
4.04
3.68
3.53
3.67
4.08
4.60
5.07
5.44
5.73
6.03
6.41
6.80
7.09
7.10
6.76
6.08
5.18
4.20
3.18
2.12
0.93
-0.42
-1.92
-3.44
-4.89
-6.22
-7.48
-8.78
-10.20
-11.73
-13.22
-14.51
-15.49
-16.10
-16.37
-16.31
-15.90
-15.04
-13.61
-11.52
-8.83
-5.75
-2.59
0.26
2.50
4.02
4.96
5.59
6.25
7.16
8.40
9.89
11.52
13.19
14.83
16.39
17.76
18.81
19.41
19.62
19.59
19.58
19.74
20.08
20.43
20.68
20.83
21.06
21.58
22.52
23.75
24.92
25.65
25.72
25.18
24.39
23.83
23.92
24.81
26.31
28.04
29.66
31.14
32.89
35.60
39.88
45.76
52.51
58.66
62.58
62.95
59.18
51.48
40.94
29.69
20.95
18.59
26.09
45.16
74.61
110.17
145.53
174.19
191.31
194.74
185.02
164.55
136.56
104.36
70.98
39.11
10.88
-12.30
-29.95
-42.45
-50.76
-56.02
-59.37
-61.68
-63.54
-65.30
-67.15
-69.25
-71.66
-74.30
-76.97
-79.42
-81.50
-83.33
-85.28
-87.74
-90.78
-93.99
-96.54
-97.59
-96.73
-94.22
-90.78
-87.16
-83.76
-80.47
-76.88
-72.73
-68.13
-63.53
-59.44
-56.13
-53.49
-51.13
-48.58
-45.58
-42.17
-38.58
-35.16
-32.25
-30.02
-28.49
-27.46
-26.66
-25.82
-24.82
-23.77
-22.87
-22.37
-22.38
-22.83
-23.54
-24.35
-25.22
-26.27
-27.69
-29.68
-32.22
-35.10
-37.92
-40.16
-41.33
-41.08
-39.24
-35.90
-31.35
-26.06
-20.54
-15.31
-10.71
-6.89
-3.78
-1.25
0.80
2.42
3.59
4.33
4.73
4.95
5.13
5.36
5.68
6.08
6.53
7.01
7.45
7.73
7.67
7.09
5.89
4.04
1.61
-1.27
-4.41
-7.60
-10.58
-13.15
-15.19
-16.74
-17.97
-19.15
-20.58
-22.41
-24.61
-26.90
-28.78
-29.67
-29.08
-26.80
-22.94
-17.86
-12.08
-6.11
-0.35
4.89
9.42
13.09
15.81
17.61
18.65
19.23
19.71
20.38
21.37
22.60
23.78
24.54
24.56
23.75
22.27
20.48
18.76
17.34
16.18
15.02
13.51
11.42
8.74
5.68
2.55
-0.39
-3.04
-5.44
-7.75
-10.08
-12.56
-15.20
-17.93
-20.64
-23.05
-24.72
-25.13
-23.75
-20.20
-14.50
-7.14
1.01
8.90
15.58
20.44
23.40
24.73
24.93
24.43
23.48
22.10
20.26
17.99
15.49
13.08
11.06
9.59
8.61
7.93
7.32
6.71
6.13
5.66
5.36
5.17
4.92
4.41
3.46
2.01
0.10
-2.09
-4.38
-6.59
-8.63
-10.56
-12.54
-14.78
-17.44
-20.52
-23.79
-26.85
-29.20
-30.40
-30.17
-28.42
-25.27
-21.00
-16.02
-10.86
-6.04
-2.08
0.69
2.19
2.61
2.36
1.89
1.52
1.35
1.26
1.02
0.45
-0.41
-1.37
-2.12
-2.50
-2.47
-2.10
-1.42
-0.27
1.69
4.73
8.84
13.57
18.14
21.80
24.19
25.49
26.29
27.21
28.55
30.12
31.46
32.18
32.20
31.80
31.37
31.24
31.46
31.91
32.46
33.09
33.94
35.23
37.02
39.07
40.92
41.98
41.72
39.94
36.70
32.35
27.31
21.98
16.67
11.50
6.60
2.01
-2.15
-5.72
-8.59
-10.71
-12.20
-13.26
-14.08
-14.76
-15.25
-15.42
-15.22
-14.78
-14.35
-14.26
-14.65
-15.45
-16.38
-17.18
-17.72
-18.01
-18.21
-18.42
-18.71
-19.11
-19.70
-20.56
-21.79
-23.39
-25.13
-26.63
-27.42
-27.11
-25.50
-22.63
-18.75
-14.26
-9.58
-5.11
-1.11
2.26
4.95
6.92
8.17
8.74
8.73
8.34
7.83
7.45
7.34
7.50
7.80
8.07
8.18
8.09
7.92
7.78
7.75
7.76
7.64
7.21
6.36
5.17
3.78
2.35
1.02
-0.17
-1.24
-2.30
-3.47
-4.91
-6.73
-8.91
-11.23
-13.33
-14.71
-14.98
-13.99
-11.83
-8.81
-5.28
-1.62
1.91
5.05
7.62
9.47
10.55
10.90
10.61
9.80
8.62
7.25
5.94
4.94
4.43
4.42
4.75
5.20
5.50
5.51
5.26
4.81
4.22
3.49
2.59
1.49
0.28
-0.94
-2.06
-3.06
-4.03
-5.19
-6.74
-8.79
-11.24
-13.82
-16.15
-17.86
-18.68
-18.49
-17.32
-15.21
-12.30
-8.73
-4.73
-0.64
3.13
6.18
8.28
9.37
9.60
9.23
8.55
7.78
7.06
6.42
5.89
5.47
5.19
5.07
5.05
5.07
5.02
4.87
4.57
4.14
3.55
2.78
1.79
0.62
-0.62
-1.76
-2.66
-3.33
-3.94
-4.83
-6.31
-8.51
-11.22
-13.99
-16.23
-17.44
-17.41
-16.16
-13.94
-11.06
-7.80
-4.41
-1.10
1.88
4.28
5.93
6.74
6.80
6.33
5.60
4.84
4.23
3.81
3.56
3.41
3.31
3.25
3.27
3.36
3.49
3.54
3.41
3.00
2.31
1.36
0.25
-0.98
-2.30
-3.69
-5.18
-6.81
-8.64
-10.78
-13.26
-15.97
-18.64
-20.83
-22.11
-22.13
-20.76
-18.07
-14.36
-10.00
-5.47
-1.18
2.53
5.47
7.69
9.32
10.64
11.87
13.11
14.31
15.29
15.87
15.94
15.55
14.89
14.21
13.70
13.42
13.28
13.09
12.69
12.01
11.05
9.88
8.52
6.95
5.16
3.16
1.06
-1.04
-3.07
-5.08
-7.24
-9.72
-12.61
-15.76
-18.82
-21.28
-22.61
-22.44
-20.62
-17.31
-12.89
-7.94
-3.00
1.48
5.20
8.03
9.95
11.07
11.56
11.65
11.63
11.74
12.15
12.84
13.69
14.46
14.93
15.00
14.69
14.18
13.67
13.31
13.11
12.87
12.31
11.17
9.27
6.72
3.75
0.73
-2.09
-4.66
-7.17
-9.92
-13.14
-16.81
-20.52
-23.68
-25.60
-25.89
-24.50
-21.69
-17.93
-13.65
-9.15
-4.63
-0.31
3.54
6.57
8.56
9.46
9.44
8.84
8.04
7.28
6.73
6.42
6.33
6.41
6.63
6.96
7.36
7.74
8.03
8.11
7.85
7.12
5.87
4.15
2.09
-0.10
-2.29
-4.40
-6.48
-8.67
-11.13
-13.97
-17.11
-20.26
-22.94
-24.55
-24.55
-22.69
-19.13
-14.34
-9.02
-3.84
0.75
4.55
7.63
10.10
12.15
13.89
15.39
16.68
17.78
18.62
19.13
19.24
18.96
18.35
17.58
16.76
15.94
15.06
14.02
12.70
11.04
9.06
6.82
4.40
1.89
-0.68
-3.33
-6.11
-9.13
-12.51
-16.33
-20.60
-25.16
-29.73
-33.83
-36.93
-38.51
-38.19
-35.87
-31.75
-26.31
-20.19
-13.97
-8.05
-2.55
2.62
7.67
12.73
17.82
22.91
28.09
33.54
39.51
46.11
53.17
60.24
66.79
72.45
77.12
80.93
83.99
86.26
87.33
86.58
83.43
77.59
69.33
59.54
49.52
40.67
34.02
29.88
27.67
26.25
24.38
21.29
16.97
12.10
7.70
4.65
3.44
4.09
6.36
9.86
14.20
18.99
23.76
28.00
31.17
32.78
32.52
30.36
26.54
21.62
16.38
11.65
8.09
5.98
5.14
5.03
5.07
4.77
3.93
2.49
0.47
-2.12
-5.24
-8.68
-12.00
-14.60
-16.00
-16.13
-15.46
-14.77
-14.91
-16.36
-19.09
-22.63
-26.34
-29.74
-32.56
-34.81
-36.69
-38.47
-40.50
-43.03
-46.09
-49.34
-52.04
-53.20
-51.96
-47.94
-41.40
-33.11
-24.01
-14.86
-6.09
2.14
9.63
16.00
20.67
23.16
23.36
21.70
18.95
15.98
13.31
10.90
8.32
4.99
0.57
-4.84
-10.79
-16.71
-22.20
-27.19
-31.91
-36.60
-41.39
-46.15
-50.60
-54.42
-57.50
-59.95
-62.07
-64.20
-66.46
-68.68
-70.36
-70.89
-69.77
-66.87
-62.55
-57.55
-52.79
-49.03
-46.65
-45.54
-45.22
-45.00
-44.33
-43.03
-41.35
-39.86
-39.13
-39.30
-40.00
-40.34
-39.27
-35.99
-30.16
-22.07
-12.51
-2.79
5.42
10.18
9.82
3.65
-7.32
-20.30
-31.37
-36.94
-35.29
-27.34
-16.25
-5.98
0.46
2.15
0.17
-3.41
-6.76
-9.13
-10.77
-12.24
-13.74
-14.88
-15.07
-14.15
-12.68
-11.76
-12.31
-14.39
-16.93
-18.07
-15.95
-9.59
0.70
13.43
26.53
38.04
46.66
51.93
54.11
53.94
52.33
50.21
48.29
47.01
46.46
46.39
46.38
46.06
45.22
43.86
42.01
39.66
36.70
33.05
28.90
24.68
20.97
18.20
16.43
15.35
14.55
13.84
13.45
13.88
15.61
18.67
22.50
26.22
28.94
30.20
30.07
29.02
27.59
26.12
24.69
23.16
21.48
19.75
18.34
17.68
18.09
19.60
21.84
24.21
26.04
26.87
26.57
25.35
23.59
21.64
19.67
17.60
15.24
12.48
9.38
6.18
3.17
0.53
-1.78
-3.94
-6.10
-8.23
-10.06
-11.22
-11.42
-10.69
-9.34
-7.89
-6.80
-6.28
-6.21
-6.27
-6.13
-5.58
-4.63
-3.42
-2.14
-0.89
0.29
1.44
2.59
3.74
4.91
6.18
7.71
9.60
11.85
14.24
16.42
18.07
19.07
19.56
19.88
20.28
20.76
21.07
20.84
19.87
18.25
16.33
14.45
12.74
11.09
9.26
7.15
4.92
2.88
1.30
0.31
-0.22
-0.37
-0.11
0.82
2.75
5.83
9.80
14.04
17.76
20.27
21.18
20.45
18.36
15.32
11.81
8.28
5.12
2.58
0.75
-0.44
-1.19
-1.72
-2.29
-3.07
-4.14
-5.54
-7.16
-8.87
-10.46
-11.76
-12.66
-13.17
-13.35
-13.35
-13.26
-13.14
-12.96
-12.66
-12.21
-11.65
-11.13
-10.80
-10.78
-11.06
-11.44
-11.68
-11.49
-10.71
-9.36
-7.57
-5.55
-3.47
-1.45
0.39
1.95
3.10
3.72
3.77
3.29
2.44
1.43
0.40
-0.57
-1.50
-2.44
-3.44
-4.48
-5.47
-6.30
-6.87
-7.17
-7.28
-7.35
-7.53
-7.90
-8.46
-9.14
-9.87
-10.62
-11.41
-12.24
-13.04
-13.68
-13.96
-13.74
-12.96
-11.78
-10.43
-9.13
-8.02
-7.09
-6.30
-5.61
-5.08
-4.84
-4.95
-5.40
-6.05
-6.72
-7.31
-7.85
-8.49
-9.33
-10.35
-11.40
-12.23
-12.67
-12.72
-12.59
-12.56
-12.95
-13.89
-15.39
-17.29
-19.39
-21.49
-23.56
-25.67
-28.03
-30.93
-34.56
-38.97
-43.90
-48.86
-53.19
-56.27
-57.71
-57.45
-55.68
-52.69
-48.73
-43.95
-38.45
-32.40
-26.11
-19.95
-14.21
-8.92
-3.87
1.39
7.14
13.40
19.82
25.82
30.85
34.66
37.30
39.07
40.27
41.02
41.24
40.78
39.58
37.82
35.82
33.92
32.31
30.95
29.69
28.34
26.81
25.08
23.22
21.24
19.16
16.97
14.71
12.44
10.30
8.41
6.87
5.70
4.82
4.07
3.27
2.32
1.23
0.14
-0.75
-1.25
-1.29
-0.89
-0.17
0.64
1.28
1.54
1.25
0.44
-0.70
-1.84
-2.67
-3.06
-3.07
-2.92
-2.86
-2.98
-3.18
-3.24
-2.99
-2.46
-1.80
-1.26
-1.02
-1.09
-1.31
-1.51
-1.53
-1.38
-1.17
-1.03
-1.07
-1.29
-1.64
-2.04
-2.44
-2.84
-3.29
-3.82
-4.43
-5.00
-5.39
-5.39
-4.89
-3.87
-2.47
-0.93
0.51
1.66
2.42
2.73
2.62
2.12
1.30
0.30
-0.71
-1.59
-2.26
-2.78
-3.30
-3.95
-4.78
-5.71
-6.56
-7.12
-7.32
-7.20
-6.94
-6.72
-6.63
-6.66
-6.65
-6.50
-6.18
-5.83
-5.59
-5.61
-5.88
-6.28
-6.66
-6.90
-7.02
-7.08
-7.17
-7.30
-7.41
-7.40
-7.20
-6.78
-6.12
-5.21
-4.04
-2.67
-1.25
0.03
1.00
1.60
1.88
1.90
1.71
1.31
0.70
-0.07
-0.78
-1.18
-1.10
-0.59
0.09
0.59
0.68
0.35
-0.20
-0.76
-1.21
-1.59
-2.01
-2.55
-3.14
-3.62
-3.87
-3.85
-3.71
-3.67
-3.89
-4.43
-5.16
-5.93
-6.63
-7.22
-7.70
-8.06
-8.21
-8.02
-7.36
-6.22
-4.71
-3.06
-1.48
-0.17
0.79
1.41
1.70
1.71
1.48
1.06
0.57
0.11
-0.13
-0.07
0.32
0.95
1.64
2.22
2.54
2.57
2.39
2.13
1.93
1.90
2.02
2.20
2.28
2.15
1.73
1.08
0.34
-0.38
-1.03
-1.65
-2.35
-3.24
-4.30
-5.41
-6.35
-6.92
-6.98
-6.48
-5.51
-4.15
-2.56
-0.84
0.88
2.51
3.95
5.14
6.04
6.65
6.98
7.04
6.83
6.36
5.71
4.95
4.23
3.68
3.39
3.38
3.65
4.12
4.71
5.28
5.70
5.81
5.53
4.87
4.03
3.27
2.82
2.74
2.87
2.94
2.65
1.89
0.70
-0.73
-2.22
-3.67
-4.99
-6.11
-6.86
-7.02
-6.43
-5.08
-3.14
-1.00
0.96
2.48
3.54
4.28
4.94
5.63
6.26
6.66
6.71
6.41
6.00
5.74
5.80
6.15
6.59
6.85
6.81
6.45
5.94
5.48
5.17
5.02
4.97
4.95
4.88
4.73
4.45
4.05
3.55
3.00
2.40
1.72
0.89
-0.19
-1.50
-2.93
-4.26
-5.24
-5.76
-5.80
-5.42
-4.70
-3.66
-2.28
-0.57
1.33
3.20
4.79
5.89
6.48
6.66
6.60
6.46
6.30
6.10
5.88
5.67
5.54
5.57
5.77
6.10
6.47
6.83
7.15
7.41
7.54
7.42
6.95
6.06
4.86
3.56
2.42
1.63
1.20
0.97
0.67
0.14
-0.72
-1.87
-3.22
-4.70
-6.24
-7.77
-9.18
-10.27
-10.78
-10.54
-9.52
-7.85
-5.87
-3.86
-2.07
-0.53
0.80
2.05
3.28
4.52
5.70
6.73
7.54
8.09
8.37
8.41
8.28
8.10
8.03
8.19
8.68
9.50
10.52
11.54
12.29
12.60
12.40
11.77
10.88
9.90
8.90
7.85
6.66
5.28
3.79
2.29
0.93
-0.26
-1.36
-2.52
-3.85
-5.28
-6.63
-7.64
-8.09
-7.86
-6.99
-5.60
-3.85
-1.91
0.06
1.91
3.49
4.69
5.47
5.84
5.88
5.71
5.41
5.10
4.87
4.79
4.88
5.14
5.50
5.88
6.20
6.36
6.29
5.96
5.40
4.69
3.99
3.43
3.05
2.81
2.55
2.13
1.50
0.78
0.17
-0.14
-0.10
0.14
0.34
0.21
-0.42
-1.55
-2.99
-4.46
-5.63
-6.23
-6.04
-4.97
-3.10
-0.63
2.07
4.55
6.44
7.52
7.81
7.53
6.99
6.50
6.20
6.09
6.03
5.87
5.51
4.97
4.35
3.74
3.21
2.80
2.51
2.36
2.39
2.56
2.78
2.92
2.85
2.52
1.96
1.24
0.43
-0.47
-1.50
-2.67
-3.92
-5.09
-5.96
-6.41
-6.49
-6.37
-6.33
-6.60
-7.25
-8.14
-8.98
-9.46
-9.34
-8.55
-7.21
-5.50
-3.62
-1.68
0.24
2.07
3.65
4.79
5.30
5.18
4.58
3.81
3.18
2.87
2.86
3.02
3.18
3.25
3.23
3.15
3.05
2.96
2.86
2.73
2.55
2.31
1.98
1.60
1.21
0.87
0.58
0.28
-0.12
-0.72
-1.49
-2.34
-3.17
-3.90
-4.60
-5.38
-6.28
-7.30
-8.27
-9.01
-9.34
-9.14
-8.38
-7.08
-5.35
-3.37
-1.41
0.28
1.54
2.30
2.66
2.69
2.47
2.06
1.50
0.93
0.52
0.44
0.75
1.34
1.99
2.48
2.69
2.66
2.53
2.44
2.48
2.65
2.87
2.96
2.79
2.23
1.29
0.14
-0.97
-1.80
-2.25
-2.46
-2.69
-3.20
-4.13
-5.40
-6.81
-8.09
-9.06
-9.59
-9.62
-9.04
-7.78
-5.87
-3.49
-0.99
1.24
2.88
3.80
4.08
3.88
3.38
2.69
1.85
0.94
0.10
-0.44
-0.44
0.17
1.20
2.30
3.02
3.09
2.47
1.43
0.37
-0.40
-0.73
-0.74
-0.71
-0.97
-1.75
-3.11
-4.90
-6.86
-8.72
-10.34
-11.71
-13.02
-14.48
-16.21
-18.26
-20.53
-22.89
-25.22
-27.41
-29.33
-30.90
-32.04
-32.75
-33.09
-33.22
-33.32
-33.51
-33.80
-34.09
-34.22
-33.98
-33.11
-31.34
-28.39
-24.11
-18.48
-11.66
-3.97
4.19
12.38
20.18
27.23
33.21
37.91
41.22
43.20
44.04
44.00
43.30
42.08
40.34
38.10
35.47
32.62
29.80
27.22
24.92
22.79
20.65
18.30
15.70
12.96
10.27
7.78
5.61
3.82
2.43
1.49
0.99
0.89
1.07
1.36
1.64
1.85
2.03
2.22
2.40
2.49
2.34
1.89
1.19
0.41
-0.24
-0.63
-0.73
-0.59
-0.25
0.27
0.95
1.75
2.54
3.16
3.50
3.53
3.34
3.09
2.92
2.85
2.82
2.77
2.58
2.22
1.71
1.10
0.41
-0.35
-1.18
-2.08
-3.02
-3.96
-4.85
-5.64
-6.29
-6.69
-6.71
-6.21
-5.14
-3.58
-1.79
-0.14
1.04
1.59
1.59
1.25
0.84
0.51
0.29
0.13
-0.04
-0.21
-0.28
-0.12
0.37
1.16
2.11
2.98
3.58
3.77
3.58
3.16
2.70
2.34
2.13
2.00
1.83
1.54
1.08
0.50
-0.15
-0.84
-1.56
-2.31
-3.10
-3.99
-5.01
-6.24
-7.68
-9.26
-10.72
-11.74
-12.01
-11.35
-9.81
-7.64
-5.23
-2.94
-0.97
0.61
1.88
2.94
3.81
4.48
4.88
4.99
4.84
4.56
4.31
4.23
4.39
4.80
5.33
5.82
6.10
6.13
5.94
5.62
5.30
5.05
4.87
4.73
4.60
4.46
4.30
4.07
3.69
3.09
2.24
1.21
0.12
-0.96
-2.07
-3.32
-4.89
-6.83
-9.00
-11.10
-12.78
-13.76
-13.94
-13.37
-12.18
-10.51
-8.50
-6.31
-4.17
-2.30
-0.87
0.12
0.81
1.39
2.00
2.61
3.09
3.31
3.25
3.06
2.90
2.94
3.22
3.68
4.27
4.90
5.51
5.99
6.18
5.99
5.40
4.56
3.70
3.02
2.63
2.48
2.39
2.15
1.60
0.73
-0.44
-1.83
-3.42
-5.20
-7.14
-9.11
-10.86
-12.07
-12.46
-11.93
-10.60
-8.80
-6.90
-5.16
-3.69
-2.41
-1.19
0.08
1.39
2.62
3.63
4.29
4.56
4.48
4.16
3.79
3.52
3.48
3.69
4.07
4.47
4.71
4.67
4.37
3.93
3.48
3.16
2.96
2.76
2.38
1.70
0.72
-0.43
-1.55
-2.48
-3.20
-3.83
-4.55
-5.54
-6.86
-8.45
-10.09
-11.54
-12.51
-12.81
-12.32
-11.03
-9.03
-6.45
-3.56
-0.63
2.06
4.28
5.91
6.92
7.38
7.42
7.17
6.80
6.46
6.28
6.39
6.79
7.46
8.25
8.94
9.30
9.16
8.52
7.53
6.49
5.66
5.16
4.96
4.82
4.47
3.69
2.49
1.03
-0.41
-1.58
-2.38
-2.93
-3.46
-4.28
-5.63
-7.47
-9.58
-11.49
-12.75
-13.05
-12.28
-10.58
-8.18
-5.39
-2.51
0.19
2.48
4.19
5.24
5.67
5.63
5.33
5.00
4.80
4.83
5.11
5.59
6.18
6.80
7.33
7.71
7.88
7.78
7.42
6.86
6.21
5.59
5.09
4.69
4.27
3.64
2.68
1.35
-0.21
-1.76
-3.09
-4.12
-4.96
-5.85
-7.05
-8.71
-10.70
-12.71
-14.30
-15.09
-14.87
-13.68
-11.74
-9.32
-6.73
-4.19
-1.88
0.05
1.48
2.35
2.66
2.53
2.18
1.83
1.67
1.80
2.18
2.69
3.20
3.61
3.87
3.99
4.01
3.99
3.95
3.92
3.89
3.78
3.48
2.88
1.97
0.84
-0.26
-1.15
-1.77
-2.23
-2.82
-3.78
-5.22
-7.03
-8.91
-10.49
-11.45
-11.61
-10.94
-9.54
-7.55
-5.18
-2.66
-0.27
1.74
3.17
3.96
4.21
4.14
4.04
4.11
4.40
4.80
5.10
5.15
4.88
4.42
3.99
3.84
4.09
4.67
5.37
5.88
5.98
5.58
4.81
3.84
2.88
2.00
1.21
0.43
-0.42
-1.40
-2.55
-3.83
-5.27
-6.83
-8.45
-10.02
-11.34
-12.17
-12.31
-11.62
-10.11
-7.94
-5.40
-2.83
-0.47
1.52
3.10
4.31
5.18
5.71
5.89
5.77
5.43
5.03
4.76
4.73
4.93
5.24
5.49
5.53
5.33
5.01
4.73
4.66
4.84
5.18
5.46
5.41
4.89
3.86
2.49
1.03
-0.25
-1.16
-1.70
-2.03
-2.47
-3.31
-4.75
-6.77
-9.12
-11.41
-13.26
-14.33
-14.48
-13.73
-12.27
-10.33
-8.16
-5.93
-3.77
-1.74
0.05
1.49
2.53
3.14
3.40
3.48
3.58
3.85
4.36
5.08
5.86
6.52
6.91
6.96
6.68
6.22
5.73
5.36
5.11
4.86
4.46
3.81
2.95
2.07
1.36
0.91
0.62
0.29
-0.30
-1.24
-2.47
-3.79
-5.10
-6.36
-7.64
-8.98
-10.26
-11.21
-11.52
-10.99
-9.68
-7.86
-5.85
-3.87
-1.97
-0.11
1.75
3.53
5.02
6.01
6.41
6.32
5.99
5.69
5.61
5.77
6.06
6.32
6.43
6.41
6.34
6.35
6.53
6.85
7.19
7.34
7.16
6.54
5.45
3.95
2.13
0.18
-1.66
-3.15
-4.18
-4.76
-5.08
-5.47
-6.20
-7.43
-9.13
-11.04
-12.76
-13.87
-14.04
-13.17
-11.38
-8.99
-6.36
-3.80
-1.51
0.46
2.03
3.19
3.86
4.04
3.89
3.69
3.74
4.24
5.14
6.20
7.12
7.66
7.71
7.41
6.95
6.52
6.26
6.17
6.15
6.09
5.84
5.31
4.50
3.45
2.30
1.21
0.27
-0.49
-1.13
-1.82
-2.80
-4.21
-6.12
-8.42
-10.79
-12.78
-13.93
-13.92
-12.72
-10.55
-7.83
-5.01
-2.45
-0.30
1.46
2.96
4.32
5.57
6.69
7.58
8.16
8.45
8.51
8.46
8.46
8.60
8.91
9.32
9.74
10.05
10.17
10.10
9.87
9.61
9.44
9.43
9.49
9.46
9.14
8.38
7.24
5.84
4.38
2.98
1.62
0.18
-1.44
-3.28
-5.27
-7.28
-9.19
-10.95
-12.53
-13.82
-14.64
-14.71
-13.81
-11.91
-9.24
-6.22
-3.33
-0.92
0.88
2.14
3.04
3.75
4.33
4.72
4.86
4.71
4.38
4.08
4.07
4.55
5.53
6.84
8.12
9.00
9.29
9.04
8.49
7.94
7.55
7.27
6.89
6.18
5.03
3.58
2.08
0.80
-0.09
-0.65
-1.04
-1.49
-2.15
-3.08
-4.28
-5.72
-7.36
-9.19
-11.06
-12.72
-13.81
-14.00
-13.13
-11.27
-8.71
-5.85
-3.05
-0.58
1.42
2.89
3.82
4.24
4.28
4.15
4.02
4.06
4.28
4.63
5.07
5.58
6.14
6.72
7.22
7.44
7.28
6.72
5.93
5.14
4.55
4.20
3.96
3.62
2.99
2.03
0.84
-0.37
-1.44
-2.22
-2.71
-2.99
-3.22
-3.66
-4.52
-5.92
-7.77
-9.82
-11.67
-12.90
-13.24
-12.58
-11.01
-8.72
-6.00
-3.17
-0.57
1.52
2.89
3.51
3.59
3.47
3.49
3.89
4.67
5.64
6.57
7.33
7.92
8.41
8.89
9.39
9.84
10.10
10.09
9.79
9.35
8.99
8.91
9.17
9.57
9.77
9.39
8.20
6.29
4.03
1.91
0.29
-0.79
-1.54
-2.30
-3.36
-4.74
-6.35
-7.95
-9.39
-10.62
-11.60
-12.27
-12.45
-11.94
-10.52
-8.21
-5.19
-1.90
1.15
3.55
5.08
5.85
6.13
6.25
6.45
6.75
7.03
7.11
6.92
6.57
6.30
6.32
6.71
7.32
7.85
8.03
7.79
7.26
6.72
6.41
6.37
6.46
6.39
5.94
5.06
3.91
2.73
1.71
0.88
0.10
-0.79
-1.87
-3.10
-4.32
-5.40
-6.31
-7.16
-8.16
-9.46
-11.05
-12.74
-14.13
-14.84
-14.59
-13.30
-11.13
-8.42
-5.53
-2.77
-0.30
1.80
3.55
4.93
5.95
6.60
6.92
7.03
7.06
7.13
7.27
7.46
7.63
7.71
7.67
7.48
7.10
6.51
5.68
4.64
3.51
2.43
1.48
0.63
-0.27
-1.36
-2.75
-4.38
-6.12
-7.77
-9.19
-10.31
-11.14
-11.68
-11.93
-11.99
-12.00
-12.26
-13.02
-14.33
-15.93
-17.30
-17.89
-17.34
-15.71
-13.39
-10.89
-8.61
-6.69
-5.10
-3.71
-2.53
-1.66
-1.20
-1.16
-1.36
-1.51
-1.31
-0.68
0.33
1.49
2.57
3.46
4.18
4.87
5.67
6.62
7.63
8.53
9.11
9.24
8.92
8.26
7.43
6.54
5.65
4.73
3.73
2.63
1.45
0.26
-0.89
-2.05
-3.31
-4.78
-6.47
-8.25
-9.82
-10.82
-10.97
-10.17
-8.57
-6.47
-4.22
-2.08
-0.18
1.44
2.77
3.78
4.40
4.62
4.45
3.97
3.34
2.74
2.35
2.26
2.48
2.89
3.31
3.56
3.56
3.37
3.15
3.02
3.02
3.02
2.82
2.22
1.20
-0.10
-1.44
-2.57
-3.36
-3.85
-4.16
-4.46
-4.95
-5.75
-6.94
-8.44
-10.03
-11.39
-12.14
-12.02
-10.97
-9.17
-6.97
-4.75
-2.81
-1.27
-0.10
0.83
1.66
2.49
3.35
4.11
4.56
4.46
3.67
2.32
0.76
-0.46
-0.86
-0.24
1.21
2.96
4.40
5.12
5.06
4.53
3.98
3.75
3.88
4.12
4.12
3.61
2.63
1.38
0.08
-1.19
-2.52
-4.05
-5.83
-7.68
-9.33
-10.58
-11.40
-12.00
-12.62
-13.38
-14.10
-14.38
-13.79
-12.07
-9.27
-5.80
-2.20
0.97
3.36
4.90
5.73
6.13
6.32
6.44
6.47
6.36
6.06
5.65
5.25
5.01
4.98
5.08
5.17
5.10
4.86
4.57
4.39
4.39
4.46
4.37
3.85
2.80
1.33
-0.25
-1.63
-2.64
-3.31
-3.82
-4.36
-5.02
-5.83
-6.78
-7.89
-9.16
-10.47
-11.49
-11.84
-11.17
-9.46
-6.99
-4.29
-1.86
0.04
1.39
2.41
3.25
3.96
4.40
4.48
4.19
3.72
3.35
3.27
3.51
3.91
4.23
4.32
4.22
4.09
4.11
4.38
4.80
5.15
5.25
5.01
4.52
3.91
3.29
2.68
2.00
1.18
0.22
-0.81
-1.83
-2.84
-3.90
-5.16
-6.69
-8.37
-9.94
-11.02
-11.29
-10.60
-9.07
-6.99
-4.76
-2.68
-0.92
0.54
1.79
2.85
3.66
4.09
4.05
3.53
2.74
1.94
1.41
1.29
1.60
2.24
3.08
3.99
4.85
5.55
6.00
6.15
6.07
5.89
5.75
5.68
5.58
5.27
4.57
3.49
2.17
0.91
-0.09
-0.78
-1.31
-1.98
-3.00
-4.43
-6.17
-7.90
-9.31
-10.11
-10.10
-9.23
-7.57
-5.33
-2.82
-0.37
1.76
3.43
4.66
5.51
6.07
6.34
6.26
5.86
5.25
4.69
4.46
4.74
5.45
6.32
6.96
7.14
6.85
6.32
5.81
5.50
5.36
5.24
4.98
4.53
3.96
3.32
2.62
1.80
0.77
-0.40
-1.56
-2.53
-3.22
-3.71
-4.27
-5.15
-6.52
-8.34
-10.43
-12.45
-14.10
-15.05
-15.04
-13.97
-11.92
-9.16
-6.13
-3.29
-1.01
0.51
1.33
1.63
1.68
1.71
1.92
2.39
3.14
4.09
5.12
6.10
6.90
7.43
7.66
7.66
7.56
7.54
7.75
8.17
8.66
8.99
8.97
8.51
7.68
6.62
5.45
4.21
2.94
1.65
0.40
-0.73
-1.76
-2.80
-4.03
-5.59
-7.45
-9.46
-11.33
-12.79
-13.65
-13.84
-13.35
-12.24
-10.59
-8.53
-6.24
-3.93
-1.81
-0.06
1.27
2.21
2.86
3.29
3.61
3.85
4.07
4.30
4.61
5.04
5.65
6.40
7.22
7.97
8.50
8.72
8.63
8.35
8.02
7.77
7.59
7.35
6.84
5.92
4.59
3.01
1.45
0.12
-0.90
-1.71
-2.51
-3.46
-4.63
-5.99
-7.49
-9.08
-10.69
-12.16
-13.21
-13.52
-12.84
-11.19
-8.83
-6.19
-3.70
-1.61
0.05
1.40
2.56
3.56
4.31
4.73
4.83
4.75
4.70
4.82
5.15
5.60
6.01
6.30
6.42
6.44
6.37
6.19
5.82
5.19
4.29
3.27
2.30
1.51
0.94
0.54
0.21
-0.11
-0.37
-0.54
-0.61
-0.71
-0.97
-1.54
-2.49
-3.79
-5.38
-7.17
-9.05
-10.86
-12.35
-13.17
-13.05
-11.85
-9.67
-6.84
-3.78
-0.87
1.60
3.44
4.60
5.08
4.97
4.52
4.00
3.74
3.94
4.60
5.52
6.40
6.99
7.19
7.07
6.79
6.50
6.28
6.14
6.04
5.96
5.88
5.78
5.58
5.17
4.50
3.57
2.48
1.36
0.33
-0.52
-1.17
-1.64
-2.05
-2.59
-3.46
-4.80
-6.60
-8.67
-10.70
-12.31
-13.25
-13.39
-12.74
-11.41
-9.53
-7.25
-4.77
-2.31
-0.10
1.68
2.97
3.78
4.18
4.23
4.02
3.66
3.33
3.21
3.42
3.95
4.67
5.34
5.84
6.14
6.33
6.51
6.70
6.84
6.83
6.61
6.21
5.68
5.03
4.18
3.06
1.68
0.19
-1.13
-2.06
-2.52
-2.73
-3.05
-3.82
-5.20
-7.07
-9.09
-10.86
-12.02
-12.35
-11.80
-10.48
-8.58
-6.36
-4.02
-1.77
0.28
2.04
3.44
4.43
4.98
5.12
4.96
4.70
4.50
4.49
4.65
4.92
5.23
5.58
5.97
6.43
6.92
7.36
7.62
7.62
7.35
6.84
6.15
5.34
4.46
3.56
2.70
1.93
1.24
0.58
-0.11
-0.90
-1.85
-2.98
-4.29
-5.73
-7.25
-8.80
-10.32
-11.72
-12.86
-13.52
-13.50
-12.63
-10.93
-8.60
-5.95
-3.36
-1.08
0.76
2.17
3.16
3.77
4.01
3.94
3.68
3.43
3.35
3.53
3.94
4.51
5.15
5.79
6.38
6.86
7.19
7.35
7.38
7.42
7.53
7.71
7.79
7.57
6.90
5.79
4.45
3.14
2.06
1.21
0.45
-0.43
-1.57
-2.96
-4.51
-6.13
-7.81
-9.60
-11.48
-13.34
-14.89
-15.73
-15.55
-14.18
-11.76
-8.73
-5.67
-3.14
-1.47
-0.66
-0.41
-0.26
0.15
0.90
1.80
2.54
2.82
2.61
2.10
1.65
1.60
2.13
3.16
4.40
5.50
6.16
6.23
5.78
5.02
4.25
3.67
3.33
3.17
3.02
2.74
2.25
1.58
0.72
-0.31
-1.50
-2.81
-4.15
-5.38
-6.45
-7.39
-8.37
-9.56
-11.05
-12.70
-14.19
-15.12
-15.11
-14.03
-11.95
-9.19
-6.17
-3.29
-0.85
1.01
2.26
2.94
3.18
3.08
2.75
2.38
2.11
2.11
2.44
3.07
3.83
4.56
5.12
5.46
5.62
5.71
5.78
5.84
5.89
5.88
5.76
5.46
4.91
4.04
2.87
1.51
0.16
-1.02
-1.93
-2.63
-3.21
-3.85
-4.64
-5.69
-7.05
-8.74
-10.69
-12.68
-14.29
-15.06
-14.60
-12.83
-10.01
-6.71
-3.54
-0.94
0.96
2.24
3.12
3.73
4.09
4.16
3.95
3.55
3.17
3.02
3.23
3.82
4.69
5.67
6.63
7.45
8.05
8.41
8.51
8.35
7.98
7.44
6.79
6.05
5.21
4.23
3.12
1.90
0.62
-0.63
-1.87
-3.10
-4.40
-5.79
-7.27
-8.85
-10.51
-12.25
-14.02
-15.65
-16.87
-17.33
-16.74
-15.04
-12.37
-9.13
-5.76
-2.64
-0.06
1.87
3.14
3.82
4.05
3.97
3.75
3.50
3.31
3.24
3.33
3.67
4.30
5.19
6.27
7.33
8.19
8.71
8.87
8.77
8.54
8.28
7.97
7.50
6.74
5.64
4.29
2.85
1.50
0.33
-0.73
-1.81
-3.06
-4.53
-6.21
-8.05
-10.00
-12.07
-14.28
-16.54
-18.63
-20.09
-20.47
-19.40
-16.87
-13.26
-9.23
-5.49
-2.51
-0.40
1.01
2.03
2.87
3.55
3.98
4.09
3.98
3.83
3.89
4.29
5.00
5.91
6.85
7.72
8.46
9.03
9.38
9.50
9.37
9.04
8.55
7.93
7.17
6.30
5.34
4.35
3.36
2.31
1.15
-0.17
-1.59
-2.96
-4.18
-5.26
-6.38
-7.83
-9.81
-12.23
-14.72
-16.67
-17.51
-16.92
-14.97
-12.05
-8.68
-5.29
-2.16
0.66
3.17
5.32
7.01
8.10
8.53
8.47
8.19
7.98
8.05
8.39
8.90
9.41
9.85
10.21
10.49
10.68
10.68
10.42
9.88
9.17
8.43
7.80
7.31
6.84
6.25
5.40
4.24
2.83
1.25
-0.42
-2.13
-3.87
-5.64
-7.44
-9.32
-11.32
-13.49
-15.75
-17.87
-19.44
-20.01
-19.23
-17.03
-13.69
-9.72
-5.68
-2.05
0.95
3.30
5.12
6.52
7.55
8.23
8.57
8.69
8.73
8.87
9.22
9.80
10.53
11.27
11.91
12.40
12.72
12.91
12.98
12.95
12.82
12.54
12.10
11.46
10.64
9.66
8.53
7.28
5.88
4.34
2.68
1.00
-0.65
-2.22
-3.77
-5.44
-7.42
-9.84
-12.67
-15.69
-18.51
-20.60
-21.50
-20.87
-18.71
-15.33
-11.31
-7.30
-3.80
-1.04
1.04
2.64
3.96
5.06
5.89
6.42
6.69
6.85
7.12
7.65
8.46
9.44
10.40
11.16
11.63
11.83
11.84
11.80
11.83
11.96
12.13
12.18
11.96
11.39
10.49
9.38
8.12
6.78
5.31
3.65
1.84
0.01
-1.63
-2.93
-3.88
-4.63
-5.46
-6.59
-8.17
-10.15
-12.36
-14.54
-16.39
-17.59
-17.87
-17.04
-15.07
-12.12
-8.50
-4.67
-1.08
1.93
4.19
5.71
6.64
7.16
7.45
7.64
7.82
8.02
8.26
8.55
8.88
9.25
9.63
10.02
10.41
10.76
11.05
11.21
11.16
10.84
10.26
9.46
8.52
7.50
6.40
5.21
3.92
2.58
1.26
0.09
-0.88
-1.67
-2.36
-3.10
-4.03
-5.30
-6.97
-9.10
-11.60
-14.29
-16.79
-18.64
-19.40
-18.80
-16.86
-13.90
-10.41
-6.92
-3.80
-1.24
0.77
2.33
3.51
4.34
4.82
4.97
4.90
4.79
4.80
5.02
5.44
5.99
6.60
7.21
7.81
8.38
8.91
9.38
9.76
10.04
10.18
10.07
9.61
8.70
7.33
5.62
3.80
2.11
0.73
-0.33
-1.17
-1.92
-2.73
-3.65
-4.73
-6.04
-7.65
-9.64
-11.94
-14.31
-16.36
-17.62
-17.75
-16.65
-14.47
-11.58
-8.35
-5.14
-2.14
0.52
2.75
4.51
5.83
6.75
7.39
7.86
8.20
8.39
8.42
8.31
8.18
8.20
8.52
9.14
9.95
10.76
11.38
11.73
11.80
11.66
11.36
10.90
10.28
9.48
8.56
7.58
6.55
5.43
4.15
2.64
0.96
-0.79
-2.47
-4.00
-5.36
-6.62
-7.88
-9.23
-10.77
-12.55
-14.57
-16.71
-18.66
-19.99
-20.29
-19.31
-17.11
-14.02
-10.57
-7.24
-4.36
-2.05
-0.27
1.08
2.04
2.64
2.88
2.86
2.70
2.58
2.64
2.96
3.54
4.37
5.40
6.58
7.81
8.91
9.67
9.94
9.67
8.94
7.94
6.88
5.92
5.11
4.41
3.75
3.06
2.31
1.50
0.67
-0.20
-1.14
-2.25
-3.59
-5.22
-7.12
-9.20
-11.37
-13.51
-15.49
-17.09
-18.00
-17.87
-16.50
-13.96
-10.61
-7.07
-3.93
-1.57
-0.07
0.79
1.30
1.68
2.04
2.40
2.74
3.06
3.40
3.77
4.16
4.55
4.92
5.30
5.74
6.25
6.79
7.28
7.62
7.75
7.64
7.29
6.69
5.84
4.77
3.59
2.43
1.42
0.61
-0.05
-0.65
-1.28
-2.01
-2.88
-3.95
-5.35
-7.21
-9.57
-12.30
-15.05
-17.32
-18.64
-18.72
-17.52
-15.31
-12.47
-9.43
-6.56
-4.09
-2.10
-0.57
0.60
1.55
2.38
3.12
3.72
4.12
4.28
4.24
4.11
4.06
4.28
4.87
5.83
7.06
8.40
9.67
10.68
11.30
11.47
11.16
10.37
9.20
7.78
6.27
4.84
3.57
2.45
1.39
0.25
-1.01
-2.36
-3.69
-4.90
-6.01
-7.13
-8.43
-10.06
-11.98
-14.01
-15.81
-17.01
-17.35
-16.69
-15.10
-12.76
-9.94
-6.90
-3.95
-1.30
0.88
2.52
3.65
4.35
4.73
4.88
4.86
4.72
4.53
4.35
4.30
4.44
4.76
5.22
5.71
6.12
6.42
6.61
6.71
6.75
6.72
6.58
6.24
5.63
4.70
3.45
1.94
0.24
-1.52
-3.24
-4.80
-6.17
-7.37
-8.51
-9.69
-11.04
-12.62
-14.35
-16.09
-17.59
-18.57
-18.77
-18.01
-16.29
-13.78
-10.80
-7.75
-4.98
-2.69
-0.90
0.47
1.53
2.36
2.97
3.35
3.53
3.61
3.75
4.09
4.69
5.44
6.17
6.72
6.99
7.05
7.04
7.11
7.30
7.50
7.49
7.09
6.17
4.78
3.10
1.39
-0.13
-1.34
-2.27
-3.10
-4.08
-5.42
-7.25
-9.53
-12.07
-14.58
-16.71
-18.11
-18.50
-17.70
-15.72
-12.80
-9.38
-5.98
-3.04
-0.79
0.79
1.87
2.72
3.54
4.37
5.17
5.81
6.26
6.57
6.88
7.34
8.02
8.83
9.60
10.15
10.44
10.53
10.57
10.66
10.74
10.68
10.26
9.40
8.12
6.56
4.92
3.31
1.84
0.57
-0.50
-1.43
-2.41
-3.69
-5.51
-7.96
-10.88
-13.84
-16.28
-17.67
-17.71
-16.41
-14.06
-11.11
-8.01
-5.06
-2.41
-0.07
1.97
3.70
5.04
5.96
6.52
6.89
7.26
7.76
8.36
8.89
9.21
9.22
9.03
8.85
8.86
9.12
9.53
9.92
10.11
10.06
9.78
9.36
8.82
8.09
7.12
5.85
4.36
2.78
1.29
0.05
-0.93
-1.72
-2.54
-3.61
-5.16
-7.25
-9.81
-12.56
-15.09
-16.95
-17.77
-17.30
-15.54
-12.73
-9.30
-5.77
-2.59
-0.02
1.88
3.24
4.30
5.24
6.13
6.95
7.58
7.95
8.05
8.00
7.93
7.96
8.16
8.52
8.98
9.50
10.06
10.63
11.14
11.51
11.59
11.28
10.55
9.47
8.20
6.87
5.55
4.24
2.85
1.32
-0.35
-2.07
-3.71
-5.17
-6.43
-7.60
-8.90
-10.54
-12.58
-14.92
-17.16
-18.79
-19.28
-18.31
-15.89
-12.35
-8.27
-4.27
-0.80
1.92
3.90
5.32
6.37
7.20
7.83
8.24
8.43
8.41
8.32
8.30
8.47
8.90
9.53
10.28
11.04
11.72
12.25
12.59
12.69
12.51
12.06
11.37
10.51
9.57
8.60
7.58
6.47
5.22
3.80
2.25
0.67
-0.86
-2.27
-3.59
-4.94
-6.48
-8.37
-10.67
-13.27
-15.85
-17.96
-19.14
-19.06
-17.67
-15.23
-12.20
-9.09
-6.25
-3.79
-1.67
0.24
2.02
3.59
4.83
5.66
6.10
6.32
6.53
6.89
7.44
8.15
8.88
9.58
10.19
10.73
11.23
11.66
11.96
12.07
11.96
11.67
11.28
10.84
10.37
9.82
9.11
8.17
6.98
5.58
4.05
2.46
0.88
-0.65
-2.13
-3.56
-4.97
-6.38
-7.88
-9.58
-11.60
-13.94
-16.45
-18.74
-20.28
-20.59
-19.44
-16.99
-13.76
-10.33
-7.20
-4.58
-2.45
-0.72
0.67
1.74
2.51
3.06
3.53
4.03
4.63
5.33
6.07
6.83
7.65
8.51
9.32
9.94
10.27
10.27
10.04
9.71
9.37
9.03
8.65
8.26
7.94
7.81
7.90
8.11
8.20
7.89
7.03
5.61
3.81
1.87
0.01
-1.64
-3.05
-4.29
-5.53
-6.96
-8.76
-11.02
-13.67
-16.46
-18.97
-20.73
-21.33
-20.57
-18.50
-15.41
-11.78
-8.13
-4.92
-2.38
-0.54
0.75
1.66
2.36
2.91
3.33
3.64
3.88
4.16
4.53
5.01
5.54
6.03
6.45
6.83
7.23
7.69
8.18
8.57
8.71
8.53
8.07
7.45
6.83
6.31
5.86
5.37
4.69
3.73
2.49
1.04
-0.50
-2.08
-3.69
-5.37
-7.14
-9.02
-10.94
-12.81
-14.44
-15.64
-16.19
-15.96
-14.93
-13.19
-10.95
-8.46
-5.92
-3.51
-1.34
0.52
2.00
3.08
3.80
4.26
4.58
4.87
5.17
5.51
5.93
6.47
7.16
7.97
8.81
9.47
9.77
9.67
9.27
8.79
8.43
8.28
8.26
8.18
7.88
7.29
6.47
5.54
4.55
3.46
2.21
0.74
-0.89
-2.55
-4.10
-5.52
-6.93
-8.55
-10.57
-12.95
-15.40
-17.44
-18.51
-18.24
-16.57
-13.77
-10.39
-7.03
-4.20
-2.12
-0.77
0.06
0.62
1.11
1.59
1.99
2.21
2.20
2.00
1.76
1.69
1.89
2.37
3.00
3.61
4.06
4.34
4.49
4.56
4.51
4.17
3.40
2.10
0.40
-1.49
-3.34
-5.08
-6.83
-8.79
-11.14
-13.90
-16.91
-19.92
-22.68
-25.11
-27.34
-29.62
-32.22
-35.25
-38.62
-42.02
-44.98
-47.04
-47.85
-47.24
-45.24
-41.97
-37.57
-32.16
-25.82
-18.71
-11.06
-3.22
4.42
11.51
17.83
23.34
28.09
32.16
35.60
38.34
40.24
41.18
41.14
40.23
38.74
36.95
35.09
33.24
31.36
29.33
27.17
24.97
22.88
21.03
19.41
17.89
16.30
14.52
12.54
10.45
8.36
6.30
4.18
1.88
-0.72
-3.61
-6.62
-9.40
-11.58
-12.78
-12.80
-11.67
-9.66
-7.22
-4.82
-2.83
-1.41
-0.47
0.15
0.61
1.00
1.31
1.51
1.60
1.66
1.80
2.11
2.62
3.28
3.97
4.57
5.01
5.29
5.47
5.58
5.64
5.62
5.47
5.16
4.70
4.15
3.59
3.07
2.59
2.08
1.47
0.73
-0.12
-0.99
-1.83
-2.70
-3.74
-5.15
-7.04
-9.35
-11.76
-13.82
-15.03
-15.12
-14.05
-12.04
-9.44
-6.63
-3.89
-1.44
0.56
1.99
2.78
2.98
2.76
2.41
2.19
2.33
2.87
3.68
4.57
5.34
5.87
6.20
6.41
6.62
6.88
7.20
7.52
7.77
7.87
7.80
7.51
7.02
6.36
5.56
4.67
3.70
2.65
1.54
0.43
-0.64
-1.64
-2.61
-3.68
-4.98
-6.59
-8.46
-10.44
-12.31
-13.84
-14.89
-15.34
-15.14
-14.30
-12.88
-11.01
-8.88
-6.66
-4.57
-2.73
-1.25
-0.16
0.54
0.90
1.02
1.04
1.13
1.43
2.02
2.85
3.79
4.60
5.11
5.20
4.94
4.49
4.03
3.72
3.60
3.64
3.72
3.75
3.64
3.37
2.96
2.42
1.79
1.05
0.21
-0.71
-1.65
-2.54
-3.37
-4.24
-5.33
-6.86
-8.90
-11.26
-13.49
-15.08
-15.63
-15.07
-13.64
-11.76
-9.81
-8.01
-6.38
-4.89
-3.57
-2.48
-1.74
-1.34
-1.14
-0.91
-0.45
0.32
1.32
2.43
3.50
4.44
5.23
5.85
6.27
6.48
6.55
6.56
6.62
6.76
6.91
6.89
6.52
5.73
4.56
3.16
1.75
0.47
-0.61
-1.51
-2.30
-3.14
-4.19
-5.58
-7.35
-9.39
-11.40
-13.00
-13.83
-13.64
-12.45
-10.47
-8.04
-5.51
-3.16
-1.14
0.50
1.74
2.65
3.28
3.73
4.12
4.53
5.00
5.54
6.10
6.59
6.97
7.20
7.34
7.43
7.52
7.66
7.82
7.99
8.13
8.21
8.20
8.03
7.65
6.99
6.04
4.89
3.72
2.72
1.99
1.47
0.95
0.19
-1.01
-2.69
-4.76
-7.06
-9.37
-11.51
-13.21
-14.23
-14.33
-13.41
-11.55
-9.06
-6.39
-3.90
-1.83
-0.21
1.03
2.01
2.81
3.45
3.95
4.34
4.63
4.84
5.01
5.17
5.41
5.82
6.47
7.37
8.39
9.38
10.12
10.51
10.50
10.15
9.57
8.84
7.98
6.99
5.86
4.62
3.37
2.27
1.44
0.84
0.31
-0.46
-1.75
-3.75
-6.36
-9.30
-12.12
-14.38
-15.82
-16.30
-15.88
-14.68
-12.86
-10.61
-8.15
-5.74
-3.64
-2.03
-0.97
-0.37
-0.05
0.17
0.41
0.69
1.00
1.35
1.79
2.40
3.19
4.16
5.16
6.05
6.66
6.87
6.68
6.16
5.47
4.77
4.19
3.76
3.43
3.04
2.45
1.62
0.57
-0.53
-1.54
-2.41
-3.19
-4.08
-5.32
-7.06
-9.29
-11.78
-14.13
-15.90
-16.72
-16.43
-15.09
-12.95
-10.33
-7.61
-5.07
-2.89
-1.13
0.29
1.47
2.50
3.39
4.06
4.40
4.40
4.21
4.08
4.30
5.00
6.10
7.35
8.42
9.14
9.51
9.65
9.64
9.42
8.85
7.79
6.26
4.51
2.92
1.81
1.28
1.16
1.11
0.73
-0.23
-1.87
-4.08
-6.68
-9.42
-12.02
-14.20
-15.64
-16.09
-15.40
-13.65
-11.09
-8.14
-5.22
-2.68
-0.61
1.04
2.40
3.56
4.54
5.27
5.73
6.00
6.23
6.62
7.30
8.23
9.31
10.35
11.24
11.92
12.39
12.69
12.78
12.66
12.28
11.65
10.79
9.75
8.54
7.18
5.64
3.94
2.13
0.33
-1.33
-2.83
-4.25
-5.80
-7.72
-10.15
-12.97
-15.84
-18.23
-19.61
-19.62
-18.19
-15.52
-12.02
-8.20
-4.50
-1.26
1.33
3.20
4.43
5.16
5.57
5.81
5.99
6.17
6.39
6.71
7.22
7.96
8.94
10.03
11.05
11.84
12.30
12.47
12.44
12.28
12.00
11.56
10.92
10.05
8.97
7.73
6.36
4.85
3.21
1.49
-0.26
-2.00
-3.72
-5.50
-7.47
-9.73
-12.32
-15.12
-17.89
-20.29
-21.96
-22.59
-21.98
-20.10
-17.14
-13.46
-9.53
-5.79
-2.58
-0.03
1.88
3.30
4.35
5.08
5.52
5.72
5.84
6.09
6.65
7.60
8.82
10.10
11.24
12.13
12.78
13.24
13.51
13.55
13.25
12.60
11.72
10.77
9.90
9.07
8.13
6.88
5.27
3.42
1.61
0.08
-1.14
-2.23
-3.55
-5.39
-7.88
-10.90
-14.13
-17.15
-19.54
-20.88
-20.91
-19.53
-16.95
-13.56
-9.91
-6.46
-3.48
-1.00
1.11
2.94
4.46
5.55
6.16
6.35
6.36
6.51
7.06
8.05
9.30
10.54
11.56
12.27
12.72
13.02
13.24
13.38
13.41
13.28
12.95
12.42
11.65
10.61
9.25
7.60
5.74
3.82
2.01
0.40
-1.02
-2.44
-4.11
-6.31
-9.15
-12.54
-16.15
-19.47
-21.99
-23.27
-23.09
-21.45
-18.53
-14.66
-10.26
-5.80
-1.70
1.71
4.33
6.20
7.49
8.39
9.02
9.45
9.76
10.02
10.36
10.87
11.57
12.39
13.19
13.83
14.26
14.48
14.55
14.50
14.34
14.05
13.61
13.02
12.31
11.45
10.38
8.99
7.25
5.18
2.95
0.75
-1.31
-3.19
-5.06
-7.13
-9.59
-12.49
-15.67
-18.76
-21.31
-22.84
-23.02
-21.73
-19.08
-15.41
-11.17
-6.81
-2.67
0.97
3.97
6.23
7.73
8.53
8.77
8.64
8.32
7.97
7.69
7.60
7.78
8.29
9.10
10.05
10.91
11.52
11.81
11.86
11.85
11.90
11.97
11.86
11.32
10.18
8.49
6.48
4.47
2.65
1.08
-0.40
-2.01
-3.93
-6.22
-8.82
-11.61
-14.46
-17.20
-19.66
-21.56
-22.55
-22.34
-20.76
-17.90
-14.10
-9.79
-5.48
-1.54
1.78
4.40
6.32
7.57
8.24
8.41
8.23
7.89
7.59
7.51
7.76
8.31
8.98
9.55
9.82
9.69
9.24
8.63
8.02
7.47
6.92
6.22
5.23
3.91
2.31
0.58
-1.13
-2.72
-4.19
-5.64
-7.25
-9.21
-11.68
-14.67
-18.02
-21.36
-24.22
-26.16
-26.91
-26.38
-24.68
-22.00
-18.59
-14.70
-10.64
-6.71
-3.21
-0.38
1.67
2.94
3.54
3.68
3.61
3.57
3.82
4.50
5.62
7.00
8.42
9.61
10.45
10.98
11.31
11.58
11.83
11.98
11.88
11.39
10.40
8.91
7.01
4.88
2.74
0.76
-0.95
-2.41
-3.80
-5.38
-7.42
-10.04
-13.10
-16.21
-18.77
-20.18
-20.06
-18.37
-15.44
-11.80
-7.97
-4.32
-0.99
2.01
4.67
6.86
8.44
9.25
9.33
8.89
8.28
7.80
7.66
7.92
8.52
9.34
10.26
11.19
12.02
12.68
13.08
13.15
12.86
12.25
11.35
10.24
8.97
7.59
6.13
4.61
3.04
1.40
-0.34
-2.21
-4.30
-6.70
-9.46
-12.52
-15.71
-18.64
-20.85
-21.89
-21.49
-19.67
-16.75
-13.25
-9.68
-6.34
-3.33
-0.59
1.92
4.15
5.91
7.03
7.43
7.26
6.77
6.33
6.20
6.58
7.50
8.81
10.27
11.56
12.41
12.66
12.32
11.56
10.61
9.62
8.63
7.57
6.35
4.90
3.30
1.66
0.09
-1.35
-2.69
-4.02
-5.45
-7.12
-9.12
-11.53
-14.32
-17.35
-20.27
-22.62
-23.89
-23.70
-21.96
-18.91
-15.06
-10.99
-7.17
-3.90
-1.24
0.80
2.26
3.19
3.67
3.84
3.90
4.05
4.41
4.99
5.74
6.61
7.53
8.41
9.14
9.61
9.71
9.50
9.11
8.71
8.43
8.25
7.99
7.42
6.41
4.89
3.01
0.95
-1.07
-2.90
-4.52
-6.03
-7.62
-9.50
-11.73
-14.21
-16.59
-18.42
-19.28
-18.90
-17.27
-14.63
-11.37
-7.94
-4.73
-1.98
0.21
1.85
3.05
3.91
4.56
5.06
5.49
5.89
6.30
6.75
7.21
7.65
8.03
8.36
8.66
8.98
9.32
9.63
9.85
9.94
9.86
9.57
8.97
7.95
6.44
4.48
2.25
0.04
-1.95
-3.68
-5.30
-7.06
-9.16
-11.63
-14.29
-16.83
-18.89
-20.15
-20.41
-19.58
-17.72
-15.02
-11.78
-8.32
-4.95
-1.88
0.74
2.87
4.53
5.80
6.77
7.52
8.08
8.47
8.68
8.78
8.89
9.16
9.65
10.30
10.93
11.37
11.57
11.54
11.39
11.17
10.87
10.41
9.73
8.80
7.69
6.46
5.15
3.71
2.08
0.15
-2.07
-4.53
-7.14
-9.86
-12.68
-15.61
-18.61
-21.45
-23.78
-25.11
-25.08
-23.50
-20.52
-16.60
-12.31
-8.20
-4.62
-1.74
0.47
2.12
3.30
4.09
4.56
4.80
4.92
5.11
5.48
6.12
6.96
7.86
8.60
9.06
9.22
9.20
9.19
9.30
9.55
9.80
9.85
9.51
8.71
7.49
5.99
4.37
2.79
1.34
0.05
-1.16
-2.45
-4.03
-6.09
-8.69
-11.64
-14.60
-17.06
-18.54
-18.75
-17.63
-15.33
-12.16
-8.52
-4.88
-1.68
0.73
2.19
2.83
2.93
2.83
2.74
2.71
2.66
2.54
2.43
2.54
3.07
4.08
5.38
6.68
7.66
8.20
8.39
8.44
8.50
8.60
8.61
8.33
7.65
6.62
5.41
4.19
3.04
1.88
0.51
-1.26
-3.50
-6.11
-8.92
-11.68
-14.23
-16.44
-18.18
-19.25
-19.45
-18.59
-16.60
-13.62
-9.97
-6.11
-2.49
0.59
2.99
4.77
6.04
6.90
7.42
7.65
7.70
7.76
8.07
8.80
9.95
11.31
12.58
13.46
13.84
13.82
13.59
13.37
13.23
13.09
12.76
12.06
10.91
9.37
7.65
5.99
4.54
3.30
2.16
0.88
-0.68
-2.57
-4.75
-7.14
-9.69
-12.37
-15.12
-17.73
-19.79
-20.81
-20.42
-18.49
-15.26
-11.24
-7.05
-3.20
0.03
2.55
4.41
5.75
6.65
7.22
7.51
7.60
7.60
7.66
7.93
8.54
9.50
10.72
11.97
12.98
13.58
13.74
13.62
13.44
13.36
13.40
13.36
12.97
12.01
10.41
8.30
5.95
3.64
1.61
-0.05
-1.41
-2.60
-3.84
-5.33
-7.19
-9.48
-12.12
-14.92
-17.58
-19.76
-21.14
-21.42
-20.50
-18.40
-15.40
-11.91
-8.44
-5.42
-3.07
-1.42
-0.26
0.64
1.53
2.50
3.52
4.52
5.36
6.00
6.47
6.88
7.37
8.01
8.78
9.56
10.16
10.45
10.38
10.02
9.49
8.84
8.04
6.96
5.53
3.77
1.87
0.05
-1.47
-2.64
-3.62
-4.66
-6.04
-7.93
-10.34
-13.11
-15.95
-18.54
-20.56
-21.76
-21.94
-21.07
-19.22
-16.60
-13.49
-10.17
-6.90
-3.85
-1.12
1.20
3.07
4.46
5.41
6.00
6.34
6.51
6.59
6.62
6.68
6.90
7.40
8.22
9.27
10.32
11.10
11.45
11.32
10.81
10.01
9.00
7.78
6.33
4.74
3.14
1.66
0.35
-0.87
-2.20
-3.86
-5.99
-8.60
-11.52
-14.51
-17.24
-19.39
-20.67
-20.91
-20.03
-18.13
-15.41
-12.15
-8.65
-5.18
-2.02
0.63
2.61
3.86
4.44
4.51
4.34
4.20
4.31
4.73
5.41
6.22
6.99
7.67
8.21
8.61
8.88
8.96
8.84
8.52
8.02
7.37
6.60
5.71
4.70
3.57
2.37
1.13
-0.13
-1.48
-3.05
-5.00
-7.44
-10.35
-13.52
-16.53
-18.81
-19.87
-19.41
-17.46
-14.38
-10.69
-6.87
-3.22
0.19
3.34
6.20
8.58
10.26
11.08
11.11
10.62
10.00
9.57
9.48
9.66
9.94
10.16
10.26
10.29
10.33
10.43
10.55
10.56
10.26
9.52
8.25
6.50
4.46
2.37
0.48
-1.11
-2.41
-3.66
-5.11
-7.03
-9.49
-12.44
-15.63
-18.68
-21.15
-22.58
-22.63
-21.18
-18.36
-14.58
-10.42
-6.45
-3.05
-0.37
1.66
3.21
4.42
5.37
6.04
6.43
6.56
6.59
6.68
6.98
7.52
8.14
8.65
8.88
8.82
8.59
8.40
8.34
8.33
8.16
7.56
6.44
4.89
3.19
1.61
0.26
-0.88
-2.00
-3.26
-4.77
-6.58
-8.73
-11.27
-14.13
-17.11
-19.73
-21.38
-21.54
-20.00
-16.97
-13.02
-8.81
-4.92
-1.70
0.74
2.42
3.42
3.88
3.99
4.02
4.20
4.67
5.45
6.41
7.38
8.24
8.91
9.39
9.71
9.93
10.12
10.35
10.60
10.77
10.64
9.98
8.69
6.83
4.69
2.66
1.02
-0.16
-1.09
-2.17
-3.80
-6.19
-9.24
-12.58
-15.68
-18.01
-19.19
-19.04
-17.57
-14.96
-11.51
-7.62
-3.71
-0.16
2.72
4.79
6.09
6.78
7.09
7.22
7.36
7.59
7.97
8.52
9.25
10.11
10.99
11.71
12.16
12.27
12.09
11.73
11.31
10.84
10.25
9.41
8.24
6.79
5.23
3.74
2.44
1.32
0.21
-1.11
-2.81
-4.95
-7.50
-10.35
-13.30
-16.11
-18.44
-19.91
-20.18
-19.05
-16.59
-13.09
-9.01
-4.83
-0.98
2.29
4.85
6.73
8.02
8.89
9.53
10.07
10.58
11.06
11.51
11.94
12.39
12.87
13.36
13.77
13.98
13.92
13.59
13.10
12.55
12.00
11.38
10.57
9.43
7.91
6.04
3.99
1.97
0.12
-1.49
-2.96
-4.43
-6.08
-8.05
-10.41
-13.19
-16.33
-19.62
-22.71
-25.11
-26.34
-26.06
-24.25
-21.21
-17.49
-13.67
-10.17
-7.19
-4.73
-2.69
-0.96
0.48
1.63
2.49
3.09
3.52
3.93
4.48
5.23
6.17
7.20
8.14
8.85
9.21
9.22
8.96
8.54
8.09
7.68
7.31
6.94
6.49
5.88
5.04
3.93
2.59
1.12
-0.32
-1.58
-2.57
-3.34
-4.11
-5.15
-6.72
-8.92
-11.66
-14.65
-17.47
-19.65
-20.79
-20.65
-19.15
-16.42
-12.76
-8.64
-4.52
-0.83
2.21
4.56
6.32
7.69
8.83
9.82
10.69
11.44
12.08
12.64
13.18
13.75
14.37
15.02
15.65
16.22
16.66
16.88
16.76
16.18
15.07
13.44
11.37
8.95
6.28
3.40
0.41
-2.59
-5.46
-8.05
-10.29
-12.19
-13.92
-15.69
-17.76
-20.30
-23.30
-26.55
-29.69
-32.27
-33.82
-33.92
-32.26
-28.69
-23.27
-16.26
-8.14
0.62
9.68
19.00
28.68
38.83
49.20
59.15
67.74
74.08
77.71
78.72
77.68
75.35
72.36
69.08
65.63
62.01
58.15
54.03
49.56
44.57
38.89
32.49
25.59
18.73
12.67
8.27
6.25
6.99
10.36
15.71
22.02
28.10
32.95
35.92
36.78
35.59
32.49
27.55
20.82
12.38
2.53
-8.17
-19.01
-29.35
-38.76
-47.12
-54.49
-61.02
-66.93
-72.43
-77.65
-82.70
-87.60
-92.18
-96.14
-99.11
-100.87
-101.35
-100.65
-98.90
-96.36
-93.40
-90.37
-87.44
-84.44
-80.90
-76.27
-70.11
-62.33
-53.43
-44.24
-35.39
-26.90
-18.17
-8.36
2.96
15.80
29.80
44.12
57.51
68.60
76.14
79.05
76.64
68.54
55.08
39.10
24.82
15.91
13.57
16.37
21.84
27.88
32.90
36.06
37.31
36.89
34.78
31.26
26.77
20.80
14.05
6.74
-1.28
-10.34
-20.73
-32.78
-45.53
-56.84
-64.09
-65.21
-59.97
-50.05
-38.45
-25.30
-12.81
-2.46
5.47
11.54
16.67
21.38
25.89
30.22
34.27
37.32
38.86
38.60
36.49
32.80
27.97
22.54
17.09
12.14
7.81
4.45
2.38
1.66
1.96
2.68
3.24
3.44
3.48
3.53
3.78
4.12
4.32
4.13
3.58
2.94
2.46
2.17
1.65
0.52
-1.24
-3.12
-4.07
-2.90
1.29
8.58
18.13
28.21
36.65
41.37
40.96
35.08
24.48
10.86
-3.79
-17.65
-29.52
-38.84
-45.53
-49.73
-51.60
-51.30
-49.07
-45.31
-40.64
-35.63
-30.70
-25.82
-20.59
-14.38
-6.67
2.69
13.35
24.56
35.34
44.73
52.04
56.89
59.23
59.31
57.60
54.63
50.91
46.76
42.26
37.34
31.92
26.06
19.95
13.86
7.97
2.27
-3.35
-9.02
-14.75
-20.42
-25.85
-30.90
-35.50
-39.68
-43.52
-47.14
-50.69
-54.38
-58.52
-63.35
-68.90
-74.79
-80.26
-84.27
-85.85
-84.46
-80.15
-73.58
-65.69
-57.44
-49.54
-42.37
-36.12
-30.90
-26.80
-23.91
-22.16
-21.32
-21.00
-20.78
-20.30
-19.39
-18.03
-16.31
-14.39
-12.49
-10.79
-9.47
-8.63
-8.32
-8.50
-9.11
-10.07
-11.32
-12.86
-14.76
-17.18
-20.31
-24.31
-29.16
-34.56
-39.83
-44.05
-46.21
-45.50
-41.61
-34.78
-25.80
-15.74
-5.67
3.53
11.31
17.34
21.53
23.93
24.74
24.33
23.12
21.55
20.00
18.74
17.93
17.68
17.97
18.66
19.43
19.93
19.82
18.95
17.38
15.32
12.93
10.28
7.31
3.85
-0.20
-4.94
-10.39
-16.55
-23.38
-30.62
-37.71
-43.76
-47.73
-48.72
-46.28
-40.58
-32.40
-22.80
-12.88
-3.50
4.72
11.44
16.46
19.75
21.46
21.90
21.54
20.91
20.47
20.52
21.17
22.37
23.90
25.48
26.84
27.77
28.17
28.06
27.50
26.55
25.22
23.56
21.60
19.36
16.82
13.80
10.04
5.35
-0.23
-6.29
-12.00
-16.31
-18.24
-17.10
-12.74
-5.55
3.61
13.66
23.47
32.13
39.01
43.89
46.84
48.14
48.22
47.46
46.23
44.79
43.31
41.93
40.68
39.64
38.81
38.23
37.84
37.53
37.11
36.38
35.12
33.19
30.55
27.30
23.59
19.60
15.44
11.08
6.42
1.30
-4.39
-10.54
-16.76
-22.34
-26.40
-28.07
-26.78
-22.38
-15.30
-6.33
3.48
13.14
21.85
29.08
34.59
38.39
40.63
41.58
41.54
40.81
39.67
38.33
37.01
35.88
35.03
34.50
34.22
34.03
33.79
33.33
32.52
31.24
29.39
26.89
23.78
20.21
16.42
12.65
9.04
5.53
1.89
-2.24
-7.12
-12.82
-19.04
-25.11
-30.06
-32.85
-32.66
-29.15
-22.56
-13.68
-3.61
6.54
15.83
23.62
29.57
33.54
35.62
36.08
35.36
34.05
32.70
31.71
31.20
31.07
31.01
30.77
30.24
29.49
28.72
28.10
27.63
27.12
26.28
24.87
22.83
20.26
17.31
14.08
10.56
6.73
2.58
-1.78
-6.21
-10.67
-15.31
-20.36
-25.90
-31.65
-36.83
-40.38
-41.26
-38.92
-33.45
-25.56
-16.32
-6.85
1.94
9.45
15.30
19.28
21.36
21.66
20.53
18.54
16.33
14.49
13.34
12.87
12.84
12.94
12.97
12.92
12.89
12.98
13.14
13.19
12.92
12.18
10.93
9.28
7.35
5.18
2.78
0.12
-2.80
-5.96
-9.41
-13.24
-17.56
-22.35
-27.28
-31.68
-34.64
-35.27
-33.00
-27.84
-20.37
-11.57
-2.55
5.75
12.70
18.01
21.61
23.57
24.06
23.33
21.75
19.73
17.65
15.76
14.16
12.80
11.65
10.70
10.00
9.57
9.32
9.00
8.36
7.17
5.42
3.22
0.81
-1.61
-3.91
-6.06
-8.09
-10.12
-12.35
-15.00
-18.23
-21.94
-25.70
-28.75
-30.21
-29.37
-25.98
-20.34
-13.18
-5.42
2.08
8.72
14.13
18.13
20.71
21.91
21.90
20.97
19.45
17.71
16.02
14.58
13.47
12.73
12.34
12.23
12.25
12.16
11.71
10.67
8.99
6.84
4.50
2.28
0.30
-1.58
-3.67
-6.28
-9.60
-13.56
-17.97
-22.61
-27.29
-31.77
-35.69
-38.48
-39.47
-38.12
-34.22
-28.03
-20.26
-11.81
-3.57
3.78
9.86
14.51
17.71
19.50
19.97
19.29
17.77
15.85
14.03
12.70
11.99
11.73
11.58
11.18
10.33
9.12
7.74
6.39
5.09
3.71
2.07
0.04
-2.33
-4.92
-7.61
-10.37
-13.31
-16.56
-20.28
-24.51
-29.16
-33.97
-38.49
-42.10
-44.14
-44.06
-41.60
-36.93
-30.63
-23.56
-16.59
-10.36
-5.21
-1.18
1.83
3.96
5.31
5.97
6.06
5.77
5.32
4.94
4.77
4.80
4.96
5.08
5.08
4.92
4.65
4.27
3.74
2.94
1.75
0.12
-1.85
-3.94
-5.95
-7.83
-9.69
-11.83
-14.54
-17.96
-21.90
-25.91
-29.33
-31.50
-31.89
-30.23
-26.58
-21.27
-14.87
-8.09
-1.65
3.86
8.08
10.96
12.62
13.42
13.68
13.65
13.48
13.19
12.78
12.24
11.62
10.98
10.41
9.99
9.77
9.70
9.68
9.51
8.98
7.92
6.29
4.17
1.79
-0.60
-2.84
-4.94
-7.14
-9.76
-13.11
-17.26
-21.94
-26.50
-30.10
-31.95
-31.57
-28.87
-24.18
-18.11
-11.34
-4.55
1.73
7.09
11.28
14.17
15.82
16.41
16.26
15.69
14.96
14.26
13.61
12.99
12.35
11.73
11.17
10.78
10.56
10.41
10.12
9.47
8.30
6.59
4.49
2.17
-0.21
-2.59
-5.03
-7.63
-10.50
-13.71
-17.30
-21.25
-25.42
-29.49
-32.93
-35.05
-35.21
-33.03
-28.61
-22.53
-15.66
-8.91
-2.90
2.06
5.96
8.91
11.03
12.33
12.86
12.70
12.10
11.38
10.89
10.87
11.38
12.30
13.32
14.11
14.42
14.15
13.43
12.47
11.48
10.48
9.36
7.89
5.89
3.33
0.32
-2.98
-6.45
-10.03
-13.77
-17.70
-21.85
-26.10
-30.26
-33.99
-36.86
-38.39
-38.18
-36.05
-32.16
-26.98
-21.12
-15.18
-9.58
-4.51
-0.10
3.53
6.23
7.86
8.46
8.24
7.62
7.00
6.65
6.61
6.71
6.78
6.72
6.62
6.63
6.87
7.31
7.77
7.94
7.56
6.45
4.64
2.30
-0.29
-2.87
-5.28
-7.51
-9.65
-11.93
-14.51
-17.51
-20.92
-24.61
-28.30
-31.56
-33.85
-34.61
-33.46
-30.30
-25.41
-19.35
-12.83
-6.50
-0.82
3.97
7.83
10.80
12.97
14.43
15.24
15.51
15.37
15.03
14.71
14.65
14.94
15.54
16.27
16.92
17.30
17.35
17.13
16.69
15.99
14.95
13.42
11.37
8.90
6.23
3.59
1.09
-1.27
-3.68
-6.36
-9.47
-13.09
-17.11
-21.28
-25.19
-28.32
-30.10
-30.06
-27.89
-23.65
-17.79
-11.02
-4.19
1.99
7.10
11.01
13.83
15.74
16.90
17.41
17.38
17.03
16.65
16.53
16.79
17.36
17.92
18.18
18.00
17.46
16.81
16.28
15.90
15.51
14.78
13.43
11.32
8.51
5.24
1.81
-1.53
-4.62
-7.44
-10.09
-12.75
-15.60
-18.78
-22.27
-25.95
-29.52
-32.52
-34.44
-34.78
-33.19
-29.64
-24.47
-18.33
-11.92
-5.85
-0.43
4.23
8.18
11.40
13.82
15.34
15.94
15.77
15.16
14.49
14.07
14.03
14.34
14.83
15.30
15.60
15.65
15.48
15.13
14.66
14.04
13.20
11.97
10.26
8.02
5.32
2.36
-0.64
-3.47
-6.04
-8.43
-10.83
-13.51
-16.65
-20.28
-24.29
-28.38
-32.13
-34.94
-36.17
-35.23
-31.82
-26.11
-18.79
-10.91
-3.53
2.65
7.37
10.85
13.39
15.25
16.44
16.92
16.74
16.15
15.54
15.26
15.45
15.96
16.46
16.66
16.36
15.64
14.71
13.82
13.15
12.73
12.37
11.80
10.68
8.82
6.22
3.11
-0.15
-3.24
-5.95
-8.28
-10.45
-12.71
-15.31
-18.36
-21.87
-25.69
-29.51
-32.83
-35.06
-35.61
-34.09
-30.44
-25.02
-18.44
-11.42
-4.57
1.74
7.28
11.98
15.73
18.42
19.98
20.43
20.03
19.19
18.36
17.90
17.95
18.41
19.02
19.45
19.50
19.10
18.36
17.43
16.45
15.50
14.51
13.39
12.06
10.46
8.54
6.35
3.90
1.27
-1.44
-4.11
-6.66
-9.04
-11.30
-13.60
-16.13
-19.07
-22.49
-26.28
-30.10
-33.43
-35.62
-36.08
-34.46
-30.80
-25.56
-19.50
-13.43
-8.01
-3.62
-0.32
2.01
3.53
4.42
4.86
5.03
5.18
5.50
6.08
6.90
7.82
8.65
9.26
9.62
9.82
9.98
10.20
10.52
10.85
11.02
10.88
10.28
9.21
7.73
5.98
4.12
2.27
0.48
-1.34
-3.35
-5.78
-8.75
-12.22
-15.87
-19.19
-21.54
-22.40
-21.47
-18.76
-14.55
-9.28
-3.44
2.47
8.00
12.76
16.44
18.88
20.11
20.30
19.73
18.74
17.59
16.43
15.29
14.11
12.81
11.32
9.65
7.88
6.09
4.35
2.69
1.06
-0.62
-2.42
-4.38
-6.46
-8.57
-10.56
-12.32
-13.82
-15.16
-16.50
-18.07
-20.04
-22.51
-25.38
-28.39
-31.05
-32.74
-32.84
-30.98
-27.13
-21.73
-15.53
-9.32
-3.73
0.90
4.53
7.21
9.04
10.11
10.50
10.36
9.95
9.52
9.29
9.40
9.81
10.43
11.11
11.71
12.13
12.29
12.18
11.83
11.26
10.50
9.48
8.17
6.53
4.64
2.61
0.59
-1.40
-3.43
-5.72
-8.46
-11.72
-15.32
-18.83
-21.71
-23.41
-23.53
-21.94
-18.79
-14.47
-9.48
-4.38
0.44
4.70
8.28
11.17
13.36
14.85
15.66
15.85
15.57
15.07
14.60
14.35
14.36
14.55
14.72
14.66
14.30
13.72
13.16
12.81
12.74
12.73
12.39
11.32
9.37
6.70
3.75
0.98
-1.34
-3.27
-5.17
-7.44
-10.38
-13.98
-17.90
-21.62
-24.55
-26.23
-26.37
-24.92
-22.00
-17.88
-12.89
-7.43
-1.95
3.07
7.26
10.37
12.39
13.52
14.03
14.17
14.10
13.92
13.71
13.61
13.75
14.17
14.77
15.30
15.55
15.43
15.03
14.51
14.01
13.46
12.67
11.44
9.65
7.42
4.98
2.61
0.51
-1.31
-2.94
-4.59
-6.51
-8.95
-12.00
-15.61
-19.46
-23.03
-25.71
-26.94
-26.37
-23.92
-19.82
-14.52
-8.61
-2.76
2.46
6.62
9.53
11.23
12.00
12.17
12.10
12.03
12.08
12.24
12.45
12.65
12.81
12.92
13.02
13.11
13.20
13.20
13.07
12.73
12.13
11.29
10.21
8.91
7.39
5.65
3.74
1.76
-0.16
-1.94
-3.59
-5.26
-7.21
-9.63
-12.57
-15.86
-19.16
-22.01
-24.05
-25.00
-24.70
-23.09
-20.22
-16.24
-11.49
-6.44
-1.64
2.40
5.37
7.18
7.95
7.88
7.24
6.30
5.30
4.49
4.12
4.38
5.34
6.89
8.73
10.50
11.87
12.70
13.04
13.12
13.17
13.31
13.44
13.31
12.70
11.47
9.76
7.84
6.02
4.51
3.32
2.28
1.12
-0.41
-2.42
-4.85
-7.52
-10.18
-12.56
-14.40
-15.42
-15.44
-14.30
-12.00
-8.72
-4.76
-0.51
3.61
7.25
10.15
12.14
13.22
13.50
13.22
12.65
12.05
11.58
11.29
11.18
11.20
11.33
11.50
11.65
11.72
11.67
11.47
11.08
10.41
9.32
7.64
5.34
2.57
-0.36
-3.12
-5.43
-7.21
-8.61
-9.89
-11.31
-13.06
-15.20
-17.67
-20.29
-22.80
-24.87
-26.13
-26.27
-25.09
-22.57
-18.92
-14.54
-9.96
-5.74
-2.39
-0.22
0.71
0.54
-0.41
-1.75
-3.10
-4.21
-4.95
-5.34
-5.42
-5.30
-5.03
-4.61
-3.99
-3.16
-2.21
-1.29
-0.66
-0.50
-0.92
-1.84
-3.08
-4.45
-5.80
-7.13
-8.48
-9.97
-11.64
-13.46
-15.37
-17.24
-18.92
-20.18
-20.75
-20.34
-18.73
-15.90
-12.11
-7.80
-3.48
0.43
3.72
6.34
8.36
9.81
10.69
10.97
10.65
9.86
8.76
7.59
6.51
5.66
5.11
4.90
4.99
5.25
5.50
5.53
5.19
4.50
3.52
2.42
1.32
0.25
-0.84
-2.07
-3.53
-5.33
-7.49
-9.98
-12.61
-15.04
-16.77
-17.30
-16.26
-13.61
-9.72
-5.21
-0.77
3.07
6.07
8.30
9.97
11.28
12.33
13.03
13.27
12.98
12.24
11.20
10.12
9.24
8.69
8.49
8.51
8.54
8.35
7.75
6.62
4.99
3.01
0.90
-1.11
-2.90
-4.50
-6.10
-7.95
-10.30
-13.27
-16.75
-20.45
-23.87
-26.42
-27.52
-26.79
-24.14
-19.85
-14.51
-8.82
-3.45
1.13
4.73
7.35
9.11
10.14
10.55
10.42
9.84
8.90
7.76
6.56
5.48
4.66
4.15
3.91
3.82
3.70
3.41
2.85
2.00
0.86
-0.57
-2.28
-4.26
-6.49
-8.94
-11.62
-14.65
-18.17
-22.27
-26.75
-31.11
-34.59
-36.37
-35.88
-32.98
-28.07
-21.89
-15.37
-9.29
-4.17
-0.19
2.71
4.75
6.18
7.17
7.80
8.12
8.17
8.07
8.01
8.19
8.66
9.34
9.98
10.35
10.32
9.93
9.36
8.76
8.19
7.58
6.71
5.40
3.47
0.89
-2.30
-5.96
-9.94
-14.05
-18.01
-21.41
-23.76
-24.48
-23.17
-19.72
-14.47
-8.11
-1.47
4.68
9.89
14.03
17.21
19.60
21.27
22.19
22.31
21.70
20.58
19.30
18.20
17.48
17.14
17.03
16.92
16.62
16.03
15.08
13.70
11.87
9.60
6.98
4.17
1.41
-1.19
-3.66
-6.18
-9.04
-12.47
-16.46
-20.72
-24.62
-27.36
-28.21
-26.73
-22.98
-17.47
-11.00
-4.44
1.59
6.79
11.14
14.74
17.66
19.90
21.37
22.08
22.18
21.94
21.67
21.58
21.69
21.88
21.94
21.76
21.33
20.67
19.84
18.80
17.46
15.72
13.58
11.05
8.28
5.39
2.48
-0.38
-3.20
-6.08
-9.19
-12.73
-16.78
-21.12
-25.21
-28.20
-29.27
-27.90
-24.11
-18.49
-11.91
-5.29
0.75
5.97
10.40
14.14
17.30
19.87
21.83
23.24
24.19
24.84
25.37
25.86
26.32
26.73
26.98
27.01
26.76
26.25
25.52
24.65
23.66
22.47
20.95
18.97
16.45
13.46
10.19
6.90
3.84
1.18
-1.07
-3.03
-4.95
-7.12
-9.82
-13.24
-17.37
-21.95
-26.46
-30.18
-32.38
-32.55
-30.58
-26.78
-21.76
-16.14
-10.44
-4.88
0.43
5.40
9.86
13.54
16.23
17.95
18.97
19.69
20.51
21.59
22.86
24.09
25.07
25.67
25.91
25.85
25.57
25.11
24.49
23.73
22.87
21.92
20.86
19.60
18.06
16.22
14.13
11.91
9.69
7.51
5.33
3.10
0.77
-1.64
-4.08
-6.46
-8.78
-11.17
-13.81
-16.94
-20.63
-24.74
-28.86
-32.39
-34.67
-35.21
-33.85
-30.75
-26.38
-21.29
-16.00
-10.88
-6.14
-1.87
1.84
4.89
7.21
8.78
9.68
10.10
10.29
10.49
10.87
11.43
12.08
12.61
12.87
12.78
12.39
11.87
11.39
11.08
10.94
10.86
10.65
10.19
9.41
8.35
7.09
5.64
4.03
2.21
0.19
-1.97
-4.14
-6.17
-7.93
-9.41
-10.70
-12.00
-13.54
-15.48
-17.87
-20.57
-23.22
-25.33
-26.40
-26.09
-24.34
-21.32
-17.42
-13.06
-8.59
-4.28
-0.32
3.13
5.93
8.03
9.49
10.49
11.22
11.86
12.48
13.09
13.64
14.14
14.61
15.06
15.48
15.79
15.91
15.78
15.42
14.86
14.13
13.16
11.87
10.22
8.25
6.09
3.95
1.99
0.30
-1.16
-2.49
-3.78
-5.06
-6.36
-7.69
-9.14
-10.84
-12.95
-15.50
-18.35
-21.15
-23.41
-24.59
-24.32
-22.51
-19.37
-15.37
-11.06
-6.85
-3.04
0.29
3.08
5.29
6.87
7.80
8.15
8.12
7.95
7.86
7.95
8.26
8.72
9.30
9.93
10.56
11.09
11.41
11.47
11.25
10.82
10.24
9.55
8.70
7.62
6.27
4.70
3.02
1.32
-0.39
-2.15
-4.02
-6.00
-7.96
-9.78
-11.44
-13.09
-15.04
-17.56
-20.69
-24.14
-27.35
-29.70
-30.73
-30.28
-28.42
-25.42
-21.57
-17.19
-12.60
-8.14
-4.11
-0.78
1.74
3.47
4.54
5.11
5.37
5.44
5.41
5.37
5.39
5.49
5.68
5.93
6.19
6.39
6.43
6.27
5.89
5.31
4.65
4.00
3.41
2.80
2.00
0.84
-0.76
-2.71
-4.74
-6.62
-8.17
-9.44
-10.64
-12.03
-13.81
-16.03
-18.59
-21.32
-24.00
-26.41
-28.31
-29.41
-29.41
-28.09
-25.42
-21.57
-16.92
-12.01
-7.31
-3.23
0.06
2.54
4.35
5.66
6.59
7.22
7.60
7.80
8.01
8.42
9.22
10.40
11.78
13.04
13.86
14.08
13.81
13.26
12.65
12.05
11.33
10.29
8.82
6.95
4.89
2.90
1.12
-0.44
-1.88
-3.39
-5.12
-7.21
-9.75
-12.72
-15.98
-19.20
-21.89
-23.48
-23.52
-21.83
-18.58
-14.23
-9.39
-4.62
-0.33
3.34
6.40
8.91
10.95
12.55
13.73
14.51
15.01
15.32
15.55
15.72
15.81
15.81
15.73
15.61
15.48
15.33
15.10
14.71
14.07
13.11
11.81
10.16
8.19
5.92
3.38
0.56
-2.51
-5.82
-9.37
-13.10
-16.97
-20.94
-24.98
-29.01
-32.90
-36.33
-38.90
-40.18
-39.84
-37.83
-34.36
-29.85
-24.81
-19.63
-14.59
-9.83
-5.45
-1.55
1.74
4.30
6.07
7.12
7.65
8.00
8.47
9.29
10.51
11.94
13.32
14.39
15.03
15.28
15.29
15.21
15.06
14.75
14.13
13.08
11.53
9.55
7.22
4.67
2.02
-0.60
-3.07
-5.34
-7.43
-9.49
-11.77
-14.54
-17.91
-21.73
-25.57
-28.71
-30.46
-30.32
-28.20
-24.49
-19.83
-14.96
-10.38
-6.37
-2.91
0.09
2.71
4.98
6.91
8.50
9.79
10.83
11.69
12.38
12.97
13.46
13.88
14.26
14.61
14.96
15.31
15.64
15.83
15.76
15.29
14.36
13.08
11.62
10.17
8.81
7.47
6.02
4.35
2.40
0.23
-2.10
-4.59
-7.30
-10.26
-13.42
-16.57
-19.39
-21.50
-22.54
-22.30
-20.71
-17.89
-14.13
-9.78
-5.23
-0.79
3.31
6.96
10.09
12.66
14.63
16.01
16.82
17.14
17.13
16.99
16.94
17.13
17.59
18.25
18.91
19.36
19.49
19.29
18.84
18.22
17.44
16.42
15.04
13.25
11.10
8.74
6.35
4.05
1.89
-0.19
-2.26
-4.39
-6.65
-9.08
-11.75
-14.65
-17.74
-20.80
-23.50
-25.38
-25.99
-24.99
-22.30
-18.20
-13.22
-8.05
-3.31
0.65
3.80
6.29
8.39
10.20
11.74
12.92
13.68
14.07
14.27
14.47
14.78
15.21
15.65
15.99
16.14
16.13
16.08
16.14
16.37
16.72
16.97
16.83
16.04
14.55
12.49
10.21
8.05
6.23
4.77
3.48
2.11
0.45
-1.59
-3.97
-6.62
-9.48
-12.52
-15.65
-18.61
-21.01
-22.34
-22.20
-20.48
-17.36
-13.29
-8.78
-4.27
-0.02
3.86
7.29
10.18
12.41
13.85
14.49
14.42
13.88
13.18
12.62
12.44
12.72
13.40
14.27
15.09
15.63
15.81
15.69
15.37
14.96
14.44
13.71
12.61
11.08
9.18
7.03
4.78
2.49
0.20
-2.10
-4.38
-6.59
-8.67
-10.65
-12.68
-14.97
-17.75
-21.06
-24.71
-28.28
-31.17
-32.82
-32.87
-31.27
-28.36
-24.65
-20.74
-17.11
-13.96
-11.30
-9.02
-7.02
-5.26
-3.79
-2.67
-1.87
-1.23
-0.59
0.18
1.09
1.96
2.61
2.90
2.84
2.61
2.37
2.22
2.11
1.88
1.38
0.53
-0.60
-1.92
-3.29
-4.66
-5.97
-7.17
-8.20
-8.96
-9.39
-9.48
-9.30
-8.96
-8.67
-8.64
-9.07
-10.00
-11.25
-12.38
-12.71
-11.50
-8.24
-2.80
4.49
12.87
21.44
29.38
36.17
41.69
46.07
49.56
52.35
54.48
55.84
56.35
56.05
55.20
54.20
53.40
52.87
52.37
51.50
49.87
47.45
44.56
41.78
39.67
38.40
37.75
37.15
35.99
33.93
31.08
27.91
24.96
22.49
20.38
18.17
15.35
11.65
7.17
2.23
-2.82
-7.88
-13.00
-18.28
-23.51
-28.09
-31.20
-32.21
-30.97
-27.98
-24.20
-20.62
-17.93
-16.27
-15.43
-15.06
-14.88
-14.79
-14.83
-15.07
-15.52
-16.11
-16.81
-17.59
-18.38
-19.08
-19.47
-19.31
-18.49
-17.08
-15.37
-13.79
-12.73
-12.41
-12.84
-13.85
-15.15
-16.42
-17.35
-17.76
-17.68
-17.37
-17.29
-17.98
-19.74
-22.53
-25.83
-28.81
-30.62
-30.64
-28.72
-25.13
-20.43
-15.25
-10.08
-5.23
-0.92
2.66
5.29
6.80
7.12
6.41
5.06
3.52
2.21
1.33
0.95
0.97
1.29
1.83
2.45
2.92
2.92
2.16
0.47
-2.06
-5.13
-8.29
-11.13
-13.43
-15.20
-16.60
-17.93
-19.50
-21.61
-24.47
-28.12
-32.36
-36.69
-40.38
-42.61
-42.76
-40.61
-36.43
-30.90
-24.85
-19.10
-14.17
-10.33
-7.61
-5.89
-5.04
-4.96
-5.57
-6.80
-8.49
-10.30
-11.79
-12.48
-12.03
-10.42
-7.89
-4.88
-1.85
0.86
3.05
4.62
5.43
5.36
4.35
2.52
0.18
-2.25
-4.38
-6.05
-7.41
-8.87
-10.96
-14.07
-18.19
-22.87
-27.18
-30.04
-30.58
-28.41
-23.72
-17.21
-9.82
-2.45
4.15
9.55
13.65
16.70
19.18
21.73
24.95
29.21
34.55
40.77
47.56
54.70
62.12
69.83
77.67
85.21
91.66
96.11
97.80
96.30
91.65
84.21
74.54
63.22
50.80
37.82
24.80
12.18
0.20
-11.09
-21.78
-31.81
-40.84
-48.14
-52.88
-54.43
-52.62
-47.83
-40.66
-31.70
-21.36
-9.98
1.87
13.20
22.70
29.06
31.45
29.74
24.59
17.04
8.11
-1.41
-11.04
-20.35
-28.83
-36.00
-41.48
-45.20
-47.33
-48.04
-47.28
-44.66
-39.69
-32.13
-22.24
-10.87
0.79
11.67
21.06
28.65
34.38
38.27
40.23
40.36
39.10
37.28
36.02
36.26
38.42
42.17
46.58
50.50
52.99
53.56
52.21
49.24
44.99
39.67
33.38
26.07
17.74
8.52
-1.30
-11.15
-20.36
-28.37
-34.90
-40.10
-44.51
-48.75
-53.24
-58.08
-62.99
-67.61
-71.64
-74.98
-77.54
-79.05
-78.93
-76.36
-70.67
-61.69
-49.98
-36.85
-23.93
-12.79
-4.48
0.73
3.23
3.81
3.33
2.47
1.65
1.08
0.79
0.75
0.89
1.20
1.76
2.75
4.38
6.76
9.62
12.46
14.71
15.98
16.15
15.47
14.37
13.33
12.60
12.08
11.45
10.43
8.94
7.08
5.01
2.88
0.71
-1.50
-4.04
-7.07
-10.38
-13.52
-16.10
-18.01
-19.42
-20.65
-21.91
-23.98
-27.18
-31.04
-34.39
-36.00
-35.17
-31.74
-26.03
-18.61
-11.82
-7.59
-6.49
-7.42
-8.65
-8.66
-6.39
-1.20
7.01
15.29
20.77
22.38
21.21
18.94
16.35
12.94
7.08
-3.54
-24.36
-58.79
-105.71
-159.24
-211.73
-256.80
-290.61
-311.75
-300.58
-247.14
-158.13
-55.05
40.44
115.71
166.30
192.63
198.34
189.65
170.81
146.36
120.83
98.17
79.97
65.61
54.39
47.39
47.07
52.00
59.72
66.65
70.09
69.07
64.77
60.55
60.28
65.82
73.86
78.38
73.40
56.71
30.63
0.86
-25.85
-44.22
-52.21
-52.09
-45.94
-37.81
-31.55
-30.16
-35.38
-47.67
-66.35
-89.80
-116.13
-142.98
-168.05
-189.06
-204.55
-214.48
-220.35
-224.38
-228.25
-232.11
-234.23
-232.06
-223.19
-206.55
-182.97
-154.70
-124.34
-93.85
-64.13
-35.35
-7.63
18.77
43.57
66.84
89.21
111.87
136.31
163.91
195.36
230.19
266.49
300.94
329.45
348.16
354.77
349.25
333.86
312.15
287.59
262.56
238.00
213.94
190.26
167.34
146.03
127.14
110.93
96.90
84.08
71.70
59.63
48.42
39.09
32.35
28.20
25.76
23.66
20.56
15.75
9.36
2.16
-4.85
-10.87
-15.52
-18.80
-20.93
-22.27
-23.00
-23.06
-22.18
-20.35
-17.87
-15.26
-13.11
-11.89
-11.91
-13.03
-14.65
-15.76
-15.59
-13.74
-10.23
-5.44
0.01
5.07
9.03
11.79
14.18
16.81
20.14
24.29
29.17
34.58
39.46
43.43
47.29
53.30
62.09
73.29
85.82
98.88
111.99
122.97
130.20
133.33
134.11
131.08
121.87
104.17
77.58
43.53
1.77
-45.94
-94.95
-136.84
-168.97
-192.15
-209.94
-225.95
-243.16
-267.24
-300.55
-340.08
-375.96
-403.98
-423.09
-435.31
-443.14
-423.59
-368.30
-290.03
-233.78
-200.85
-182.50
-162.14
-133.77
-97.84
-60.54
-34.67
-29.04
-42.43
-60.60
-70.91
-64.16
-38.33
3.09
53.12
102.23
145.95
186.86
233.93
290.36
354.07
418.43
476.38
522.61
552.79
566.33
566.03
557.67
543.44
523.58
497.46
465.76
430.71
394.64
360.35
330.45
307.08
289.19
274.00
258.29
240.05
218.97
195.94
172.76
151.22
132.50
115.79
99.13
80.23
57.83
32.17
4.90
-21.63
-45.55
-66.29
-84.91
-103.59
-124.62
-149.28
-177.23
-206.76
-235.49
-261.57
-284.54
-305.46
-326.65
-350.95
-380.90
-417.95
-461.41
-507.80
-550.71
-581.85
-592.98
-578.29
-536.50
-471.63
-392.32
-309.57
-233.72
-171.65
-125.33
-92.22
-67.42
-46.37
-26.86
-9.34
4.40
13.09
16.89
16.64
12.00
-0.09
-24.55
-65.16
-120.98
-184.67
-244.24
-287.63
-307.65
-304.65
-285.56
-260.05
-236.20
-217.89
-205.02
-195.33
-186.54
-177.34
-167.32
-156.47
-144.83
-132.49
-119.48
-105.41
-88.87
-67.74
-40.04
-5.35
34.57
76.32
116.60
153.84
188.90
224.34
262.90
306.29
354.77
407.48
462.65
517.44
567.50
607.32
631.44
636.36
622.00
591.89
551.95
508.33
465.74
426.78
392.33
362.40
336.70
314.85
296.16
279.45
263.30
246.49
228.50
209.69
191.06
173.69
158.21
144.53
131.92
119.38
106.17
92.13
77.77
64.01
51.83
41.82
34.06
28.19
23.58
19.71
16.31
13.41
11.21
9.83
9.19
8.92
8.53
7.52
5.62
2.80
-0.79
-4.93
-9.61
-14.99
-21.40
-29.03
-37.80
-47.20
-56.49
-64.93
-72.24
-78.70
-85.16
-92.62
-101.73
-112.34
-123.53
-133.93
-142.37
-148.57
-153.36
-158.48
-165.84
-176.58
-190.50
-206.08
-221.21
-234.29
-244.97
-254.52
-265.09
-278.82
-297.04
-320.18
-348.02
-379.77
-413.59
-445.84
-471.25
-484.44
-482.74
-468.36
-448.60
-433.10
-429.63
-440.35
-461.19
-484.51
-503.44
-515.16
-521.21
-524.85
-527.63
-527.56
-520.17
-501.51
-470.96
-432.11
-391.08
-353.80
-323.26
-298.96
-277.99
-257.20
-235.04
-212.08
-190.30
-171.57
-156.55
-144.31
-132.90
-120.32
-105.45
-88.50
-70.75
-53.88
-39.17
-26.98
-16.70
-7.10
3.03
14.32
26.55
38.91
50.37
60.20
68.33
75.37
82.31
90.12
99.28
109.67
120.63
131.35
141.26
150.30
159.02
168.30
179.02
191.58
205.82
221.03
236.40
251.36
265.89
280.46
295.75
312.33
330.64
351.04
373.93
399.47
426.93
453.92
476.32
489.21
488.63
473.08
444.00
404.75
358.83
308.46
254.52
197.89
141.12
89.14
48.21
23.56
17.06
26.44
46.55
71.76
98.17
124.20
149.81
174.71
197.34
215.10
225.63
228.15
224.11
216.41
208.03
200.79
195.14
190.75
187.38
185.21
184.66
185.57
186.96
187.24
184.97
179.79
172.85
166.57
163.69
165.96
172.89
181.40
186.56
183.25
168.09
140.73
103.85
61.89
19.22
-21.29
-58.63
-92.93
-124.38
-152.44
-175.76
-192.68
-201.83
-202.58
-195.04
-180.18
-159.96
-137.33
-115.78
-98.52
-87.56
-82.91
-82.82
-84.53
-85.52
-84.45
-81.34
-77.12
-72.90
-69.34
-66.45
-63.91
-61.40
-58.96
-56.93
-55.79
-55.87
-57.21
-59.61
-62.76
-66.25
-69.62
-72.28
-73.58
-72.96
-70.28
-66.01
-61.28
-57.68
-56.76
-59.43
-65.63
-74.31
-83.78
-92.29
-98.55
-102.00
-102.78
-101.42
-98.51
-94.55
-89.83
-84.56
-79.00
-73.51
-68.49
-64.13
-60.26
-56.51
-52.49
-47.98
-43.02
-37.87
-32.77
-27.84
-23.07
-18.58
-14.69
-11.87
-10.34
-9.83
-9.52
-8.29
-5.32
-0.62
4.78
9.29
11.38
10.32
6.37
0.54
-5.97
-12.34
-18.25
-23.80
-29.09
-34.02
-38.35
-41.93
-44.95
-47.98
-51.74
-56.68
-62.75
-69.22
-74.95
-78.60
-79.05
-75.65
-68.43
-57.98
-45.18
-30.87
-15.51
0.89
18.53
37.42
57.08
76.57
94.70
110.51
123.55
133.79
141.37
146.24
148.13
146.67
141.78
133.77
123.37
111.58
99.33
87.33
75.95
65.22
54.99
45.00
35.01
25.05
15.36
6.43
-1.22
-7.32
-11.96
-15.56
-18.73
-21.92
-25.32
-28.89
-32.56
-36.33
-40.27
-44.25
-47.75
-49.93
-50.05
-47.86
-43.86
-38.87
-33.45
-27.54
-20.54
-11.98
-2.20
7.47
15.21
19.77
21.13
20.55
19.77
20.00
21.35
23.07
24.17
24.18
23.20
21.67
19.90
17.90
15.64
13.38
11.85
11.97
14.31
18.70
24.18
29.47
33.53
35.94
36.91
37.00
36.72
36.31
35.76
34.91
33.59
31.63
28.91
25.42
21.33
17.08
13.29
10.66
9.71
10.63
13.29
17.33
22.31
27.81
33.48
39.04
44.21
48.64
52.02
54.07
54.66
53.94
52.37
50.66
49.50
49.41
50.48
52.42
54.77
57.16
59.48
61.99
65.08
69.13
74.24
80.12
86.10
91.11
93.95
93.44
88.75
79.69
66.79
51.20
34.36
17.69
2.37
-10.59
-20.31
-26.09
-27.64
-25.28
-20.11
-13.66
-7.42
-2.37
1.25
3.77
5.57
6.77
7.02
5.79
2.60
-2.65
-9.65
-17.70
-25.99
-33.73
-40.39
-45.76
-50.01
-53.60
-57.09
-60.94
-65.42
-70.56
-76.25
-82.36
-88.72
-95.27
-101.95
-108.71
-115.49
-122.17
-128.48
-133.99
-137.97
-139.65
-138.39
-134.03
-127.16
-118.95
-110.85
-104.02
-98.88
-94.98
-91.34
-86.92
-81.12
-73.99
-66.05
-57.86
-49.73
-41.66
-33.60
-25.63
-18.10
-11.44
-5.82
-1.00
3.67
8.97
15.34
22.60
29.95
36.18
40.22
41.46
40.04
36.80
32.99
29.83
28.12
27.98
28.84
29.72
29.66
28.11
25.13
21.32
17.49
14.30
11.97
10.24
8.53
6.24
3.01
-1.17
-5.94
-10.84
-15.45
-19.49
-22.90
-25.66
-27.75
-29.07
-29.40
-28.47
-26.03
-22.01
-16.65
-10.44
-4.18
1.27
4.99
6.11
3.91
-1.85
-10.54
-20.44
-28.89
-33.12
-31.23
-23.12
-10.74
2.68
13.82
20.48
22.06
19.23
13.10
4.61
-5.62
-16.84
-27.85
-37.04
-43.08
-45.71
-46.01
-46.02
-47.69
-51.79
-57.26
-61.52
-61.43
-54.48
-39.78
-18.17
8.01
35.65
61.61
83.37
99.41
109.46
114.37
115.86
115.86
116.00
117.05
118.83
120.44
120.69
118.74
114.37
108.06
100.74
93.31
86.37
80.12
74.44
69.15
64.25
59.84
56.06
52.89
50.06
47.10
43.51
38.95
33.45
27.34
21.07
14.95
8.99
3.03
-2.99
-8.71
-13.25
-15.50
-14.59
-10.30
-3.12
5.94
15.86
25.96
35.86
45.15
53.08
58.37
59.63
55.94
47.39
35.27
21.80
9.43
0.24
-4.61
-4.88
-1.10
5.81
14.77
24.71
34.65
43.64
50.76
55.28
56.73
55.01
50.45
43.87
36.40
29.36
23.94
21.04
21.00
23.67
28.49
34.79
41.94
49.52
57.38
65.85
75.92
89.38
108.65
136.09
172.98
218.31
268.23
316.40
355.49
379.40
385.06
373.32
348.28
315.65
280.77
247.19
216.35
188.09
161.60
136.14
111.35
87.06
63.12
39.23
15.00
-9.86
-35.55
-62.18
-89.81
-118.53
-148.44
-179.55
-211.72
-244.71
-278.25
-312.31
-347.42
-384.81
-426.27
-473.44
-526.68
-583.90
-640.12
-688.03
-719.84
-729.51
-714.65
-677.40
-623.81
-562.18
-500.84
-446.28
-402.20
-369.44
-346.61
-330.87
-318.69
-306.35
-290.42
-268.34
-238.84
-202.40
-161.24
-118.55
-77.56
-40.45
-7.64
22.05
50.70
80.56
113.53
150.80
192.50
237.11
280.94
318.49
343.88
352.95
345.10
323.69
294.68
264.26
236.90
214.57
197.51
185.50
178.60
176.87
179.36
183.47
185.38
181.34
169.30
149.65
124.83
98.24
73.01
51.21
33.73
20.56
11.11
4.64
0.52
-1.62
-1.80
0.15
4.43
11.06
19.73
29.98
41.39
53.83
67.47
82.67
99.80
119.06
140.46
163.66
187.89
211.80
233.60
251.34
263.42
269.06
268.31
261.88
250.66
235.47
217.11
196.54
175.00
153.79
133.83
115.22
97.20
78.72
59.20
39.15
20.14
4.26
-6.70
-11.96
-12.10
-8.87
-4.75
-2.04
-2.15
-5.19
-9.79
-13.79
-15.06
-12.46
-6.26
1.86
9.30
13.30
11.61
2.97
-12.59
-33.60
-57.13
-79.27
-95.96
-104.26
-103.22
-94.18
-80.12
-64.56
-50.35
-39.25
-32.20
-29.96
-33.65
-44.63
-63.90
-90.98
-123.63
-157.88
-189.44
-214.93
-232.84
-243.73
-249.53
-252.49
-253.91
-253.62
-250.39
-242.90
-230.74
-214.94
-197.70
-181.38
-167.56
-156.39
-146.94
-137.83
-127.91
-116.45
-103.15
-88.06
-71.61
-54.86
-39.42
-26.89
-18.04
-12.03
-6.66
0.79
12.14
27.69
45.94
64.39
80.58
93.10
102.00
108.53
114.44
121.35
130.13
140.54
151.22
159.87
163.59
159.65
146.25
123.40
93.39
60.40
29.32
4.18
-13.14
-23.24
-28.49
-31.65
-34.60
-37.70
-39.95
-39.75
-35.62
-26.98
-14.53
-0.27
12.89
21.82
24.09
18.61
5.79
-12.43
-33.10
-52.66
-67.68
-75.65
-75.76
-69.25
-59.28
-49.72
-43.54
-41.51
-41.67
-40.02
-32.26
-15.69
9.44
39.76
69.77
93.43
105.86
104.70
90.80
68.07
42.39
19.94
5.51
1.14
5.71
15.37
24.75
28.86
24.82
12.77
-4.21
-21.51
-34.64
-40.81
-39.45
-31.98
-20.76
-8.28
3.33
12.30
16.93
16.08
9.69
-0.78
-12.93
-24.86
-36.36
-48.81
-63.33
-78.26
-88.51
-87.47
-71.05
-40.95
-4.68
27.52
47.21
51.25
42.30
26.70
10.78
-1.26
-7.27
-5.87
3.74
20.51
40.61
58.33
68.59
68.94
60.49
47.16
33.80
23.68
16.57
9.48
-0.82
-15.67
-34.69
-56.67
-80.65
-105.50
-128.25
-144.30
-152.59
-157.65
-165.21
-177.44
-192.02
-203.76
-208.14
-201.50
-184.29
-160.93
-137.25
-117.61
-103.21
-91.98
-85.51
-82.96
-82.81
-84.29
-87.20
-90.75
-92.87
-91.03
-83.70
-71.19
-54.66
-36.00
-17.40
-0.29
15.43
31.22
48.88
69.52
92.98
118.78
145.96
173.36
200.10
226.11
252.36
280.46
311.85
346.90
384.57
421.65
452.96
472.52
475.24
458.30
421.73
367.95
300.77
224.88
145.15
66.79
-4.75
-64.23
-107.77
-133.99
-144.42
-142.97
-134.39
-122.82
-110.98
-100.18
-91.12
-84.56
-81.56
-82.98
-88.84
-97.78
-107.09
-113.31
-113.26
-105.14
-89.40
-68.81
-47.71
-30.66
-20.86
-19.15
-23.84
-31.79
-39.70
-45.37
-48.17
-48.78
-48.39
-47.88
-47.35
-46.39
-44.59
-42.04
-39.57
-38.20
-38.44
-39.84
-41.00
-40.31
-36.72
-30.27
-21.72
-11.88
-0.83
12.18
28.06
47.01
67.92
88.44
105.74
117.62
123.10
122.54
117.60
110.46
103.35
97.94
95.11
94.81
96.28
98.41
100.15
100.84
100.19
98.15
94.78
90.12
84.09
76.59
67.48
56.71
44.51
31.59
19.09
8.41
0.74
-3.44
-4.63
-4.08
-3.29
-3.42
-4.92
-7.57
-10.86
-14.36
-17.96
-21.73
-25.73
-29.80
-33.62
-36.89
-39.64
-42.34
-45.68
-50.11
-55.40
-60.52
-64.06
-64.98
-63.32
-60.27
-57.55
-56.29
-56.17
-55.36
-51.46
-42.89
-29.83
-14.40
0.21
10.86
15.50
13.36
4.87
-8.68
-25.30
-42.42
-57.11
-66.71
-69.68
-66.13
-57.90
-47.76
-38.41
-31.46
-27.15
-24.55
-22.20
-18.74
-13.35
-5.91
3.02
12.12
19.64
23.74
23.40
19.08
12.87
8.03
7.80
14.15
27.02
44.41
63.09
79.50
90.73
95.04
92.23
83.67
72.20
61.53
55.35
56.18
64.47
78.15
93.03
104.05
106.94
99.79
83.81
63.07
43.03
28.75
23.22
26.85
38.11
54.74
74.76
96.57
118.55
138.50
153.83
162.40
163.52
158.49
150.02
141.14
134.02
129.36
126.41
123.38
118.00
107.95
91.27
66.61
33.48
-7.75
-55.83
-108.55
-162.54
-213.28
-255.74
-285.83
-301.95
-305.86
-301.90
-295.02
-288.21
-281.34
-271.66
-255.95
-232.83
-203.73
-172.41
-143.16
-119.09
-101.34
-89.26
-81.26
-75.44
-70.02
-63.54
-54.99
-43.82
-30.05
-14.10
3.12
20.39
36.17
48.75
56.53
58.37
54.03
44.45
31.69
18.65
8.41
3.59
5.61
14.15
27.00
40.57
50.97
55.45
53.42
46.66
38.37
31.64
27.99
26.95
26.55
24.63
20.08
13.40
6.21
0.33
-3.09
-3.77
-1.99
1.92
7.79
15.33
23.82
31.78
37.38
38.91
35.56
27.69
16.63
4.24
-7.65
-17.60
-24.73
-28.70
-29.67
-28.24
-25.40
-22.33
-20.18
-19.79
-21.49
-24.96
-29.33
-33.47
-36.47
-37.93
-38.20
-38.16
-38.84
-40.86
-44.07
-47.56
-50.05
-50.52
-48.59
-44.72
-39.77
-34.58
-29.51
-24.42
-18.80
-12.08
-3.80
6.20
17.88
30.91
44.58
57.89
69.63
78.69
84.51
87.20
87.33
85.57
82.42
78.03
72.50
66.01
58.83
51.06
42.48
32.69
21.41
9.04
-3.48
-14.93
-24.61
-32.75
-40.36
-48.54
-57.78
-67.67
-77.32
-86.21
-94.93
-105.22
-119.26
-138.62
-163.52
-192.56
-222.99
-251.35
-274.03
-287.77
-290.25
-280.46
-258.86
-227.32
-188.51
-144.94
-98.45
-50.18
-1.15
46.92
91.30
128.97
157.69
177.14
188.98
196.04
200.86
204.67
207.31
208.04
206.63
203.97
201.93
202.39
206.36
213.41
221.98
229.88
235.04
235.94
231.80
222.64
208.98
191.70
171.79
150.13
127.45
104.49
82.12
61.40
43.55
29.43
19.19
12.05
6.60
1.26
-4.98
-12.27
-20.08
-27.59
-34.37
-40.39
-45.77
-50.41
-53.68
-54.74
-52.94
-48.41
-42.12
-35.74
-31.04
-29.46
-31.67
-37.44
-45.49
-53.81
-60.13
-62.59
-60.44
-54.26
-45.57
-36.11
-27.19
-19.63
-14.23
-12.19
-15.03
-23.97
-38.78
-57.30
-75.93
-91.02
-100.30
-103.64
-102.60
-99.39
-95.72
-92.48
-89.99
-88.63
-88.93
-91.31
-95.50
-100.50
-105.00
-108.19
-110.12
-111.68
-113.73
-116.22
-117.73
-115.66
-107.12
-89.84
-62.59
-25.19
21.59
76.05
135.36
195.38
250.89
296.67
328.91
346.50
351.33
347.77
341.17
336.27
335.96
340.57
348.04
354.73
356.48
349.92
333.41
307.44
274.30
237.10
198.75
161.25
125.67
92.33
60.98
30.81
0.26
-32.66
-69.50
-110.05
-151.47
-188.49
-215.03
-226.31
-220.56
-199.58
-167.96
-131.64
-96.63
-68.20
-50.52
-46.21
-55.73
-77.10
-106.09
-137.40
-166.37
-190.16
-208.02
-220.53
-228.40
-231.76
-230.32
-224.28
-214.98
-204.87
-196.52
-191.36
-188.90
-186.69
-181.43
-170.38
-152.48
-128.88
-102.47
-76.96
-55.67
-40.59
-32.16
-29.41
-30.57
-33.86
-38.05
-42.73
-48.17
-54.89
-63.28
-73.35
-84.92
-97.69
-111.27
-124.76
-136.37
-143.37
-142.92
-133.54
-116.49
-96.10
-78.57
-69.56
-71.84
-84.20
-102.25
-120.65
-135.11
-143.48
-145.20
-140.12
-127.65
-106.71
-76.55
-37.47
8.88
59.86
112.29
162.92
208.58
246.40
274.01
289.79
293.16
284.75
266.33
240.85
212.21
184.75
162.33
147.11
138.87
135.07
131.97
126.05
115.28
99.44
79.95
59.09
39.51
23.53
12.80
7.73
7.26
9.17
10.81
10.11
6.37
0.44
-5.80
-10.34
-11.85
-10.12
-5.95
-0.75
3.86
6.66
7.15
5.60
2.85
-0.09
-2.42
-3.91
-5.22
-7.75
-13.42
-23.87
-39.83
-60.54
-83.78
-106.63
-126.33
-141.15
-150.61
-154.95
-154.52
-149.26
-138.88
-123.32
-103.40
-80.91
-58.20
-37.25
-19.17
-3.89
9.38
21.61
33.31
44.20
53.44
59.97
63.14
63.01
60.57
57.45
55.43
55.82
59.03
64.74
72.10
80.10
87.82
94.59
99.90
103.01
103.04
99.07
91.00
79.80
67.09
54.65
43.79
35.06
27.83
21.06
13.46
4.58
-5.12
-15.14
-25.35
-36.13
-47.99
-61.89
-78.21
-96.95
-116.60
-134.33
-147.15
-152.68
-149.95
-139.35
-123.15
-103.92
-88.96
-85.82
-96.43
-115.65
-136.13
-153.91
-165.49
-173.54
-179.50
-183.29
-182.91
-175.30
-161.93
-144.63
-126.07
-108.54
-93.70
-81.39
-70.64
-59.65
-46.74
-31.48
-14.53
2.54
18.43
32.33
44.81
56.93
70.14
85.69
104.01
125.00
147.78
171.08
192.91
211.13
223.55
228.93
227.54
221.10
212.29
203.50
196.08
190.02
184.66
179.38
174.18
169.65
166.21
163.68
161.16
157.59
152.59
146.91
142.11
139.76
140.54
143.68
147.24
148.79
146.38
139.28
128.22
115.09
102.43
92.77
87.95
88.54
93.46
99.99
104.27
102.43
91.68
71.38
43.13
10.22
-23.43
-54.29
-79.64
-97.59
-106.83
-106.68
-97.39
-80.55
-59.05
-36.57
-16.61
-1.64
7.34
10.63
9.41
5.25
-0.19
-5.45
-9.40
-11.58
-12.18
-11.95
-11.70
-11.91
-12.69
-14.07
-16.60
-21.41
-29.90
-42.90
-59.99
-79.29
-97.99
-113.35
-123.58
-128.27
-128.13
-124.41
-118.31
-110.65
-101.91
-92.53
-83.07
-74.32
-67.09
-61.99
-59.27
-58.85
-60.47
-63.97
-69.26
-76.18
-84.18
-92.22
-99.05
-103.89
-106.99
-109.76
-114.26
-122.16
-133.77
-147.68
-161.08
-170.72
-173.96
-169.64
-158.27
-141.82
-123.00
-104.53
-88.48
-75.86
-66.70
-60.45
-56.43
-54.13
-53.16
-53.02
-52.99
-52.22
-49.93
-45.57
-38.81
-29.22
-16.27
0.64
21.77
46.77
74.62
103.95
133.52
162.45
190.09
215.69
238.19
256.41
269.59
277.92
282.56
285.14
286.88
287.86
286.90
282.26
272.66
258.39
241.20
223.63
207.65
193.46
179.14
161.47
137.27
104.63
63.63
16.16
-34.33
-83.00
-123.99
-151.07
-159.24
-146.57
-115.61
-73.12
-28.17
10.87
38.72
54.04
58.48
54.61
44.33
28.43
7.30
-18.00
-45.26
-71.72
-95.26
-115.05
-131.84
-147.05
-161.71
-175.49
-186.71
-192.87
-191.87
-183.20
-168.30
-150.45
-133.65
-121.24
-114.80
-113.78
-115.99
-118.77
-120.24
-119.84
-118.19
-116.17
-114.11
-111.38
-106.84
-99.48
-89.13
-76.63
-63.36
-50.78
-39.81
-30.78
-23.55
-17.65
-12.54
-7.66
-2.57
2.99
8.95
14.98
20.70
25.89
30.63
35.17
39.76
44.35
48.63
52.09
54.35
55.36
55.27
54.35
52.66
50.02
46.21
41.17
35.18
28.81
22.64
17.00
11.91
7.19
2.74
-1.38
-4.98
-7.96
-10.46
-12.82
-15.30
-17.84
-19.88
-20.62
-19.33
-15.80
-10.38
-3.86
2.87
9.09
14.36
18.40
20.97
21.84
20.94
18.54
15.38
12.45
10.69
10.57
12.01
14.48
17.25
19.80
21.84
23.41
24.75
26.15
27.86
30.03
32.60
35.24
37.38
38.29
37.28
33.97
28.46
21.36
13.67
6.43
0.42
-4.19
-7.96
-11.86
-16.95
-23.82
-32.28
-41.40
-49.93
-56.72
-61.02
-62.57
-61.42
-58.06
-53.42
-48.86
-45.87
-45.70
-48.91
-54.99
-62.44
-69.06
-72.91
-72.96
-69.28
-62.58
-53.65
-42.88
-30.24
-15.57
1.26
19.53
37.65
53.96
67.55
78.80
88.92
99.19
110.13
122.31
135.01
146.64
155.72
161.86
165.71
168.09
169.30
168.98
168.79
169.65
171.38
173.20
174.90
177.12
180.67
185.95
192.82
204.15
220.56
239.63
257.26
270.57
279.31
284.97
289.29
293.14
300.56
312.02
323.77
330.05
326.90
314.20
294.38
270.61
217.45
129.27
22.37
-76.23
-149.03
-193.59
-215.20
-220.80
-216.40
-206.41
-189.26
-165.95
-138.51
-110.76
-86.14
-65.63
-48.80
-35.06
-24.11
-12.64
0.29
12.00
21.93
28.21
30.53
29.58
26.27
21.37
17.62
16.46
17.51
19.07
19.19
17.25
13.45
8.31
2.35
-2.89
-6.58
-8.81
-10.46
-12.85
-16.53
-21.56
-27.60
-34.14
-40.24
-45.35
-49.50
-53.33
-57.96
-64.19
-72.31
-82.08
-92.81
-103.72
-114.24
-124.33
-134.56
-146.03
-159.66
-175.87
-194.32
-214.13
-234.41
-254.64
-275.05
-296.34
-319.43
-345.00
-373.54
-405.65
-442.07
-483.10
-527.42
-571.18
-608.22
-631.76
-636.99
-622.93
-592.62
-551.40
-504.46
-455.23
-405.56
-357.12
-312.60
-275.60
-248.72
-231.57
-220.01
-207.54
-188.31
-159.79
-123.58
-84.09
-46.03
-11.96
18.35
47.30
77.66
111.04
147.00
183.27
216.49
243.44
262.25
273.07
278.14
281.13
285.78
294.64
308.00
323.85
338.46
347.49
346.87
333.57
305.91
263.96
209.85
147.63
82.72
20.81
-33.37
-76.98
-109.22
-130.96
-144.05
-150.46
-151.97
-149.96
-145.43
-139.06
-131.19
-121.65
-109.86
-95.08
-76.64
-54.31
-28.41
0.32
31.18
63.98
99.22
137.62
179.13
221.94
262.20
294.86
315.42
321.79
315.28
300.13
281.70
264.37
250.16
238.48
227.13
213.69
196.63
175.64
151.43
125.20
98.33
72.23
48.24
27.47
10.56
-2.51
-12.46
-20.31
-26.96
-32.72
-37.24
-39.58
-38.66
-33.68
-24.57
-12.10
2.26
16.65
29.44
39.64
47.02
51.99
55.24
57.47
59.14
60.55
61.89
63.27
64.73
66.19
67.44
68.27
68.57
68.43
68.06
67.66
67.30
66.82
65.87
64.03
60.93
56.41
50.70
44.37
38.17
32.81
28.57
25.21
22.18
18.89
15.19
11.52
8.73
7.53
8.01
9.54
11.05
11.84
12.24
13.85
19.00
29.81
47.21
70.40
96.87
122.64
142.99
153.17
149.48
130.43
97.74
56.29
13.03
-25.05
-53.01
-69.04
-74.25
-71.23
-62.59
-50.07
-34.63
-17.11
1.27
19.00
34.78
47.84
57.82
64.28
66.16
61.88
49.79
28.86
-1.05
-39.25
-84.49
-135.09
-188.81
-242.92
-294.58
-341.63
-383.23
-419.75
-451.95
-479.73
-501.44
-514.21
-515.37
-503.82
-480.81
-449.38
-413.02
-374.52
-335.46
-296.54
-258.32
-221.61
-187.26
-155.63
-126.13
-97.35
-67.56
-35.53
-1.16
34.56
69.99
103.60
134.65
163.43
191.04
219.16
249.74
284.66
324.99
369.70
414.70
452.88
475.89
477.25
455.19
413.67
360.72
305.12
253.13
207.19
166.79
130.60
98.17
69.94
46.21
25.86
6.35
-15.03
-39.50
-66.12
-92.39
-115.86
-135.35
-151.29
-164.95
-177.19
-187.61
-194.53
-195.79
-189.79
-176.19
-156.22
-132.08
-106.35
-81.32
-58.53
-38.60
-21.08
-4.67
12.80
33.10
56.71
82.30
107.24
128.41
143.66
152.34
155.43
155.22
153.95
152.78
151.65
149.98
147.14
143.04
137.79
131.38
124.34
116.81
108.41
98.73
87.99
76.88
66.62
57.83
50.16
44.71
41.57
39.26
35.71
30.24
23.55
18.92
19.62
27.61
47.44
80.18
121.07
161.23
192.18
207.30
206.26
191.38
166.44
143.21
130.93
130.90
137.47
143.59
142.60
135.49
125.77
118.14
126.58
160.43
217.34
285.45
352.02
406.34
448.82
482.90
452.91
334.62
150.78
-46.50
-216.54
-326.24
-395.28
-436.72
-456.23
-455.41
-432.22
-385.53
-324.05
-263.55
-218.30
-198.43
-201.70
-222.06
-252.54
-279.52
-292.43
-289.02
-273.69
-252.02
-230.31
-209.54
-190.82
-175.24
-158.08
-133.93
-101.01
-61.85
-21.00
15.73
46.27
70.08
88.07
104.34
122.35
141.94
159.67
171.59
174.84
170.23
160.11
146.98
133.27
120.09
106.70
91.52
73.46
52.37
29.09
4.12
-22.88
-52.66
-85.61
-121.06
-157.11
-190.48
-216.43
-230.29
-228.84
-211.23
-179.06
-136.26
-88.22
-41.30
-0.82
31.36
55.94
75.11
91.04
105.35
118.49
129.83
137.32
139.31
137.33
134.20
132.54
133.32
136.43
140.51
143.24
140.53
128.13
104.80
70.28
24.77
-30.95
-93.67
-157.95
-208.97
-233.55
-238.76
-234.64
-228.54
-220.37
-210.40
-197.45
-179.92
-158.18
-137.32
-125.11
-126.35
-141.67
-166.61
-192.91
-210.43
-210.32
-188.86
-149.46
-100.05
-47.40
3.87
51.44
93.89
130.02
159.38
181.15
194.10
198.04
195.66
191.00
187.49
186.48
186.93
188.09
188.87
188.03
184.94
180.80
177.80
178.04
182.42
181.37
169.26
146.62
119.64
95.36
78.37
70.31
70.65
78.86
89.13
97.23
100.06
95.63
82.72
61.19
32.16
-2.28
-37.93
-73.76
-108.10
-138.99
-164.68
-184.79
-200.34
-212.85
-224.36
-235.89
-251.23
-271.65
-295.18
-317.99
-337.22
-352.22
-363.81
-374.24
-360.81
-312.48
-236.22
-151.43
-74.79
-13.38
32.65
65.65
86.40
93.44
85.93
64.49
34.11
3.62
-17.53
-22.60
-0.02
46.63
104.50
156.44
190.90
206.39
209.25
208.06
209.01
214.51
224.21
237.05
252.45
270.50
290.84
310.66
324.52
326.45
312.77
283.13
242.16
196.38
151.66
114.19
86.82
68.74
56.82
47.63
38.09
26.96
14.43
1.28
-11.50
-23.55
-35.09
-46.98
-60.27
-76.45
-96.42
-120.04
-146.46
-174.39
-202.93
-231.67
-260.75
-290.74
-322.92
-359.02
-400.84
-449.33
-503.27
-558.29
-606.77
-639.49
-648.71
-631.08
-589.07
-529.95
-462.80
-395.33
-331.96
-273.76
-219.89
-169.39
-122.11
-78.52
-38.92
-2.82
31.00
63.70
95.86
127.21
156.85
183.81
207.70
228.94
248.52
267.52
286.43
304.82
321.37
334.42
342.67
345.68
344.07
339.05
331.75
322.60
311.04
295.81
275.63
249.88
219.21
185.55
151.71
120.66
94.85
75.77
63.76
58.28
58.18
62.12
68.87
77.61
88.10
100.59
115.54
133.25
153.61
175.85
198.64
220.30
239.09
253.57
262.97
267.29
267.35
264.39
259.33
252.20
241.96
226.94
205.86
178.72
147.07
113.45
80.33
49.00
19.25
-10.23
-41.25
-75.56
-114.42
-158.30
-206.22
-254.90
-298.56
-329.93
-342.70
-334.33
-307.72
-270.61
-232.66
-201.54
-180.35
-167.47
-158.90
-150.81
-141.04
-128.92
-114.10
-95.63
-72.24
-43.80
-12.52
16.96
39.57
52.34
55.99
54.29
52.07
52.80
57.08
63.03
67.42
68.28
66.02
62.75
60.41
58.83
55.45
46.05
26.50
-7.17
-56.01
-117.06
-183.76
-247.61
-299.71
-332.33
-340.96
-326.14
-297.05
-265.80
-242.05
-229.43
-225.72
-224.87
-219.74
-205.15
-179.86
-151.45
-128.42
-115.06
-110.39
-111.44
-115.92
-122.27
-129.03
-134.50
-143.10
-158.25
-179.42
-203.07
-226.76
-250.92
-276.85
-304.99
-296.16
-229.37
-116.20
7.43
112.05
188.21
239.73
274.61
299.40
317.69
324.53
315.99
294.03
266.10
240.05
220.15
207.60
201.18
198.39
191.77
175.52
149.93
120.17
92.26
69.70
54.19
45.48
41.98
38.57
31.19
19.34
5.76
-3.73
-8.26
-8.12
-4.68
-0.13
1.92
-1.03
-9.31
-21.66
-36.95
-55.79
-77.06
-98.70
-116.95
-127.44
-126.36
-112.31
-87.44
-57.24
-29.05
-7.69
4.86
9.77
10.43
10.89
14.87
25.57
46.74
76.50
114.71
159.52
206.02
246.06
269.57
267.84
237.43
182.35
112.92
43.18
-15.32
-56.99
-82.03
-93.69
-94.54
-84.20
-59.81
-18.68
39.38
109.52
182.41
247.17
294.66
319.94
323.02
307.59
279.10
243.19
204.05
164.01
125.13
90.33
63.29
47.00
42.11
46.04
54.00
60.82
62.45
58.47
52.01
47.10
45.15
43.34
35.81
16.82
-16.22
-62.98
-118.15
-172.62
-217.15
-246.32
-259.30
-258.51
-247.32
-228.87
-208.87
-191.79
-178.96
-169.36
-161.96
-155.80
-149.78
-142.23
-132.01
-123.50
-121.49
-127.76
-141.19
-160.50
-184.41
-211.54
-239.21
-239.01
-196.99
-125.70
-51.28
9.58
52.97
81.45
98.16
106.73
110.29
107.45
97.50
82.19
66.32
52.47
40.24
26.01
7.00
-17.36
-47.60
-80.44
-108.40
-123.61
-123.25
-101.28
-61.79
-12.57
38.00
81.44
112.85
131.95
141.64
145.27
145.78
144.44
142.81
142.28
142.50
142.75
142.53
141.71
139.35
133.99
122.82
104.14
77.82
45.30
9.98
-23.15
-48.79
-63.25
-65.62
-58.86
-47.58
-36.40
-28.22
-23.41
-20.35
-16.96
-12.24
-6.82
-2.47
-0.41
-0.47
-1.33
-1.66
-1.13
-0.44
-0.32
-0.55
0.33
4.17
11.95
22.81
34.32
43.32
47.31
45.12
36.76
23.03
5.08
-15.59
-36.91
-56.29
-71.43
-81.25
-86.27
-88.34
-89.45
-90.39
-90.46
-88.03
-81.96
-72.47
-61.23
-50.55
-42.45
-37.96
-37.04
-38.98
-42.76
-47.34
-51.69
-54.83
-55.97
-54.68
-51.05
-45.73
-39.72
-33.94
-29.10
-25.50
-22.97
-20.95
-18.62
-15.07
-9.71
-2.85
4.28
9.78
11.80
9.50
3.34
-4.99
-13.16
-19.04
-21.27
-19.34
-13.49
-4.40
7.02
19.73
32.64
44.78
55.47
64.40
71.54
77.06
81.20
84.23
86.37
87.63
87.75
86.12
82.06
75.24
66.06
55.51
44.81
34.79
25.66
17.21
9.31
2.29
-3.14
-6.25
-6.81
-5.30
-2.75
-0.34
1.08
1.15
-0.00
-2.00
-4.51
-7.40
-10.68
-14.27
-17.77
-20.44
-21.42
-20.13
-16.66
-11.87
-6.96
-2.95
-0.15
1.93
4.21
7.33
11.20
14.99
17.56
17.94
15.93
12.11
7.65
3.94
2.00
2.19
4.16
7.04
9.90
12.08
13.28
13.44
12.52
10.32
6.64
1.62
-4.06
-9.38
-13.24
-14.98
-14.55
-12.45
-9.27
-5.42
-0.97
4.21
10.16
16.64
23.07
28.73
32.97
35.43
36.13
35.40
33.65
31.36
28.90
26.60
24.76
23.59
23.16
23.30
23.58
23.47
22.57
20.77
18.23
15.17
11.78
8.08
3.99
-0.51
-5.33
-10.30
-15.31
-20.34
-25.37
-30.32
-34.89
-38.68
-41.42
-43.10
-44.10
-45.03
-46.39
-48.42
-51.00
-53.75
-56.09
-57.27
-56.45
-52.78
-45.74
-35.38
-22.47
-8.30
5.63
18.16
28.61
36.76
42.72
46.64
48.81
49.71
49.91
50.08
50.66
51.70
52.86
53.70
53.87
53.39
52.46
51.41
50.37
49.38
48.30
47.05
45.56
43.86
41.98
39.88
37.45
34.57
31.10
26.87
21.57
14.84
6.17
-4.77
-17.98
-33.04
-49.10
-65.21
-80.56
-94.52
-106.72
-116.94
-124.92
-130.40
-133.20
-133.25
-130.68
-125.84
-119.39
-112.19
-105.28
-99.58
-95.74
-93.97
-94.04
-95.44
-97.62
-100.14
-102.62
-104.75
-106.11
-106.21
-104.68
-101.33
-96.20
-89.30
-80.18
-67.61
-49.69
-24.47
8.98
49.64
94.28
137.99
175.83
204.45
223.03
233.06
237.29
238.23
237.17
234.33
229.60
223.47
217.16
211.86
207.68
203.21
195.92
183.53
165.31
142.46
117.43
92.53
68.83
46.15
23.94
2.30
-17.47
-33.27
-43.46
-47.78
-47.68
-45.64
-44.02
-44.21
-46.22
-49.06
-51.38
-52.23
-51.29
-48.90
-45.71
-42.31
-38.88
-35.30
-31.35
-26.95
-22.55
-18.84
-16.51
-15.79
-16.36
-17.63
-19.27
-21.64
-25.61
-32.09
-41.22
-52.00
-62.56
-70.94
-75.96
-77.70
-77.19
-75.75
-74.28
-72.86
-71.11
-68.54
-64.91
-60.18
-54.36
-47.26
-38.63
-28.54
-17.48
-6.46
3.30
10.91
16.02
18.91
20.21
20.62
20.63
20.55
20.50
20.54
20.74
21.09
21.58
22.15
22.80
23.48
24.10
24.41
24.11
22.96
20.90
18.16
15.09
12.06
9.21
6.54
3.87
1.02
-2.12
-5.55
-9.19
-12.97
-16.81
-20.71
-24.63
-28.52
-32.22
-35.53
-38.22
-39.99
-40.52
-39.43
-36.37
-31.17
-24.03
-15.58
-6.72
1.50
8.26
13.18
16.32
18.09
18.94
19.20
18.99
18.48
17.82
17.36
17.39
17.95
18.80
19.46
19.49
18.69
17.21
15.49
14.02
13.10
12.70
12.47
11.88
10.46
8.01
4.66
0.87
-2.77
-5.83
-8.27
-10.37
-12.65
-15.50
-19.06
-23.07
-27.10
-30.60
-33.15
-34.35
-33.82
-31.31
-26.70
-20.24
-12.47
-4.12
4.11
11.74
18.49
24.17
28.60
31.61
33.15
33.40
32.74
31.69
30.69
30.09
30.12
30.92
32.55
34.88
37.48
39.71
40.90
40.65
38.96
36.21
32.88
29.31
25.57
21.56
17.14
12.26
6.94
1.28
-4.66
-10.73
-16.69
-22.17
-26.82
-30.49
-33.35
-35.85
-38.54
-41.83
-45.68
-49.61
-52.68
-53.74
-51.80
-46.44
-38.07
-27.90
-17.61
-8.78
-2.29
1.74
3.86
4.82
5.19
5.21
4.89
4.28
3.51
2.86
2.48
2.34
2.21
1.78
0.91
-0.38
-1.79
-2.96
-3.57
-3.48
-2.79
-1.86
-1.10
-0.88
-1.41
-2.70
-4.62
-7.02
-9.82
-12.93
-16.25
-19.60
-22.70
-25.47
-27.98
-30.53
-33.46
-36.78
-40.15
-42.82
-43.89
-42.59
-38.57
-31.91
-23.16
-13.14
-2.82
6.88
15.27
21.93
26.81
30.05
31.83
32.28
31.43
29.42
26.64
23.66
21.09
19.26
18.11
17.27
16.32
15.03
13.53
12.03
10.67
9.31
7.55
5.04
1.60
-2.60
-7.17
-11.69
-15.86
-19.53
-22.68
-25.21
-27.00
-27.90
-27.97
-27.52
-27.08
-27.11
-27.73
-28.60
-29.11
-28.55
-26.52
-22.90
-17.86
-11.61
-4.25
4.20
13.53
23.22
32.43
40.15
45.61
48.48
48.94
47.56
45.03
41.95
38.78
35.81
33.21
31.13
29.71
29.04
29.15
29.91
31.01
32.07
32.62
32.32
30.97
28.62
25.51
21.93
18.16
14.36
10.62
6.93
3.30
-0.24
-3.67
-6.97
-10.27
-13.74
-17.52
-21.59
-25.61
-28.94
-30.77
-30.45
-27.63
-22.48
-15.56
-7.72
0.25
7.74
14.35
19.84
24.01
26.69
27.76
27.25
25.40
22.67
19.65
16.93
14.93
13.88
13.78
14.40
15.40
16.38
16.95
16.83
15.89
14.28
12.32
10.39
8.74
7.36
6.02
4.43
2.42
0.07
-2.35
-4.67
-6.93
-9.40
-12.38
-16.01
-20.11
-24.29
-28.15
-31.42
-33.96
-35.59
-36.00
-34.70
-31.29
-25.70
-18.33
-9.99
-1.67
5.87
12.23
17.34
21.27
24.02
25.45
25.36
23.74
20.97
17.80
15.22
13.92
14.11
15.31
16.71
17.52
17.39
16.52
15.43
14.61
14.16
13.77
12.93
11.26
8.77
5.84
2.93
0.36
-1.95
-4.27
-6.91
-9.97
-13.36
-16.77
-19.95
-22.81
-25.45
-28.10
-31.01
-34.25
-37.57
-40.46
-42.16
-41.88
-39.06
-33.55
-25.77
-16.58
-7.09
1.72
9.19
15.11
19.57
22.78
24.87
25.84
25.67
24.45
22.45
20.14
18.00
16.40
15.47
15.17
15.35
15.82
16.43
16.98
17.23
16.93
15.88
14.11
11.80
9.26
6.76
4.44
2.25
0.06
-2.34
-5.04
-8.07
-11.35
-14.68
-17.81
-20.57
-22.91
-24.97
-27.02
-29.31
-31.98
-34.92
-37.86
-40.33
-41.84
-41.86
-39.87
-35.48
-28.62
-19.66
-9.55
0.48
9.18
15.67
19.64
21.34
21.35
20.35
18.89
17.40
16.15
15.30
14.88
14.79
14.88
15.03
15.19
15.38
15.56
15.56
15.18
14.26
12.83
11.09
9.27
7.57
5.95
4.23
2.21
-0.25
-3.08
-6.03
-8.86
-11.34
-13.39
-15.09
-16.66
-18.42
-20.70
-23.74
-27.53
-31.74
-35.74
-38.76
-40.11
-39.34
-36.23
-30.85
-23.44
-14.44
-4.51
5.54
14.84
22.64
28.54
32.45
34.59
35.31
34.94
33.75
31.98
29.90
27.81
26.01
24.66
23.79
23.24
22.71
21.87
20.53
18.64
16.37
13.96
11.64
9.48
7.39
5.22
2.85
0.32
-2.23
-4.62
-6.81
-8.91
-11.18
-13.77
-16.79
-20.19
-23.87
-27.75
-31.82
-35.91
-39.67
-42.43
-43.35
-41.79
-37.58
-31.14
-23.46
-15.66
-8.63
-2.78
1.91
5.73
8.89
11.45
13.35
14.53
15.08
15.28
15.48
15.91
16.69
17.77
19.06
20.50
22.01
23.52
24.85
25.73
25.91
25.24
23.76
21.65
19.18
16.57
13.97
11.44
8.92
6.36
3.58
0.42
-3.20
-7.20
-11.42
-15.59
-19.46
-22.92
-26.02
-28.89
-31.61
-34.17
-36.35
-37.85
-38.27
-37.24
-34.46
-29.73
-23.10
-14.92
-5.87
3.15
11.25
17.75
22.27
24.80
25.64
25.25
24.10
22.60
21.02
19.56
18.35
17.42
16.81
16.52
16.57
16.94
17.55
18.27
18.87
19.10
18.69
17.45
15.33
12.46
9.19
5.98
3.23
1.12
-0.42
-1.69
-3.03
-4.70
-6.77
-9.14
-11.60
-13.99
-16.28
-18.57
-21.12
-24.16
-27.81
-31.99
-36.34
-40.30
-43.23
-44.48
-43.57
-40.25
-34.58
-26.92
-17.96
-8.59
0.27
7.82
13.63
17.57
19.81
20.68
20.57
19.84
18.85
17.87
17.09
16.55
16.17
15.88
15.61
15.46
15.57
16.08
16.91
17.73
18.08
17.51
15.86
13.34
10.42
7.67
5.46
3.79
2.37
0.83
-1.04
-3.20
-5.35
-7.12
-8.32
-9.01
-9.51
-10.24
-11.56
-13.66
-16.43
-19.51
-22.32
-24.13
-24.24
-22.09
-17.50
-10.66
-2.15
7.23
16.72
25.73
33.95
41.27
47.62
52.82
56.49
58.02
56.75
52.13
44.03
33.02
20.45
8.28
-1.51
-7.50
-9.37
-7.95
-4.83
-1.63
0.57
1.43
1.24
0.42
-0.81
-2.45
-4.61
-7.32
-10.45
-13.81
-17.33
-21.07
-25.19
-29.77
-34.68
-39.61
-44.22
-48.25
-51.67
-54.65
-57.36
-59.76
-61.46
-61.88
-60.34
-56.44
-50.09
-41.61
-31.57
-20.69
-9.76
0.41
9.03
15.39
19.05
19.95
18.47
15.39
11.69
8.34
6.06
5.17
5.54
6.71
8.17
9.54
10.65
11.49
12.01
12.07
11.48
10.18
8.32
6.22
4.19
2.25
0.21
-2.22
-5.15
-8.33
-11.29
-13.55
-14.95
-15.74
-16.43
-17.58
-19.59
-22.50
-26.07
-29.83
-33.25
-35.78
-36.83
-35.92
-32.71
-27.13
-19.53
-10.63
-1.41
7.23
14.65
20.59
25.07
28.23
30.15
30.87
30.45
29.09
27.15
25.09
23.26
21.89
20.98
20.38
19.94
19.49
18.92
18.15
17.06
15.58
13.67
11.42
9.03
6.81
5.05
3.84
3.05
2.34
1.30
-0.38
-2.75
-5.63
-8.68
-11.53
-13.99
-16.06
-17.94
-19.95
-22.36
-25.23
-28.39
-31.46
-33.86
-34.99
-34.35
-31.72
-27.13
-20.98
-13.94
-6.74
-0.05
5.66
10.17
13.52
15.93
17.68
19.03
20.12
20.95
21.39
21.28
20.57
19.43
18.22
17.37
17.15
17.51
18.07
18.28
17.69
16.08
13.60
10.59
7.50
4.65
2.16
-0.04
-2.11
-4.20
-6.31
-8.38
-10.30
-12.09
-13.83
-15.69
-17.73
-19.86
-21.88
-23.58
-24.89
-25.79
-26.27
-26.14
-25.01
-22.40
-17.97
-11.79
-4.28
3.80
11.69
18.74
24.55
28.91
31.78
33.18
33.27
32.33
30.69
28.72
26.63
24.57
22.60
20.81
19.41
18.60
18.50
18.97
19.58
19.88
19.57
18.61
17.23
15.62
13.84
11.72
9.02
5.60
1.58
-2.68
-6.78
-10.42
-13.46
-16.04
-18.40
-20.84
-23.70
-27.08
-30.85
-34.52
-37.31
-38.40
-37.21
-33.59
-27.87
-20.73
-13.01
-5.45
1.41
7.24
11.89
15.35
17.68
19.02
19.48
19.18
18.27
16.94
15.43
14.05
13.09
12.67
12.80
13.31
13.94
14.40
14.47
14.07
13.24
12.07
10.69
9.13
7.37
5.32
2.90
0.08
-3.01
-6.10
-8.85
-10.94
-12.24
-12.95
-13.62
-14.93
-17.44
-21.24
-25.95
-30.77
-34.82
-37.34
-37.84
-36.07
-31.97
-25.71
-17.72
-8.83
-0.05
7.57
13.33
17.07
19.11
19.98
20.20
20.09
19.78
19.27
18.58
17.69
16.57
15.27
13.83
12.50
11.52
11.11
11.26
11.74
12.22
12.39
12.11
11.40
10.34
8.99
7.29
5.18
2.71
0.00
-2.72
-5.34
-7.85
-10.30
-12.76
-15.24
-17.67
-20.03
-22.42
-24.99
-27.83
-30.83
-33.51
-35.13
-34.86
-32.07
-26.62
-18.93
-9.90
-0.63
7.80
14.55
19.17
21.63
22.28
21.70
20.55
19.38
18.49
17.89
17.35
16.68
15.80
14.87
14.16
13.85
13.88
14.01
13.96
13.57
12.86
11.98
11.08
10.20
9.22
7.95
6.26
4.15
1.69
-0.99
-3.84
-6.84
-10.02
-13.35
-16.78
-20.27
-23.77
-27.23
-30.56
-33.50
-35.65
-36.42
-35.20
-31.61
-25.68
-17.90
-9.12
-0.22
8.00
15.10
20.85
25.22
28.22
29.90
30.36
29.79
28.47
26.78
25.05
23.52
22.32
21.51
21.11
21.05
21.15
21.19
20.94
20.25
19.22
18.05
16.99
16.18
15.54
14.80
13.69
12.05
9.97
7.77
5.79
4.31
3.42
3.04
2.86
2.45
1.28
-1.16
-5.19
-10.69
-16.95
-22.74
-26.65
-27.55
-25.06
-19.61
-12.31
-4.43
3.01
9.38
14.46
18.15
20.33
20.86
19.81
17.54
14.74
12.11
10.09
8.62
7.28
5.61
3.34
0.63
-2.12
-4.48
-6.27
-7.56
-8.56
-9.47
-10.36
-11.19
-11.96
-12.82
-14.00
-15.77
-18.17
-21.08
-24.25
-27.39
-30.32
-32.95
-35.23
-37.14
-38.64
-39.82
-40.87
-42.14
-43.95
-46.41
-49.25
-51.80
-53.14
-52.36
-48.92
-42.80
-34.46
-24.70
-14.38
-4.27
4.96
12.76
18.67
22.37
23.80
23.29
21.44
18.98
16.52
14.32
12.35
10.47
8.67
7.19
6.39
6.54
7.55
8.90
9.88
9.92
8.84
6.93
4.75
2.85
1.50
0.63
-0.05
-0.89
-2.07
-3.56
-5.15
-6.63
-7.88
-8.97
-10.18
-11.87
-14.32
-17.53
-21.23
-24.95
-28.16
-30.45
-31.53
-31.14
-28.93
-24.53
-17.81
-9.00
1.12
11.42
20.67
27.96
32.92
35.66
36.66
36.47
35.49
33.93
31.88
29.36
26.54
23.72
21.28
19.57
18.66
18.29
17.93
17.03
15.32
12.92
10.27
7.91
6.12
4.75
3.35
1.37
-1.43
-4.85
-8.37
-11.47
-13.82
-15.46
-16.75
-18.17
-20.05
-22.54
-25.55
-28.80
-31.88
-34.25
-35.32
-34.55
-31.59
-26.39
-19.31
-11.01
-2.34
5.84
12.84
18.21
21.79
23.71
24.32
24.06
23.37
22.59
21.86
21.20
20.56
19.93
19.34
18.88
18.54
18.28
17.93
17.39
16.69
15.95
15.36
14.94
14.52
13.70
12.02
9.27
5.59
1.48
-2.46
-5.76
-8.35
-10.45
-12.50
-14.84
-17.64
-20.92
-24.53
-28.31
-31.96
-35.05
-36.95
-36.96
-34.57
-29.66
-22.59
-14.13
-5.25
3.19
10.56
16.56
21.16
24.55
26.95
28.56
29.53
29.88
29.65
28.90
27.76
26.41
24.95
23.39
21.70
19.90
18.13
16.63
15.56
14.87
14.17
12.99
10.94
7.98
4.42
0.82
-2.26
-4.60
-6.28
-7.66
-9.21
-11.28
-14.03
-17.34
-20.89
-24.26
-27.14
-29.46
-31.45
-33.49
-35.88
-38.51
-40.81
-41.83
-40.61
-36.54
-29.56
-20.25
-9.56
1.45
11.93
21.35
29.45
36.18
41.51
45.44
47.98
49.30
49.62
49.13
47.98
46.14
43.55
40.36
36.88
33.53
30.63
28.09
25.36
21.60
16.10
8.70
-0.12
-9.39
-18.11
-25.49
-31.19
-35.22
-37.85
-39.45
-40.39
-41.09
-41.94
-43.18
-44.89
-46.96
-49.20
-51.42
-53.55
-55.57
-57.48
-59.16
-60.31
-60.54
-59.39
-56.44
-51.41
-44.22
-35.07
-24.46
-13.15
-2.02
8.09
16.61
23.23
27.96
30.97
32.56
33.04
32.79
32.23
31.67
31.34
31.28
31.40
31.51
31.45
31.11
30.50
29.69
28.66
27.35
25.66
23.46
20.72
17.53
14.05
10.41
6.72
2.90
-1.23
-5.78
-10.76
-15.94
-20.92
-25.29
-28.80
-31.50
-33.69
-35.78
-38.12
-40.92
-44.05
-47.15
-49.62
-50.83
-50.11
-46.93
-40.95
-32.21
-21.12
-8.43
4.84
17.68
29.22
38.84
46.19
51.05
53.38
53.23
50.96
47.19
42.84
38.81
35.74
33.79
32.64
31.71
30.51
28.82
26.75
24.59
22.64
21.00
19.59
18.21
16.53
14.30
11.34
7.69
3.59
-0.59
-4.60
-8.38
-12.20
-16.39
-21.19
-26.45
-31.73
-36.33
-39.56
-40.82
-39.72
-36.03
-29.69
-20.96
-10.51
0.66
11.34
20.51
27.52
32.20
34.75
35.57
35.03
33.45
31.14
28.44
25.72
23.33
21.48
20.19
19.31
18.58
17.75
16.67
15.30
13.65
11.77
9.72
7.56
5.23
2.63
-0.43
-4.08
-8.29
-12.80
-17.16
-20.99
-24.17
-27.00
-30.06
-34.00
-39.17
-45.31
-51.60
-56.91
-60.06
-60.21
-56.98
-50.43
-41.03
-29.61
-17.21
-4.98
6.06
15.17
22.02
26.69
29.50
30.88
31.22
30.88
30.18
29.42
28.83
28.49
28.27
27.99
27.58
27.10
26.76
26.69
26.81
26.83
26.37
25.16
23.25
20.80
18.00
14.86
11.18
6.78
1.67
-3.88
-9.45
-14.69
-19.58
-24.35
-29.39
-34.84
-40.44
-45.52
-49.18
-50.60
-49.25
-45.00
-38.12
-29.12
-18.64
-7.37
4.05
15.02
24.92
33.23
39.46
43.33
44.86
44.42
42.76
40.74
39.14
38.43
38.61
39.36
40.19
40.73
40.82
40.49
39.79
38.70
37.02
34.55
31.21
26.96
21.73
15.20
6.84
-3.74
-16.37
-30.03
-43.04
-53.71
-61.02
-65.04
-66.82
-67.73
-68.93
-70.93
-73.64
-76.59
-79.16
-80.67
-80.40
-77.66
-72.04
-63.56
-52.77
-40.68
-28.34
-16.64
-6.19
2.61
9.37
13.84
15.95
16.08
14.93
13.33
11.81
10.44
8.85
6.65
3.79
0.72
-1.67
-2.59
-1.73
0.57
3.42
5.82
7.06
6.92
5.65
3.92
2.70
3.06
5.94
11.84
20.60
31.29
42.34
52.01
58.96
62.61
63.32
62.12
60.15
58.17
56.42
54.72
52.82
50.82
49.28
49.09
51.05
55.47
62.00
69.66
76.99
82.29
83.98
80.66
71.55
56.80
37.74
16.80
-2.90
-18.37
-27.67
-30.56
-28.56
-24.37
-20.82
-19.84
-21.84
-25.87
-30.30
-33.75
-35.72
-36.58
-37.18
-38.17
-39.76
-41.66
-43.52
-45.16
-46.75
-48.68
-51.20
-54.22
-57.40
-60.29
-62.61
-64.42
-66.02
-67.68
-69.37
-70.43
-69.70
-65.81
-57.72
-45.28
-29.49
-12.19
4.45
18.73
29.81
37.70
42.96
46.16
47.65
47.67
46.44
44.41
42.19
40.28
38.87
37.83
36.87
35.77
34.46
33.02
31.51
29.85
27.85
25.33
22.16
18.31
13.83
8.78
3.24
-2.64
-8.58
-14.19
-19.09
-23.03
-26.01
-28.43
-31.05
-34.75
-40.27
-47.69
-56.22
-64.15
-69.39
-70.13
-65.47
-55.74
-42.37
-27.21
-12.04
1.85
13.77
23.41
30.69
35.66
38.49
39.49
39.17
38.10
36.93
36.25
36.43
37.54
39.20
40.71
41.28
40.45
38.37
35.74
33.47
32.23
32.16
32.94
33.96
34.54
34.02
31.71
27.00
19.62
9.94
-0.92
-11.44
-20.26
-26.85
-31.63
-35.78
-40.60
-46.90
-54.79
-63.73
-72.70
-80.46
-85.62
-86.81
-83.10
-74.32
-61.41
-46.21
-30.99
-17.67
-7.22
0.45
6.14
10.75
14.78
18.25
20.97
22.91
24.41
26.06
28.33
31.34
34.69
37.78
40.04
41.27
41.64
41.48
41.08
40.51
39.60
38.06
35.72
32.52
28.62
24.32
19.91
15.68
11.80
8.27
5.01
1.83
-1.50
-5.24
-9.67
-15.06
-21.47
-28.70
-36.12
-42.72
-47.29
-48.77
-46.47
-40.28
-30.58
-18.15
-4.01
10.76
25.11
38.15
49.24
58.08
64.59
68.79
70.72
70.38
67.85
63.53
58.21
52.92
48.68
46.04
44.96
44.85
44.89
44.40
43.13
41.28
39.25
37.28
35.03
31.69
26.16
17.56
5.70
-8.82
-24.70
-40.37
-54.32
-65.36
-72.75
-76.28
-76.37
-73.98
-70.47
-67.17
-64.78
-63.15
-61.26
-57.77
-51.70
-42.95
-32.32
-21.18
-10.88
-2.25
4.39
9.06
11.70
12.13
10.19
6.09
0.65
-4.81
-8.89
-10.70
-10.16
-7.95
-5.20
-2.84
-1.28
-0.31
0.65
2.15
4.28
6.67
8.64
9.47
8.81
6.70
3.60
0.03
-3.54
-6.94
-10.20
-13.48
-16.97
-20.76
-24.90
-29.42
-34.31
-39.45
-44.55
-49.03
-52.09
-52.78
-50.16
-43.69
-33.45
-20.33
-5.86
8.12
20.08
29.12
35.13
38.66
40.41
40.93
40.49
39.15
36.94
34.10
31.05
28.21
25.89
24.16
22.95
22.10
21.51
21.07
20.63
19.96
18.80
16.99
14.55
11.64
8.42
4.93
1.04
-3.40
-8.43
-13.83
-19.15
-23.90
-27.77
-30.75
-33.16
-35.63
-38.95
-43.75
-50.25
-57.88
-65.25
-70.37
-71.28
-66.79
-56.98
-43.21
-27.54
-12.03
1.95
13.83
23.55
31.13
36.32
38.70
38.02
34.57
29.29
23.53
18.62
15.44
14.25
14.74
16.40
18.67
21.17
23.66
25.94
27.73
28.79
28.93
28.09
26.40
24.01
21.02
17.45
13.22
8.32
2.89
-2.70
-7.97
-12.52
-16.21
-19.16
-21.65
-23.97
-26.40
-29.12
-32.32
-36.16
-40.48
-44.68
-47.62
-47.89
-44.29
-36.34
-24.61
-10.57
3.89
17.09
27.94
36.11
41.81
45.42
47.28
47.61
46.60
44.60
42.04
39.36
36.84
34.45
32.04
29.48
26.82
24.28
22.02
20.03
18.00
15.58
12.57
9.13
5.69
2.63
0.07
-2.27
-4.85
-8.04
-11.90
-16.21
-20.58
-24.69
-28.44
-31.90
-35.22
-38.53
-41.93
-45.44
-49.10
-52.89
-56.54
-59.47
-60.76
-59.40
-54.58
-46.06
-34.29
-20.35
-5.71
8.19
20.21
29.66
36.26
40.14
41.62
41.21
39.48
37.01
34.28
31.64
29.32
27.43
26.08
25.28
24.93
24.80
24.53
23.76
22.26
20.00
17.17
14.06
10.97
8.03
5.19
2.29
-0.83
-4.24
-7.92
-11.76
-15.66
-19.53
-23.37
-27.23
-31.22
-35.44
-39.96
-44.70
-49.35
-53.33
-55.80
-55.94
-53.09
-47.05
-38.09
-26.92
-14.50
-1.83
10.11
20.56
28.85
34.59
37.65
38.23
36.88
34.31
31.30
28.49
26.31
24.94
24.32
24.30
24.62
25.07
25.38
25.37
24.90
23.90
22.38
20.43
18.14
15.63
12.92
9.97
6.71
3.02
-1.10
-5.55
-10.10
-14.40
-18.19
-21.31
-23.92
-26.41
-29.38
-33.43
-38.81
-45.26
-51.90
-57.42
-60.38
-59.66
-54.79
-46.03
-34.26
-20.71
-6.73
6.42
17.71
26.46
32.41
35.70
36.85
36.58
35.51
34.09
32.58
31.11
29.83
28.90
28.46
28.48
28.80
29.15
29.24
28.84
27.76
25.86
23.09
19.57
15.66
11.85
8.59
6.05
3.99
1.91
-0.70
-4.14
-8.39
-13.21
-18.37
-23.66
-28.94
-34.05
-38.82
-43.16
-47.17
-51.13
-55.31
-59.71
-63.86
-66.81
-67.40
-64.60
-57.94
-47.70
-34.81
-20.64
-6.67
5.88
16.15
23.77
28.77
31.49
32.47
32.26
31.37
30.19
28.96
27.89
27.15
26.83
26.89
27.14
27.32
27.19
26.74
26.16
25.72
25.52
25.32
24.63
22.90
19.85
15.57
10.48
5.04
-0.37
-5.52
-10.26
-14.48
-18.11
-21.27
-24.25
-27.47
-31.27
-35.78
-40.82
-45.96
-50.60
-54.07
-55.64
-54.61
-50.45
-43.02
-32.72
-20.51
-7.72
4.35
14.69
22.74
28.35
31.58
32.64
31.77
29.38
26.01
22.43
19.41
17.61
17.35
18.56
20.78
23.35
25.67
27.30
28.10
28.09
27.38
26.04
24.01
21.21
17.52
13.00
7.78
2.15
-3.53
-8.96
-13.91
-18.32
-22.34
-26.32
-30.70
-35.82
-41.71
-47.91
-53.55
-57.41
-58.34
-55.54
-48.82
-38.66
-26.16
-12.64
0.60
12.56
22.62
30.49
36.08
39.45
40.78
40.37
38.73
36.44
34.09
32.05
30.48
29.29
28.34
27.52
26.80
26.09
25.28
24.17
22.64
20.71
18.46
15.97
13.19
9.90
5.90
1.19
-3.95
-9.04
-13.71
-17.87
-21.88
-26.27
-31.52
-37.66
-44.28
-50.53
-55.49
-58.20
-57.99
-54.41
-47.43
-37.53
-25.60
-12.83
-0.43
10.68
19.97
27.22
32.40
35.54
36.71
36.08
34.04
31.17
28.08
25.30
23.12
21.61
20.74
20.39
20.37
20.47
20.34
19.68
18.30
16.19
13.52
10.53
7.34
3.95
0.30
-3.67
-7.83
-11.88
-15.50
-18.57
-21.24
-23.91
-27.14
-31.34
-36.65
-42.85
-49.33
-55.23
-59.46
-60.92
-58.63
-52.10
-41.53
-27.85
-12.60
2.53
16.03
27.00
35.10
40.48
43.51
44.60
44.16
42.62
40.48
38.25
36.33
34.87
33.81
32.91
31.87
30.55
28.95
27.18
25.40
23.67
21.95
20.10
17.94
15.30
12.06
8.20
3.85
-0.71
-5.19
-9.40
-13.33
-17.14
-21.05
-25.22
-29.74
-34.55
-39.55
-44.51
-49.05
-52.47
-53.87
-52.31
-47.17
-38.52
-27.19
-14.56
-2.24
8.51
16.94
22.90
26.64
28.61
29.24
28.90
27.84
26.33
24.61
22.94
21.57
20.65
20.24
20.20
20.31
20.36
20.32
20.33
20.70
21.58
22.77
23.70
23.63
21.94
18.41
13.39
7.49
1.39
-4.42
-9.77
-14.65
-19.15
-23.37
-27.48
-31.69
-36.26
-41.25
-46.36
-50.85
-53.59
-53.44
-49.64
-42.07
-31.36
-18.68
-5.40
7.29
18.54
27.87
35.05
40.00
42.72
43.39
42.33
40.03
37.05
33.94
31.20
29.21
28.26
28.36
29.20
30.25
30.82
30.42
28.88
26.45
23.61
20.83
18.31
16.05
13.86
11.53
8.85
5.67
1.90
-2.45
-7.19
-11.97
-16.39
-20.20
-23.33
-26.00
-28.52
-31.24
-34.49
-38.44
-43.09
-48.05
-52.48
-55.14
-54.78
-50.61
-42.64
-31.76
-19.45
-7.25
3.67
12.71
19.68
24.64
27.69
28.93
28.55
26.86
24.36
21.64
19.28
17.70
17.11
17.45
18.40
19.52
20.40
20.80
20.75
20.42
20.00
19.51
18.76
17.48
15.51
12.91
9.98
7.09
4.40
1.82
-0.95
-4.19
-7.99
-12.10
-16.12
-19.67
-22.66
-25.24
-27.78
-30.69
-34.25
-38.54
-43.36
-48.30
-52.69
-55.71
-56.48
-54.24
-48.53
-39.34
-27.19
-13.06
1.81
16.11
28.71
38.78
45.94
50.16
51.76
51.27
49.36
46.80
44.37
42.78
42.50
43.57
45.54
47.52
48.37
47.02
42.82
35.73
26.40
15.97
5.81
-2.90
-9.49
-13.80
-16.19
-17.36
-18.00
-18.65
-19.63
-21.09
-23.11
-25.71
-28.88
-32.49
-36.27
-39.84
-42.81
-45.01
-46.62
-48.15
-50.33
-53.65
-58.15
-63.20
-67.67
-70.23
-69.78
-65.65
-57.82
-46.79
-33.50
-19.16
-5.07
7.64
18.13
26.04
31.48
34.84
36.56
36.97
36.32
34.82
32.80
30.73
29.11
28.20
28.02
28.26
28.51
28.36
27.63
26.39
24.86
23.22
21.51
19.57
17.14
13.99
10.10
5.68
1.07
-3.37
-7.39
-10.94
-14.07
-16.89
-19.53
-22.06
-24.60
-27.30
-30.36
-33.89
-37.85
-41.85
-45.23
-47.13
-46.60
-43.03
-36.25
-26.65
-15.15
-2.90
8.90
19.23
27.37
32.95
35.89
36.43
35.06
32.37
28.98
25.43
22.10
19.23
16.94
15.30
14.31
13.87
13.79
13.71
13.32
12.39
10.92
9.06
6.97
4.76
2.36
-0.37
-3.57
-7.29
-11.41
-15.72
-19.97
-23.97
-27.63
-31.00
-34.27
-37.69
-41.45
-45.53
-49.47
-52.50
-53.57
-51.73
-46.43
-37.80
-26.65
-14.24
-1.90
9.34
18.93
26.74
32.81
37.10
39.43
39.59
37.67
34.20
30.10
26.38
23.75
22.38
21.93
21.87
21.82
21.77
21.93
22.51
23.40
24.17
24.24
23.11
20.58
16.81
12.21
7.21
2.18
-2.62
-7.01
-10.91
-14.33
-17.47
-20.73
-24.62
-29.49
-35.41
-41.96
-48.25
-53.06
-55.07
-53.19
-46.93
-36.60
-23.35
-8.95
4.73
16.17
24.67
30.24
33.40
34.75
34.72
33.54
31.41
28.75
26.12
24.14
23.20
23.30
24.07
24.92
25.28
24.79
23.45
21.54
19.46
17.57
15.91
14.24
12.09
9.02
4.79
-0.42
-6.14
-11.71
-16.61
-20.57
-23.64
-26.13
-28.45
-31.02
-34.17
-38.10
-42.70
-47.51
-51.71
-54.19
-53.79
-49.65
-41.58
-30.16
-16.71
-2.92
9.63
19.85
27.39
32.44
35.50
37.02
37.27
36.34
34.38
31.76
29.06
26.88
25.57
25.13
25.25
25.49
25.50
25.17
24.54
23.67
22.55
21.02
18.96
16.39
13.52
10.62
7.88
5.31
2.68
-0.30
-3.81
-7.79
-11.94
-15.87
-19.33
-22.38
-25.40
-28.87
-33.16
-38.26
-43.77
-48.96
-52.95
-54.86
-53.96
-49.75
-42.16
-31.63
-19.21
-6.37
5.32
14.73
21.42
25.72
28.34
29.97
31.00
31.46
31.28
30.47
29.28
28.03
27.00
26.22
25.57
24.87
24.06
23.19
22.33
21.47
20.45
19.10
17.31
15.16
12.81
10.41
7.95
5.32
2.35
-1.01
-4.70
-8.54
-12.40
-16.19
-20.00
-23.94
-28.21
-32.96
-38.20
-43.70
-48.88
-52.85
-54.57
-53.21
-48.40
-40.43
-30.08
-18.44
-6.54
4.73
14.69
22.82
28.73
32.23
33.43
32.75
30.86
28.58
26.60
25.40
25.07
25.42
26.06
26.54
26.51
25.83
24.63
23.16
21.68
20.28
18.85
17.15
14.87
11.89
8.22
4.05
-0.37
-4.72
-8.68
-12.06
-14.76
-17.00
-19.24
-22.06
-25.95
-30.95
-36.53
-41.64
-44.99
-45.48
-42.46
-35.87
-26.21
-14.47
-1.89
10.23
20.69
28.70
33.87
36.27
36.29
34.51
31.56
28.07
24.66
21.88
20.09
19.38
19.56
20.18
20.82
21.14
21.00
20.41
19.44
18.16
16.60
14.78
12.65
10.14
7.14
3.53
-0.69
-5.42
-10.36
-15.19
-19.61
-23.54
-27.10
-30.66
-34.65
-39.43
-45.15
-51.47
-57.57
-62.18
-63.87
-61.48
-54.58
-43.71
-30.27
-16.19
-3.25
7.37
15.33
21.04
25.21
28.41
30.81
32.15
32.12
30.65
28.10
25.29
23.09
22.03
22.08
22.68
23.11
22.90
21.97
20.60
19.11
17.68
16.23
14.57
12.59
10.28
7.73
5.00
2.03
-1.26
-4.85
-8.60
-12.27
-15.72
-19.07
-22.74
-27.14
-32.51
-38.64
-44.80
-49.95
-52.93
-52.81
-49.11
-41.88
-31.72
-19.61
-6.76
5.61
16.50
25.21
31.56
35.66
37.84
38.48
37.86
36.24
33.94
31.45
29.36
28.14
27.95
28.49
29.12
29.15
28.25
26.46
24.19
21.86
19.71
17.63
15.31
12.48
9.04
5.18
1.24
-2.49
-5.86
-8.95
-12.01
-15.29
-18.91
-22.86
-26.99
-31.19
-35.43
-39.74
-44.09
-48.21
-51.44
-52.83
-51.47
-46.80
-38.88
-28.42
-16.54
-4.41
7.05
17.17
25.52
31.70
35.36
36.32
34.80
31.48
27.35
23.53
20.84
19.62
19.66
20.38
21.09
21.26
20.63
19.25
17.39
15.38
13.53
11.98
10.70
9.43
7.79
5.45
2.23
-1.88
-6.57
-11.40
-15.90
-19.73
-22.82
-25.34
-27.70
-30.38
-33.71
-37.79
-42.26
-46.32
-48.88
-48.82
-45.34
-38.29
-28.24
-16.30
-3.89
7.70
17.48
24.88
29.70
31.96
31.90
29.87
26.43
22.30
18.29
15.08
13.06
12.18
12.08
12.24
12.30
12.13
11.79
11.42
11.02
10.44
9.42
7.77
5.48
2.73
-0.21
-3.14
-5.98
-8.71
-11.38
-14.04
-16.77
-19.76
-23.29
-27.65
-32.91
-38.77
-44.49
-48.97
-51.03
-49.81
-44.98
-36.87
-26.32
-14.42
-2.26
9.17
19.13
27.00
32.41
35.27
35.82
34.63
32.44
29.91
27.50
25.41
23.61
22.05
20.75
19.77
19.16
18.84
18.61
18.25
17.53
16.37
14.75
12.66
10.10
6.97
3.26
-0.99
-5.56
-10.14
-14.44
-18.36
-21.97
-25.62
-29.67
-34.39
-39.77
-45.42
-50.59
-54.29
-55.50
-53.37
-47.50
-38.09
-25.95
-12.43
0.98
13.01
22.84
30.18
35.14
37.91
38.67
37.66
35.18
31.81
28.34
25.54
23.93
23.61
24.22
25.16
25.83
25.84
25.11
23.80
22.21
20.55
18.85
16.94
14.50
11.25
7.08
2.06
-3.52
-9.37
-15.23
-20.94
-26.40
-31.62
-36.67
-41.72
-46.85
-51.93
-56.46
-59.49
-59.92
-56.86
-50.01
-39.78
-27.24
-13.81
-0.94
10.20
18.84
24.75
28.15
29.56
29.68
29.13
28.37
27.62
27.02
26.66
26.65
26.98
27.48
27.84
27.72
26.96
25.64
24.06
22.49
21.03
19.48
17.46
14.57
10.58
5.60
0.01
-5.64
-10.83
-15.23
-18.81
-21.88
-24.98
-28.69
-33.34
-38.77
-44.35
-49.06
-51.81
-51.66
-48.08
-40.98
-30.80
-18.42
-5.09
7.85
19.14
27.89
33.71
36.68
37.26
36.04
33.67
30.67
27.61
24.93
22.99
21.89
21.50
21.46
21.30
20.69
19.49
17.80
15.86
13.87
11.85
9.69
7.19
4.20
0.76
-2.96
-6.71
-10.24
-13.46
-16.42
-19.32
-22.46
-26.14
-30.50
-35.50
-40.71
-45.42
-48.68
-49.51
-47.20
-41.48
-32.65
-21.53
-9.23
3.03
14.24
23.64
30.75
35.37
37.47
37.30
35.27
32.02
28.28
24.71
21.81
19.81
18.67
18.18
18.00
17.81
17.36
16.54
15.44
14.19
12.88
11.44
9.64
7.20
3.99
0.09
-4.26
-8.72
-13.10
-17.32
-21.45
-25.61
-29.96
-34.60
-39.57
-44.69
-49.47
-53.04
-54.34
-52.47
-47.02
-38.31
-27.30
-15.22
-3.25
7.73
17.17
24.68
30.03
33.07
33.92
33.06
31.20
29.15
27.46
26.30
25.54
24.90
24.21
23.55
23.08
22.95
23.04
23.02
22.46
21.03
18.68
15.55
11.90
7.91
3.68
-0.73
-5.18
-9.43
-13.24
-16.57
-19.69
-23.14
-27.49
-32.97
-39.22
-45.23
-49.63
-51.04
-48.60
-42.12
-32.21
-20.06
-7.07
5.42
16.41
25.31
31.86
36.10
38.25
38.68
37.85
36.27
34.36
32.44
30.61
28.91
27.28
25.68
24.15
22.71
21.34
19.94
18.41
16.70
14.79
12.64
10.15
7.19
3.63
-0.56
-5.24
-10.13
-14.93
-19.41
-23.49
-27.30
-31.09
-35.17
-39.78
-44.94
-50.37
-55.37
-58.98
-60.04
-57.62
-51.33
-41.53
-29.27
-16.01
-3.18
8.18
17.56
24.90
30.26
33.74
35.38
35.29
33.77
31.34
28.65
26.26
24.52
23.48
22.98
22.83
22.80
22.75
22.53
22.05
21.23
20.03
18.48
16.51
14.06
10.99
7.22
2.81
-1.99
-6.80
-11.21
-14.98
-18.15
-20.97
-23.92
-27.49
-32.02
-37.61
-44.00
-50.51
-56.06
-59.35
-59.20
-54.89
-46.50
-34.89
-21.44
-7.65
5.28
16.59
25.94
33.13
38.00
40.40
40.36
38.22
34.72
30.87
27.59
25.44
24.54
24.56
25.02
25.49
25.76
25.78
25.62
25.22
24.45
23.12
21.08
18.34
15.04
11.36
7.42
3.27
-1.10
-5.60
-9.99
-13.98
-17.41
-20.33
-23.10
-26.19
-29.90
-34.32
-39.31
-44.61
-49.94
-54.91
-58.92
-61.03
-60.08
-55.16
-46.02
-33.42
-18.93
-4.49
8.25
18.36
25.68
30.55
33.43
34.69
34.57
33.35
31.44
29.43
27.87
27.05
26.89
27.05
27.10
26.87
26.38
25.82
25.26
24.58
23.42
21.47
18.65
15.21
11.55
8.02
4.74
1.59
-1.65
-5.13
-8.78
-12.41
-15.84
-19.06
-22.31
-25.93
-30.23
-35.26
-40.83
-46.48
-51.62
-55.58
-57.59
-56.89
-52.83
-45.12
-34.06
-20.62
-6.38
6.98
18.08
26.27
31.60
34.60
35.92
36.09
35.41
34.12
32.47
30.75
29.23
28.02
27.04
26.07
24.96
23.69
22.41
21.34
20.62
20.22
19.91
19.29
17.91
15.41
11.66
6.83
1.37
-4.16
-9.24
-13.60
-17.27
-20.51
-23.65
-26.98
-30.73
-35.00
-39.87
-45.24
-50.73
-55.60
-58.77
-59.06
-55.63
-48.25
-37.54
-24.75
-11.39
1.23
12.34
21.68
29.29
35.16
39.10
40.79
39.99
36.84
31.97
26.49
21.66
18.66
18.28
20.80
25.79
32.08
37.87
41.25
40.86
36.49
29.31
21.43
14.95
11.11
9.77
9.69
9.31
7.49
4.03
-0.50
-5.33
-9.99
-14.54
-19.44
-25.17
-31.91
-39.44
-47.21
-54.42
-60.27
-64.06
-65.21
-63.32
-58.20
-49.91
-38.84
-25.66
-11.38
2.79
15.63
26.17
33.78
38.37
40.31
40.26
39.04
37.39
35.85
34.72
34.00
33.52
33.04
32.40
31.54
30.52
29.39
28.13
26.64
24.84
22.70
20.33
17.90
15.57
13.31
10.94
8.11
4.47
-0.18
-5.82
-12.11
-18.50
-24.41
-29.42
-33.46
-36.85
-40.23
-44.22
-49.16
-54.80
-60.31
-64.42
-65.82
-63.47
-56.93
-46.55
-33.32
-18.68
-4.17
8.84
19.43
27.20
32.23
34.93
35.88
35.67
34.71
33.34
31.77
30.23
28.97
28.20
27.98
28.16
28.37
28.22
27.40
25.83
23.67
21.17
18.60
16.05
13.49
10.84
7.95
4.77
1.29
-2.48
-6.51
-10.72
-14.97
-19.09
-22.91
-26.41
-29.65
-32.91
-36.55
-40.89
-46.00
-51.51
-56.58
-59.95
-60.33
-56.75
-48.93
-37.40
-23.43
-8.66
5.31
17.30
26.72
33.49
37.85
40.12
40.64
39.82
38.11
36.08
34.29
33.15
32.77
32.98
33.42
33.76
33.76
33.33
32.44
30.99
28.93
26.27
23.12
19.74
16.31
12.85
9.15
4.89
-0.17
-6.01
-12.36
-18.83
-25.05
-30.81
-36.13
-41.17
-46.15
-51.37
-57.03
-63.16
-69.42
-74.98
-78.58
-78.81
-74.55
-65.39
-51.82
-35.10
-16.90
1.12
17.61
31.63
42.56
50.08
54.21
55.33
54.24
51.96
49.53
47.61
46.41
45.68
44.85
43.23
40.14
35.08
27.86
18.78
8.73
-1.05
-9.33
-15.39
-19.29
-21.73
-23.71
-26.06
-29.18
-33.01
-37.19
-41.20
-44.55
-46.98
-48.46
-49.20
-49.57
-49.76
-49.66
-48.79
-46.43
-41.90
-34.83
-25.22
-13.40
0.09
14.52
28.95
42.28
53.38
61.31
65.60
66.27
63.80
58.94
52.60
45.76
39.35
34.12
30.50
28.49
27.64
27.21
26.43
24.71
21.77
17.63
12.55
6.94
1.19
-4.32
-9.32
-13.70
-17.47
-20.82
-24.03
-27.28
-30.67
-34.18
-37.79
-41.61
-45.81
-50.51
-55.48
-60.06
-63.19
-63.72
-60.79
-54.13
-44.09
-31.54
-17.57
-3.28
10.35
22.46
32.35
39.50
43.73
45.15
44.27
41.83
38.69
35.55
32.94
31.10
29.96
29.26
28.61
27.65
26.20
24.30
22.14
20.02
18.07
16.25
14.28
11.80
8.52
4.35
-0.51
-5.68
-10.72
-15.33
-19.40
-23.07
-26.73
-30.80
-35.67
-41.37
-47.53
-53.27
-57.42
-58.79
-56.50
-50.27
-40.51
-28.20
-14.65
-1.15
11.23
21.82
30.27
36.44
40.38
42.22
42.18
40.64
38.14
35.27
32.64
30.63
29.36
28.65
28.20
27.60
26.61
25.14
23.28
21.25
19.26
17.42
15.59
13.45
10.55
6.56
1.40
-4.67
-11.08
-17.16
-22.40
-26.58
-29.77
-32.29
-34.50
-36.83
-39.61
-43.08
-47.23
-51.68
-55.58
-57.70
-56.75
-51.76
-42.50
-29.58
-14.39
1.31
15.83
27.95
37.07
43.14
46.47
47.56
46.94
45.13
42.59
39.81
37.22
35.15
33.75
32.97
32.69
32.71
32.93
33.22
33.35
32.94
31.63
29.20
25.79
21.89
18.12
14.97
12.53
10.50
8.33
5.54
1.93
-2.33
-6.88
-11.33
-15.45
-19.23
-22.89
-26.79
-31.24
-36.44
-42.27
-48.26
-53.65
-57.52
-58.99
-57.33
-52.11
-43.34
-31.49
-17.55
-2.87
11.09
23.05
32.21
38.37
41.88
43.41
43.70
43.33
42.60
41.62
40.34
38.66
36.53
33.94
30.97
27.73
24.36
20.99
17.77
14.79
12.10
9.56
6.94
4.02
0.71
-2.86
-6.40
-9.62
-12.48
-15.17
-18.05
-21.34
-25.00
-28.73
-32.14
-35.01
-37.46
-39.85
-42.71
-46.40
-50.97
-56.01
-60.57
-63.36
-62.96
-58.33
-49.16
-36.16
-20.82
-5.04
9.51
21.75
31.31
38.37
43.35
46.66
48.60
49.45
49.42
48.69
47.37
45.36
42.43
38.32
32.99
26.78
20.42
14.76
10.55
8.09
7.18
7.31
7.89
8.51
9.01
9.32
9.25
8.38
6.19
2.28
-3.41
-10.41
-17.90
-24.96
-30.90
-35.60
-39.48
-43.34
-47.97
-53.71
-60.19
-66.30
-70.52
-71.50
-68.41
-61.24
-50.74
-38.09
-24.64
-11.58
0.18
10.06
17.78
23.29
26.78
28.62
29.24
29.14
28.77
28.48
28.49
28.81
29.33
29.80
30.03
29.89
29.40
28.62
27.63
26.41
24.89
22.97
20.59
17.77
14.56
11.01
7.12
2.84
-1.83
-6.81
-11.90
-16.86
-21.54
-25.97
-30.33
-34.95
-40.09
-45.89
-52.18
-58.44
-63.82
-67.15
-67.23
-63.11
-54.41
-41.57
-25.83
-8.93
7.30
21.47
32.85
41.28
46.97
50.22
51.22
50.17
47.37
43.40
39.05
35.17
32.46
31.18
31.19
31.90
32.54
32.43
31.14
28.67
25.42
21.93
18.68
15.87
13.29
10.54
7.17
2.95
-1.97
-7.19
-12.31
-17.05
-21.35
-25.37
-29.28
-33.26
-37.40
-41.85
-46.77
-52.25
-58.14
-63.77
-67.99
-69.28
-66.27
-58.31
-45.76
-30.06
-13.25
2.61
16.03
26.36
33.72
38.54
41.30
42.24
41.51
39.40
36.44
33.34
30.74
29.06
28.36
28.42
28.91
29.38
29.47
28.86
27.44
25.32
22.88
20.54
18.57
16.89
15.02
12.39
8.54
3.41
-2.65
-9.04
-15.11
-20.36
-24.59
-27.94
-30.86
-34.03
-38.06
-43.26
-49.36
-55.55
-60.67
-63.41
-62.78
-58.21
-49.76
-38.04
-24.15
-9.48
4.62
17.04
27.07
34.45
39.20
41.52
41.75
40.37
37.98
35.32
33.04
31.54
30.89
30.88
31.14
31.29
31.05
30.26
28.84
26.92
24.69
22.34
19.96
17.41
14.45
10.86
6.64
2.01
-2.67
-7.20
-11.60
-16.08
-20.84
-25.82
-30.81
-35.57
-40.15
-44.85
-50.01
-55.62
-61.04
-65.05
-66.20
-63.37
-56.21
-45.18
-31.50
-16.70
-2.34
10.31
20.34
27.31
31.24
32.54
31.88
30.02
27.69
25.44
23.65
22.43
21.69
21.17
20.58
19.77
18.77
17.82
17.20
17.06
17.27
17.52
17.34
16.38
14.39
11.33
7.27
2.43
-2.85
-8.08
-12.81
-16.75
-19.99
-23.01
-26.45
-30.92
-36.59
-43.11
-49.55
-54.59
-56.89
-55.38
-49.62
-39.86
-27.13
-12.85
1.44
14.44
25.29
33.54
39.08
41.93
42.31
40.58
37.36
33.38
29.43
26.12
23.75
22.35
21.69
21.42
21.20
20.74
19.87
18.55
16.84
14.89
12.80
10.56
8.03
4.99
1.26
-3.14
-7.99
-12.92
-17.60
-21.90
-25.99
-30.30
-35.29
-41.12
-47.42
-53.23
-57.21
-58.00
-54.63
-46.87
-35.29
-21.13
-6.01
8.49
21.08
30.90
37.60
41.25
42.22
41.13
38.74
35.77
32.88
30.51
28.86
27.84
27.18
26.55
25.64
24.35
22.72
20.94
19.20
17.58
16.00
14.12
11.52
7.85
3.06
-2.53
-8.34
-13.79
-18.55
-22.73
-26.87
-31.59
-37.35
-44.14
-51.41
-58.11
-62.93
-64.60
-62.11
-55.05
-43.70
-29.07
-12.72
3.56
18.27
30.39
39.51
45.70
49.28
50.60
50.03
47.97
44.93
41.51
38.35
35.93
34.36
33.35
32.34
30.71
28.15
24.83
21.31
18.24
15.89
14.08
12.14
9.35
5.31
0.18
-5.41
-10.74
-15.35
-19.26
-22.87
-26.70
-31.13
-36.29
-42.05
-48.08
-53.89
-58.81
-61.97
-62.39
-59.23
-52.15
-41.43
-28.08
-13.59
0.52
13.04
23.31
31.19
36.85
40.54
42.49
42.89
42.02
40.33
38.34
36.56
35.24
34.32
33.51
32.47
31.00
29.16
27.22
25.50
24.16
23.11
21.92
20.10
17.26
13.32
8.51
3.25
-2.03
-7.05
-11.73
-16.05
-20.07
-23.84
-27.53
-31.48
-36.17
-41.95
-48.73
-55.78
-61.75
-64.95
-63.97
-58.13
-47.71
-33.91
-18.50
-3.30
10.24
21.31
29.75
35.85
40.04
42.64
43.78
43.53
42.03
39.65
36.89
34.26
32.10
30.45
29.18
28.10
27.09
26.19
25.40
24.68
23.81
22.47
20.38
17.44
13.71
9.44
4.87
0.25
-4.25
-8.52
-12.55
-16.38
-20.15
-24.05
-28.27
-32.98
-38.29
-44.19
-50.51
-56.78
-62.20
-65.69
-66.10
-62.61
-55.04
-43.98
-30.71
-16.81
-3.74
7.49
16.37
22.74
26.72
28.53
28.60
27.53
25.99
24.57
23.53
22.85
22.26
21.59
20.79
20.07
19.68
19.77
20.14
20.46
20.28
19.33
17.55
15.01
11.80
7.96
3.53
-1.34
-6.33
-10.93
-14.76
-17.73
-20.26
-23.10
-27.06
-32.53
-39.19
-46.05
-51.71
-54.84
-54.46
-50.19
-42.13
-30.87
-17.42
-3.06
10.77
22.70
31.80
37.71
40.65
41.16
39.89
37.45
34.38
31.17
28.33
26.19
24.82
23.96
23.19
22.16
20.76
19.19
17.70
16.39
15.07
13.41
11.06
7.88
3.96
-0.45
-5.07
-9.65
-14.01
-18.00
-21.65
-25.16
-28.95
-33.53
-39.19
-45.77
-52.49
-58.09
-61.13
-60.41
-55.35
-46.17
-33.77
-19.58
-5.20
7.98
19.02
27.53
33.62
37.61
39.84
40.50
39.70
37.60
34.57
31.21
28.09
25.67
24.08
23.11
22.42
21.72
20.90
19.97
18.92
17.64
15.88
13.33
9.82
5.41
0.41
-4.69
-9.43
-13.53
-16.96
-20.02
-23.14
-26.81
-31.35
-36.93
-43.33
-50.01
-56.11
-60.53
-62.13
-59.99
-53.68
-43.44
-30.26
-15.63
-1.20
11.63
22.04
29.80
35.15
38.49
40.18
40.44
39.41
37.37
34.76
32.15
29.99
28.49
27.43
26.42
25.08
23.34
21.45
19.80
18.69
18.07
17.48
16.22
13.70
9.70
4.47
-1.37
-7.19
-12.54
-17.33
-21.74
-26.04
-30.44
-35.06
-39.97
-45.18
-50.65
-56.07
-60.75
-63.58
-63.32
-59.02
-50.51
-38.51
-24.45
-9.97
3.47
14.99
24.12
30.72
34.77
36.34
35.73
33.52
30.58
27.79
25.81
24.82
24.55
24.51
24.19
23.34
22.01
20.46
19.00
17.82
16.86
15.87
14.48
12.32
9.16
4.96
-0.11
-5.66
-11.18
-16.20
-20.45
-24.01
-27.38
-31.28
-36.32
-42.64
-49.65
-56.11
-60.48
-61.37
-57.92
-50.13
-38.74
-25.02
-10.50
3.34
15.35
24.77
31.36
35.31
37.11
37.32
36.45
34.84
32.71
30.26
27.76
25.59
24.09
23.41
23.37
23.53
23.37
22.49
20.85
18.65
16.18
13.60
10.80
7.49
3.41
-1.46
-6.80
-12.02
-16.56
-20.19
-23.12
-26.00
-29.66
-34.73
-41.30
-48.75
-55.81
-60.93
-62.64
-60.04
-52.99
-42.20
-28.95
-14.85
-1.33
10.59
20.32
27.76
32.99
36.13
37.37
37.02
35.57
33.66
31.89
30.62
29.80
29.18
28.43
27.39
26.17
25.01
24.03
23.21
22.31
21.04
19.14
16.49
13.09
8.99
4.31
-0.75
-5.93
-10.97
-15.67
-20.01
-24.22
-28.66
-33.77
-39.80
-46.59
-53.52
-59.49
-63.13
-63.17
-58.83
-50.10
-37.77
-23.26
-8.21
5.91
18.08
27.89
35.35
40.72
44.20
45.91
45.91
44.38
41.75
38.68
35.92
33.99
33.03
32.74
32.58
32.05
30.90
29.23
27.32
25.43
23.61
21.72
19.47
16.55
12.77
8.13
2.81
-2.83
-8.40
-13.57
-18.17
-22.32
-26.35
-30.70
-35.75
-41.61
-47.93
-53.92
-58.47
-60.37
-58.63
-52.76
-42.94
-30.10
-15.68
-1.27
11.74
22.42
30.36
35.57
38.30
38.88
37.73
35.40
32.54
29.80
27.66
26.25
25.37
24.66
23.80
22.71
21.53
20.46
19.52
18.48
16.96
14.56
11.10
6.75
1.82
-3.29
-8.28
-12.98
-17.37
-21.44
-25.29
-29.11
-33.19
-37.86
-43.27
-49.24
-55.04
-59.51
-61.34
-59.41
-53.20
-42.99
-29.86
-15.43
-1.39
10.94
20.83
28.20
33.38
36.74
38.48
38.62
37.20
34.51
31.18
27.99
25.58
24.20
23.65
23.49
23.29
22.87
22.27
21.59
20.78
19.56
17.49
14.19
9.55
3.89
-2.24
-8.15
-13.36
-17.72
-21.44
-25.01
-29.07
-34.15
-40.51
-47.89
-55.47
-61.91
-65.69
-65.50
-60.65
-51.36
-38.61
-24.00
-9.29
4.02
14.89
22.81
27.74
30.00
30.10
28.64
26.23
23.42
20.56
17.82
15.14
12.37
9.31
5.84
1.90
-2.43
-7.03
-11.68
-16.17
-20.37
-24.30
-28.17
-32.31
-36.95
-41.98
-46.83
-50.54
-52.09
-50.71
-46.23
-39.10
-30.34
-21.12
-12.55
-5.31
0.49
5.36
10.27
16.26
24.10
33.90
45.10
56.68
67.50
76.59
83.31
87.25
88.25
86.24
81.41
74.28
65.72
56.84
48.67
41.95
36.89
33.25
30.47
27.97
25.33
22.38
19.16
15.77
12.24
8.49
4.41
-0.06
-4.81
-9.59
-14.18
-18.50
-22.68
-26.98
-31.61
-36.68
-42.17
-48.08
-54.36
-60.87
-67.16
-72.28
-74.96
-73.91
-68.34
-58.31
-44.79
-29.39
-13.85
0.45
12.69
22.56
30.06
35.29
38.37
39.57
39.25
37.96
36.25
34.56
33.10
31.89
30.83
29.85
28.88
27.88
26.82
25.59
24.16
22.48
20.50
18.07
14.99
11.04
6.16
0.53
-5.42
-11.13
-16.16
-20.35
-23.88
-27.23
-30.97
-35.62
-41.38
-48.03
-54.84
-60.63
-63.99
-63.62
-58.78
-49.56
-36.94
-22.53
-8.10
4.87
15.46
23.38
28.75
31.86
33.04
32.62
31.05
28.88
26.71
25.03
24.09
23.81
23.85
23.74
23.19
22.15
20.88
19.74
18.95
18.36
17.45
15.59
12.32
7.64
2.04
-3.70
-8.92
