1530045049.00
64.000000
-0.00
-0.00
-0.00
-0.00
-0.00
-0.00
-0.00
-0.00
-0.00
-0.00
0.00
0.01
0.01
-0.00
-0.03
-0.05
-0.05
0.00
0.13
0.36
0.66
1.01
1.37
1.72
2.06
2.40
2.79
3.24
3.80
4.43
5.08
5.70
6.28
6.82
7.38
8.04
8.85
9.91
11.15
12.47
13.73
14.90
16.00
17.17
18.61
20.44
22.89
25.78
28.87
31.88
34.68
37.34
40.17
43.59
47.91
53.50
60.02
66.99
73.88
80.35
86.51
92.81
99.92
108.33
118.58
130.22
142.52
154.71
166.29
177.27
188.19
200.26
212.08
225.90
242.41
261.92
283.43
304.16
319.75
325.34
317.24
294.31
258.87
214.91
167.09
119.05
72.62
28.03
-15.23
-57.50
-98.58
-137.47
-173.52
-206.39
-235.99
-262.32
-285.31
-305.01
-321.73
-336.44
-350.43
-365.24
-381.59
-398.58
-413.74
-423.25
-423.66
-413.10
-391.84
-362.07
-327.19
-290.68
-255.39
-223.19
-195.01
-170.90
-150.08
-131.30
-113.24
-95.23
-77.51
-61.06
-46.98
-35.72
-26.81
-19.06
-11.21
-2.72
6.00
13.89
20.01
24.12
26.91
29.55
33.02
37.45
42.00
45.33
46.39
45.11
42.55
40.38
39.96
41.62
44.35
46.46
46.45
43.91
39.80
35.86
33.74
33.99
35.82
37.51
37.41
34.89
30.66
26.39
23.81
23.65
25.27
27.05
27.35
25.46
21.99
18.55
16.74
17.24
19.39
21.55
22.06
20.23
16.66
12.95
10.74
10.82
12.67
14.86
15.89
15.09
13.00
11.06
10.67
12.33
15.28
17.88
18.54
16.65
12.96
9.17
6.95
7.04
8.87
10.86
11.43
9.89
6.81
3.73
2.22
2.94
5.24
7.54
8.20
6.50
3.05
-0.54
-2.56
-2.18
0.11
2.71
3.88
2.72
-0.34
-3.75
-5.78
-5.52
-3.44
-1.09
-0.23
-1.78
-5.24
-9.01
-11.29
-11.13
-8.98
-6.43
-5.23
-6.30
-9.21
-12.41
-14.16
-13.53
-10.88
-7.65
-5.54
-5.52
-7.27
-9.45
-10.45
-9.38
-6.59
-3.51
-1.82
-2.42
-4.96
-7.99
-9.79
-9.34
-6.94
-3.94
-1.99
-2.05
-3.81
-5.85
-6.53
-4.89
-1.30
2.77
5.54
5.96
4.28
1.97
0.80
1.86
4.94
8.60
11.07
11.25
9.42
7.04
5.98
7.40
11.09
15.58
18.99
20.09
18.96
16.94
15.84
16.86
19.89
23.59
26.18
26.48
24.63
22.00
20.46
21.20
24.11
27.75
30.18
30.10
27.54
23.89
21.06
20.36
21.75
23.87
24.86
23.50
19.97
15.77
12.80
12.32
14.17
16.85
18.45
17.70
14.70
10.81
7.86
7.05
8.31
10.35
11.44
10.46
7.55
3.99
1.56
1.41
3.44
6.27
8.05
7.53
4.75
1.09
-1.54
-1.78
0.37
3.57
5.89
5.97
3.76
0.53
-1.88
-2.18
-0.35
2.33
4.09
3.72
1.25
-2.00
-4.27
-4.31
-2.17
0.84
2.95
2.93
0.83
-2.07
-4.02
-3.80
-1.47
1.65
3.79
3.76
1.58
-1.45
-3.56
-3.55
-1.42
1.60
3.75
3.80
1.72
-1.28
-3.50
-3.69
-1.78
1.11
3.31
3.58
1.82
-0.86
-2.88
-3.04
-1.28
1.31
3.15
3.07
1.03
-1.81
-3.80
-3.70
-1.44
1.77
4.13
4.27
2.03
-1.34
-3.96
-4.37
-2.37
0.87
3.49
4.02
2.23
-0.74
-3.17
-3.70
-2.14
0.46
2.51
2.80
1.22
-1.20
-2.91
-2.80
-0.78
2.09
4.18
4.28
2.23
-0.87
-3.30
-3.71
-1.87
1.12
3.49
3.78
1.72
-1.56
-4.19
-4.65
-2.64
0.67
3.39
3.92
1.94
-1.40
-4.19
-4.80
-2.84
0.60
3.60
4.52
2.92
-0.19
-2.93
-3.72
-2.13
0.86
3.41
4.00
2.26
-0.80
-3.35
-3.89
-2.13
0.86
3.30
3.74
1.91
-1.11
-3.57
-4.03
-2.23
0.79
3.26
3.76
2.01
-0.92
-3.28
-3.63
-1.69
1.48
4.11
4.73
3.05
0.09
-2.39
-2.96
-1.35
1.40
3.59
3.85
1.95
-0.99
-3.27
-3.49
-1.46
1.68
4.12
4.39
2.24
-1.17
-3.98
-4.61
-2.68
0.76
3.81
4.81
3.25
0.02
-3.08
-4.39
-3.37
-0.81
1.64
2.49
1.25
-1.25
-3.39
-3.77
-1.97
1.08
3.69
4.38
2.71
-0.40
-3.22
-4.15
-2.65
0.43
3.35
4.45
3.14
0.17
-2.73
-3.90
-2.70
0.12
2.84
3.83
2.47
-0.46
-3.26
-4.31
-3.07
-0.37
2.09
2.77
1.22
-1.63
-4.05
-4.52
-2.64
0.60
3.44
4.30
2.72
-0.37
-3.22
-4.21
-2.78
0.26
3.21
4.39
3.18
0.28
-2.62
-3.83
-2.63
0.31
3.30
4.64
3.60
0.86
-1.88
-2.95
-1.67
1.22
4.00
4.95
3.43
0.18
-3.04
-4.55
-3.62
-0.96
1.81
3.04
2.07
-0.44
-2.86
-3.61
-2.04
1.10
4.12
5.29
3.91
0.67
-2.65
-4.22
-3.21
-0.26
2.85
4.27
3.13
0.05
-3.19
-4.75
-3.79
-0.94
2.03
3.32
2.12
-0.87
-3.89
-5.17
-3.94
-0.94
2.05
3.30
2.09
-0.80
-3.60
-4.58
-3.04
0.24
3.49
4.92
3.75
0.69
-2.52
-4.07
-3.09
-0.16
3.03
4.66
3.85
1.10
-1.92
-3.44
-2.59
0.09
2.95
4.21
3.04
0.04
-3.07
-4.48
-3.36
-0.35
2.86
4.45
3.57
0.80
-2.24
-3.79
-3.03
-0.52
2.19
3.46
2.51
-0.05
-2.68
-3.76
-2.55
0.32
3.27
4.59
3.50
0.53
-2.71
-4.46
-3.80
-1.18
1.83
3.47
2.79
0.20
-2.73
-4.24
-3.40
-0.68
2.36
3.94
3.17
0.51
-2.46
-4.01
-3.26
-0.67
2.21
3.69
2.92
0.35
-2.49
-3.92
-3.04
-0.29
2.83
4.61
4.09
1.66
-1.23
-2.86
-2.29
0.10
2.82
4.14
3.12
0.17
-3.14
-4.94
-4.18
-1.26
2.25
4.38
3.96
1.27
-2.16
-4.41
-4.25
-1.87
1.32
3.47
3.40
1.28
-1.51
-3.20
-2.67
-0.18
2.81
4.47
3.72
0.86
-2.51
-4.49
-3.91
-1.05
2.47
4.65
4.30
1.64
-1.77
-4.03
-3.94
-1.73
1.15
2.94
2.57
0.33
-2.39
-3.89
-3.21
-0.66
2.35
4.15
3.73
1.37
-1.58
-3.47
-3.28
-1.19
1.47
3.05
2.51
0.03
-2.99
-4.79
-4.21
-1.43
2.09
4.43
4.30
1.81
-1.61
-3.98
-3.96
-1.64
1.52
3.56
3.20
0.58
-2.74
-4.80
-4.31
-1.48
2.12
4.47
4.31
1.83
-1.44
-3.55
-3.26
-0.72
2.58
4.77
4.60
2.23
-0.94
-3.09
-2.98
-0.75
2.25
4.21
3.93
1.52
-1.69
-3.88
-3.84
-1.63
1.45
3.60
3.62
1.54
-1.32
-3.24
-3.03
-0.79
2.14
3.98
3.54
0.97
-2.36
-4.59
-4.46
-2.01
1.38
3.85
4.07
2.02
-1.05
-3.35
-3.60
-1.73
1.09
3.13
3.15
1.08
-1.91
-4.10
-4.23
-2.24
0.66
2.72
2.67
0.49
-2.57
-4.69
-4.56
-2.11
1.38
4.05
4.52
2.66
-0.30
-2.58
-2.83
-0.95
1.87
3.90
3.87
1.77
-1.20
-3.28
-3.25
-1.13
1.81
3.79
3.61
1.28
-1.90
-4.17
-4.26
-2.14
0.99
3.38
3.73
1.90
-1.01
-3.29
-3.64
-1.88
0.93
3.13
3.42
1.63
-1.13
-3.18
-3.25
-1.18
1.83
4.05
4.13
1.95
-1.30
-3.80
-4.13
-2.05
1.32
4.16
4.96
3.34
0.28
-2.47
-3.37
-1.99
0.77
3.17
3.68
1.87
-1.35
-4.19
-5.09
-3.58
-0.57
2.18
3.11
1.80
-0.81
-2.99
-3.29
-1.39
1.66
4.06
4.35
2.27
-1.03
-3.71
-4.24
-2.33
0.90
3.58
4.18
2.36
-0.78
-3.43
-4.01
-2.17
1.03
3.74
4.37
2.50
-0.85
-3.79
-4.69
-3.07
0.09
2.93
3.80
2.24
-0.78
-3.41
-4.04
-2.32
0.69
3.09
3.33
1.15
-2.21
-4.77
-4.94
-2.54
1.16
4.11
4.68
2.63
-0.79
-3.60
-4.21
-2.34
0.85
3.49
4.06
2.28
-0.77
-3.32
-3.94
-2.37
0.36
2.60
3.00
1.36
-1.29
-3.33
-3.46
-1.49
1.56
4.04
4.61
2.99
0.09
-2.45
-3.23
-1.79
1.05
3.70
4.62
3.24
0.29
-2.62
-3.89
-2.86
-0.18
2.53
3.67
2.57
-0.04
-2.53
-3.34
-1.93
0.86
3.34
3.94
2.24
-0.80
-3.42
-4.06
-2.28
0.91
3.71
4.47
2.71
-0.64
-3.74
-4.93
-3.63
-0.69
2.16
3.30
2.16
-0.42
-2.75
-3.30
-1.58
1.49
4.15
4.80
2.97
-0.41
-3.50
-4.63
-3.21
-0.10
2.89
4.03
2.64
-0.48
-3.55
-4.86
-3.71
-0.85
2.00
3.15
1.95
-0.82
-3.51
-4.48
-3.14
-0.26
2.48
3.49
2.16
-0.70
-3.38
-4.26
-2.70
0.50
3.61
4.92
3.76
0.86
-2.05
-3.28
-2.12
0.71
3.49
4.53
3.18
0.18
-2.72
-3.83
-2.52
0.44
3.30
4.37
2.99
-0.05
-3.07
-4.38
-3.32
-0.58
2.20
3.41
2.38
-0.22
-2.77
-3.71
-2.39
0.50
3.34
4.54
3.48
0.85
-1.72
-2.64
-1.30
1.56
4.28
5.26
3.86
0.77
-2.38
-3.98
-3.32
-0.95
1.62
2.87
2.09
-0.20
-2.57
-3.54
-2.46
0.06
2.51
3.36
1.96
-0.97
-3.78
-4.82
-3.36
-0.13
3.19
4.82
3.93
1.10
-2.05
-3.80
-3.29
-0.97
1.69
3.07
2.35
-0.01
-2.60
-3.83
-2.98
-0.55
1.95
2.95
1.74
-1.04
-3.78
-4.81
-3.39
-0.20
3.08
4.67
3.75
0.90
-2.23
-3.93
-3.35
-0.96
1.71
3.07
2.33
-0.06
-2.64
-3.87
-2.99
-0.48
2.25
3.65
2.98
0.72
-1.74
-2.89
-2.02
0.38
2.90
4.02
3.06
0.54
-2.10
-3.33
-2.42
0.13
2.88
4.22
3.33
0.63
-2.41
-4.12
-3.55
-0.98
2.12
4.02
3.61
1.13
-2.02
-4.07
-3.90
-1.71
1.15
2.93
2.57
0.32
-2.44
-3.98
-3.30
-0.74
2.25
3.94
3.32
0.78
-2.17
-3.75
-2.95
-0.14
3.14
5.08
4.56
1.89
-1.45
-3.65
-3.55
-1.35
1.56
3.47
3.27
1.14
-1.65
-3.46
-3.28
-1.31
1.17
2.61
2.06
-0.16
-2.71
-4.00
-3.14
-0.50
2.49
4.16
3.54
0.95
-2.15
-4.03
-3.68
-1.35
1.58
3.40
3.11
0.95
-1.74
-3.33
-2.89
-0.65
2.06
3.65
3.23
1.10
-1.43
-2.76
-2.01
0.51
3.42
5.07
4.50
1.94
-1.25
-3.40
-3.43
-1.51
1.09
2.73
2.37
0.21
-2.44
-3.91
-3.21
-0.63
2.41
4.11
3.44
0.70
-2.59
-4.58
-4.11
-1.45
1.89
3.98
3.63
1.06
-2.26
-4.41
-4.15
-1.66
1.65
3.85
3.71
1.34
-1.83
-3.93
-3.71
-1.32
1.83
3.86
3.55
1.10
-2.03
-3.92
-3.39
-0.68
2.67
4.67
4.11
1.23
-2.43
-4.88
-4.87
-2.55
0.61
2.70
2.51
0.16
-2.94
-4.95
-4.61
-2.00
1.52
4.08
4.38
2.38
-0.63
-2.81
-2.86
-0.74
2.29
4.43
4.39
2.19
-0.91
-3.10
-3.16
-1.12
1.75
3.71
3.55
1.31
-1.73
-3.86
-3.85
-1.71
1.37
3.67
3.92
2.04
-0.81
-2.93
-3.07
-1.12
1.78
3.90
3.95
1.86
-1.18
-3.41
-3.55
-1.54
1.38
3.46
3.45
1.34
-1.62
-3.73
-3.79
-1.83
0.95
2.86
2.76
0.68
-2.17
-4.13
-4.08
-2.04
0.78
2.73
2.61
0.46
-2.49
-4.49
-4.28
-1.84
1.59
4.18
4.57
2.64
-0.40
-2.73
-2.99
-1.07
1.85
3.93
3.86
1.57
-1.67
-3.97
-3.98
-1.68
1.62
4.00
4.07
1.77
-1.58
-4.07
-4.29
-2.15
1.10
3.59
3.95
2.04
-0.90
-3.08
-3.13
-0.91
2.35
4.80
5.05
2.93
-0.38
-2.99
-3.46
-1.59
1.45
3.82
4.06
2.00
-1.21
-3.72
-4.12
-2.25
0.74
3.05
3.32
1.40
-1.52
-3.71
-3.86
-1.88
0.97
2.97
2.84
0.60
-2.44
-4.47
-4.24
-1.79
1.50
3.76
3.69
1.35
-1.87
-4.05
-3.87
-1.34
2.15
4.64
4.72
2.32
-1.26
-4.05
-4.56
-2.54
0.80
3.56
4.17
2.30
-0.96
-3.76
-4.51
-2.82
0.29
3.04
3.86
2.32
-0.60
-3.16
-3.83
-2.16
0.88
3.58
4.40
2.93
0.11
-2.32
-2.86
-1.15
1.85
4.36
4.88
3.11
0.09
-2.36
-2.79
-0.98
1.92
4.08
4.07
1.73
-1.71
-4.41
-4.95
-3.15
-0.18
2.17
2.54
0.76
-2.05
-4.18
-4.29
-2.21
0.92
3.34
3.65
1.65
-1.55
-4.13
-4.59
-2.65
0.60
3.33
4.03
2.40
-0.54
-2.98
-3.46
-1.69
1.30
3.76
4.24
2.43
-0.66
-3.33
-4.10
-2.64
0.12
2.53
3.15
1.62
-1.16
-3.53
-4.05
-2.34
0.66
3.27
3.99
2.41
-0.57
-3.17
-3.89
-2.30
0.68
3.27
3.96
2.37
-0.52
-2.96
-3.46
-1.69
1.31
3.76
4.19
2.29
-0.87
-3.53
-4.19
-2.53
0.48
3.09
3.86
2.43
-0.26
-2.58
-3.15
-1.66
0.98
3.13
3.47
1.75
-1.06
-3.27
-3.54
-1.60
1.51
4.05
4.58
2.78
-0.32
-2.96
-3.64
-1.96
1.11
3.81
4.56
2.89
-0.31
-3.30
-4.48
-3.28
-0.50
2.21
3.25
2.05
-0.64
-3.18
-3.98
-2.47
0.54
3.36
4.34
2.86
-0.26
-3.28
-4.52
-3.33
-0.50
2.24
3.23
1.88
-0.98
-3.58
-4.32
-2.69
0.37
3.03
3.70
1.94
-1.21
-3.88
-4.40
-2.33
1.27
4.44
5.42
3.67
0.12
-3.29
-4.74
-3.54
-0.48
2.63
4.02
2.99
0.23
-2.50
-3.53
-2.18
0.78
3.62
4.68
3.32
0.34
-2.54
-3.66
-2.46
0.23
2.68
3.30
1.60
-1.51
-4.25
-5.00
-3.27
0.03
3.08
4.16
2.66
-0.57
-3.70
-4.93
-3.50
-0.13
3.38
5.19
4.41
1.60
-1.56
-3.24
-2.57
-0.06
2.69
3.97
2.98
0.29
-2.54
-3.86
-2.94
-0.39
2.22
3.29
2.14
-0.57
-3.24
-4.25
-2.93
0.03
3.00
4.30
3.23
0.42
-2.49
-3.85
-2.95
-0.40
2.22
3.28
2.07
-0.75
-3.60
-4.81
-3.64
-0.67
2.50
4.19
3.61
1.29
-1.25
-2.36
-1.29
1.36
3.99
4.92
3.40
0.08
-3.32
-5.01
-4.12
-1.26
1.88
3.51
2.72
0.01
-2.96
-4.41
-3.43
-0.51
2.75
4.52
3.86
1.20
-1.84
-3.48
-2.80
-0.26
2.55
3.91
2.98
0.31
-2.48
-3.70
-2.57
0.28
3.19
4.40
3.14
0.05
-3.18
-4.74
-3.70
-0.62
2.82
4.71
4.02
1.14
-2.27
-4.30
-3.80
-1.14
2.09
3.97
3.39
0.72
-2.45
-4.23
-3.58
-0.91
2.17
3.80
3.05
0.44
-2.39
-3.65
-2.48
0.52
3.63
5.06
3.95
0.96
-2.23
-3.80
-2.86
0.01
3.15
4.73
3.83
0.91
-2.45
-4.47
-4.15
-1.86
0.95
2.55
1.98
-0.42
-3.20
-4.68
-3.91
-1.23
1.91
3.79
3.39
1.00
-1.97
-3.79
-3.40
-1.04
1.91
3.70
3.29
0.91
-2.01
-3.73
-3.16
-0.54
2.67
4.65
4.26
1.69
-1.62
-3.80
-3.64
-1.27
1.90
4.04
3.94
1.71
-1.29
-3.30
-3.14
-0.99
1.77
3.37
2.72
0.10
-3.05
-4.90
-4.37
-1.78
1.36
3.25
2.81
0.35
-2.62
-4.31
-3.68
-1.06
2.03
3.79
3.18
0.51
-2.66
-4.50
-3.88
-1.06
2.48
4.86
4.90
2.77
-0.18
-2.19
-2.16
-0.26
2.19
3.57
2.88
0.40
-2.46
-4.03
-3.34
-0.67
2.51
4.42
3.96
1.31
-2.11
-4.48
-4.55
-2.34
0.86
3.24
3.50
1.59
-1.27
-3.30
-3.23
-0.98
2.19
4.47
4.48
2.15
-1.29
-3.96
-4.45
-2.61
0.38
2.73
3.08
1.30
-1.44
-3.42
-3.39
-1.32
1.59
3.60
3.50
1.33
-1.65
-3.71
-3.65
-1.54
1.31
3.15
2.76
0.28
-2.90
-4.92
-4.52
-1.84
1.69
4.12
4.11
1.71
-1.65
-4.00
-3.97
-1.54
1.91
4.44
4.67
2.52
-0.70
-3.13
-3.40
-1.45
1.51
3.66
3.68
1.54
-1.55
-3.75
-3.73
-1.45
1.81
4.17
4.29
2.11
-1.06
-3.39
-3.54
-1.46
1.55
3.71
3.71
1.54
-1.55
-3.76
-3.83
-1.73
1.26
3.38
3.37
1.24
-1.72
-3.72
-3.46
-0.97
2.42
4.82
4.85
2.46
-1.07
-3.81
-4.32
-2.43
0.66
3.07
3.40
1.47
-1.53
-3.81
-3.97
-1.90
1.22
3.57
3.79
1.76
-1.32
-3.63
-3.81
-1.72
1.44
3.87
4.16
2.14
-1.03
-3.56
-4.01
-2.12
1.04
3.67
4.35
2.82
0.11
-2.06
-2.34
-0.51
2.34
4.48
4.57
2.40
-0.91
-3.60
-4.21
-2.46
0.62
3.26
3.97
2.34
-0.67
-3.36
-4.21
-2.77
0.06
2.57
3.25
1.69
-1.22
-3.76
-4.46
-2.98
-0.24
2.07
2.56
0.99
-1.61
-3.57
-3.57
-1.46
1.64
3.96
4.13
1.96
-1.38
-4.06
-4.59
-2.65
0.64
3.43
4.16
2.43
-0.71
-3.44
-4.15
-2.41
0.75
3.52
4.29
2.64
-0.44
-3.15
-3.92
-2.31
0.72
3.39
4.13
2.47
-0.64
-3.45
-4.40
-3.01
-0.17
2.45
3.30
1.94
-0.75
-3.10
-3.63
-1.89
1.16
3.82
4.55
2.89
-0.23
-3.08
-4.05
-2.59
0.44
3.30
4.34
2.93
-0.12
-3.09
-4.31
-3.13
-0.32
2.42
3.45
2.17
-0.62
-3.18
-3.91
-2.28
0.85
3.67
4.53
2.94
-0.19
-3.05
-4.00
-2.53
0.40
3.03
3.77
2.16
-0.84
-3.45
-4.11
-2.41
0.67
3.37
4.12
2.50
-0.55
-3.28
-4.09
-2.53
0.51
3.30
4.21
2.73
-0.33
-3.22
-4.30
-2.98
-0.03
2.83
3.96
2.71
-0.16
-2.97
-4.06
-2.79
0.11
2.96
4.11
2.88
0.02
-2.83
-3.99
-2.79
0.04
2.86
3.96
2.68
-0.28
-3.20
-4.34
-2.95
0.23
3.47
4.94
3.85
0.89
-2.21
-3.65
-2.60
0.26
3.19
4.41
3.10
-0.03
-3.22
-4.65
-3.50
-0.42
2.82
4.38
3.40
0.48
-2.68
-4.27
-3.39
-0.64
2.30
3.63
2.53
-0.40
-3.43
-4.78
-3.62
-0.60
2.59
4.16
3.29
0.59
-2.32
-3.78
-3.03
-0.64
1.85
2.91
1.89
-0.56
-2.94
-3.73
-2.34
0.57
3.45
4.72
3.74
1.14
-1.51
-2.62
-1.50
1.22
3.91
4.92
3.51
0.29
-3.08
-4.84
-4.16
-1.59
1.28
2.72
1.90
-0.63
-3.28
-4.33
-2.97
0.24
3.62
5.38
4.58
1.71
-1.59
-3.49
-3.01
-0.54
2.36
3.94
3.25
0.73
-2.10
-3.52
-2.67
-0.05
2.75
3.96
2.72
-0.40
-3.71
-5.37
-4.39
-1.29
2.22
4.20
3.60
0.81
-2.56
-4.60
-4.24
-1.80
1.22
3.04
2.65
0.40
-2.27
-3.69
-2.99
-0.54
2.22
3.69
3.05
0.72
-1.89
-3.22
-2.47
-0.10
2.46
3.62
2.58
-0.19
-3.17
-4.68
-3.81
-1.00
2.21
4.05
3.53
1.01
-1.99
-3.69
-3.10
-0.51
2.58
4.44
4.07
1.80
-0.94
-2.46
-1.82
0.60
3.32
4.61
3.56
0.58
-2.79
-4.74
-4.23
-1.58
1.71
3.82
3.66
1.46
-1.39
-3.19
-2.92
-0.84
1.72
3.11
2.43
0.03
-2.66
-3.99
-3.06
-0.28
2.83
4.50
3.75
0.95
-2.39
-4.45
-4.17
-1.78
1.28
3.26
3.07
0.92
-1.84
-3.51
-3.05
-0.69
2.19
3.83
3.20
0.56
-2.60
-4.49
-3.98
-1.33
1.97
4.04
3.73
1.27
-1.87
-3.86
-3.53
-1.10
2.03
4.03
3.78
1.47
-1.55
-3.51
-3.31
-1.13
1.71
3.49
3.10
0.73
-2.31
-4.25
-3.93
-1.48
1.75
3.99
4.01
1.93
-0.95
-2.83
-2.53
-0.19
2.83
4.66
4.09
1.27
-2.34
-4.74
-4.57
-1.89
1.86
4.62
4.93
2.70
-0.72
-3.37
-3.80
-1.92
1.01
3.09
2.98
0.65
-2.56
-4.77
-4.67
-2.22
1.22
3.76
4.03
1.96
-1.16
-3.49
-3.68
-1.65
1.39
3.65
3.82
1.82
-1.15
-3.35
-3.47
-1.42
1.63
3.91
4.06
1.90
-1.45
-4.22
-4.98
-3.42
-0.52
2.04
2.83
1.47
-1.13
-3.33
-3.74
-2.05
0.81
3.17
3.67
2.02
-0.76
-3.04
-3.42
-1.65
1.28
3.70
4.23
2.58
-0.29
-2.71
-3.26
-1.63
1.28
3.81
4.51
2.96
-0.00
-2.76
-3.83
-2.71
-0.18
2.20
2.96
1.65
-0.90
-3.06
-3.41
-1.58
1.46
3.96
4.40
2.42
-0.94
-3.84
-4.68
-3.01
0.14
2.95
3.85
2.41
-0.42
-2.93
-3.63
-2.15
0.59
2.92
3.44
1.84
-0.92
-3.23
-3.69
-2.03
0.80
3.15
3.63
1.91
-1.06
-3.62
-4.33
-2.79
0.12
2.73
3.53
2.07
-0.84
-3.50
-4.35
-2.89
0.09
2.90
3.96
2.71
-0.06
-2.69
-3.64
-2.40
0.25
2.70
3.47
2.11
-0.55
-2.89
-3.45
-1.82
1.15
3.80
4.65
3.22
0.38
-2.19
-2.96
-1.44
1.52
4.17
4.91
3.21
-0.08
-3.18
-4.41
-3.19
-0.35
2.36
3.29
1.85
-1.12
-3.84
-4.63
-2.92
0.45
3.63
4.88
3.54
0.44
-2.65
-3.94
-2.72
0.23
3.16
4.32
2.99
-0.07
-3.09
-4.35
-3.12
-0.15
2.80
4.00
2.76
-0.21
-3.19
-4.50
-3.45
-0.68
2.15
3.42
2.46
-0.10
-2.70
-3.81
-2.81
-0.36
2.00
2.80
1.52
-1.12
-3.54
-4.26
-2.78
0.12
2.85
3.89
2.71
0.05
-2.51
-3.49
-2.31
0.30
2.80
3.69
2.40
-0.37
-2.99
-3.88
-2.39
0.81
4.03
5.59
4.69
1.94
-1.04
-2.54
-1.76
0.73
3.38
4.53
3.43
0.63
-2.30
-3.72
-2.90
-0.37
2.29
3.49
2.48
-0.14
-2.83
-3.95
-2.76
0.15
3.17
4.58
3.57
0.67
-2.52
-4.26
-3.68
-1.26
1.47
2.81
1.91
-0.76
-3.73
-5.31
-4.63
-2.13
0.75
2.38
1.96
-0.07
-2.27
-3.08
-1.82
0.95
3.65
4.65
3.23
0.05
-3.20
-4.74
-3.71
-0.67
2.72
4.65
4.17
1.69
-1.26
-2.98
-2.53
-0.34
2.18
3.39
2.46
-0.13
-2.86
-4.07
-2.98
-0.10
2.98
4.55
3.74
1.04
-1.99
-3.61
-2.95
-0.48
2.23
3.46
2.39
-0.46
-3.47
-4.86
-3.74
-0.63
2.77
4.59
3.84
1.00
-2.28
-4.11
-3.47
-0.79
2.35
4.10
3.49
0.91
-2.11
-3.79
-3.19
-0.68
2.24
3.85
3.21
0.67
-2.31
-4.04
-3.53
-1.12
1.76
3.41
2.84
0.39
-2.49
-4.07
-3.38
-0.79
2.20
3.84
3.19
0.65
-2.25
-3.76
-2.98
-0.37
2.52
3.94
3.04
0.29
-2.70
-4.20
-3.30
-0.51
2.57
4.18
3.37
0.62
-2.51
-4.24
-3.58
-0.90
2.28
4.18
3.77
1.32
-1.74
-3.69
-3.44
-1.20
1.69
3.54
3.31
1.25
-1.32
-2.75
-2.09
0.34
3.09
4.45
3.50
0.62
-2.63
-4.48
-3.91
-1.29
1.88
3.76
3.34
0.92
-2.03
-3.72
-3.14
-0.59
2.43
4.10
3.37
0.53
-2.88
-5.00
-4.68
-2.12
1.23
3.51
3.55
1.48
-1.37
-3.28
-3.13
-1.08
1.58
3.23
2.90
0.86
-1.57
-2.81
-1.98
0.52
3.29
4.67
3.76
0.93
-2.34
-4.31
-3.92
-1.43
1.74
3.85
3.78
1.68
-1.16
-3.03
-2.82
-0.69
2.05
3.70
3.18
0.73
-2.25
-4.00
-3.47
-0.94
2.13
3.93
3.38
0.76
-2.46
-4.45
-4.09
-1.61
1.56
3.62
3.44
1.23
-1.65
-3.44
-3.07
-0.72
2.24
4.07
3.67
1.19
-2.04
-4.29
-4.42
-2.51
0.26
2.23
2.29
0.49
-2.00
-3.57
-3.14
-0.83
2.12
3.99
3.64
1.18
-2.04
-4.16
-3.93
-1.41
2.01
4.42
4.50
2.26
-0.95
-3.26
-3.36
-1.33
1.52
3.37
3.05
0.70
-2.29
-4.12
-3.67
-1.11
2.13
4.27
4.14
1.90
-1.08
-3.06
-2.91
-0.80
1.98
3.74
3.39
1.13
-1.70
-3.41
-2.94
-0.56
2.29
3.82
2.97
0.05
-3.37
-5.38
-4.80
-1.86
1.88
4.43
4.51
2.22
-1.03
-3.33
-3.42
-1.31
1.69
3.77
3.68
1.45
-1.66
-3.84
-3.81
-1.58
1.58
3.83
3.87
1.70
-1.40
-3.58
-3.55
-1.32
1.77
3.91
3.86
1.71
-1.19
-3.03
-2.70
-0.41
2.37
3.89
3.09
0.34
-2.82
-4.56
-3.87
-1.14
2.05
3.84
3.15
0.30
-3.18
-5.42
-5.28
-2.92
0.29
2.59
2.87
1.21
-1.14
-2.59
-2.11
0.09
2.70
4.12
3.41
0.86
-2.10
-3.78
-3.17
-0.55
2.64
4.62
4.27
1.77
-1.51
-3.78
-3.84
-1.69
1.40
3.68
3.84
1.81
-1.27
-3.68
-4.07
-2.25
0.68
3.03
3.49
1.86
-0.80
-2.85
-3.00
-1.12
1.66
3.66
3.62
1.48
-1.59
-3.81
-3.89
-1.73
1.45
3.83
4.03
1.94
-1.27
-3.80
-4.25
-2.48
0.36
2.52
2.73
0.92
-1.74
-3.58
-3.41
-1.26
1.62
3.55
3.40
1.24
-1.66
-3.59
-3.38
-1.10
1.98
4.13
4.13
1.97
-1.12
-3.38
-3.54
-1.48
1.62
4.03
4.45
2.74
-0.01
-2.18
-2.52
-0.94
1.47
3.09
2.77
0.47
-2.61
-4.80
-4.85
-2.67
0.54
3.06
3.59
1.96
-0.77
-2.96
-3.32
-1.66
0.99
3.05
3.29
1.54
-1.15
-3.20
-3.34
-1.43
1.47
3.71
3.98
2.10
-0.86
-3.22
-3.65
-1.88
1.06
3.51
4.09
2.52
-0.22
-2.52
-3.01
-1.40
1.32
3.51
3.80
1.93
-1.09
-3.56
-4.09
-2.41
0.42
2.67
2.96
1.03
-1.98
-4.31
-4.57
-2.58
0.51
2.91
3.22
1.30
-1.67
-3.88
-3.95
-1.71
1.61
4.16
4.46
2.33
-1.01
-3.66
-4.10
-2.05
1.33
4.16
4.87
3.10
-0.10
-2.92
-3.85
-2.52
0.11
2.35
2.80
1.19
-1.45
-3.46
-3.51
-1.46
1.56
3.82
3.95
1.85
-1.30
-3.68
-3.87
-1.71
1.62
4.26
4.74
2.85
-0.30
-2.88
-3.48
-1.86
0.88
2.99
3.13
1.14
-1.82
-3.99
-4.05
-1.87
1.37
3.85
4.18
2.17
-1.09
-3.82
-4.59
-3.09
-0.30
2.13
2.78
1.35
-1.25
-3.35
-3.55
-1.56
1.63
4.29
4.91
3.11
-0.12
-3.00
-3.97
-2.58
0.24
2.76
3.48
2.00
-0.75
-3.05
-3.48
-1.70
1.29
3.76
4.23
2.37
-0.80
-3.47
-4.09
-2.28
0.96
3.79
4.61
2.96
-0.18
-3.02
-3.96
-2.56
0.24
2.69
3.27
1.63
-1.27
-3.67
-4.14
-2.37
0.64
3.11
3.61
1.86
-1.06
-3.38
-3.65
-1.62
1.57
4.07
4.42
2.37
-0.94
-3.63
-4.18
-2.24
1.12
4.04
4.97
3.48
0.54
-2.08
-2.85
-1.32
1.57
4.08
4.66
2.90
-0.28
-3.13
-4.07
-2.65
0.23
2.80
3.53
1.97
-0.96
-3.54
-4.30
-2.82
-0.05
2.29
2.75
0.98
-2.02
-4.49
-4.93
-3.01
0.23
2.95
3.62
1.87
-1.24
-3.89
-4.50
-2.66
0.64
3.60
4.59
3.12
0.08
-2.77
-3.81
-2.50
0.37
3.05
3.98
2.63
-0.20
-2.79
-3.59
-2.14
0.70
3.16
3.71
1.97
-1.07
-3.58
-4.03
-2.10
1.09
3.69
4.15
2.19
-1.07
-3.77
-4.38
-2.61
0.50
3.19
3.98
2.49
-0.34
-2.86
-3.63
-2.23
0.53
3.07
3.94
2.67
-0.02
-2.56
-3.48
-2.26
0.38
2.85
3.68
2.35
-0.36
-2.84
-3.60
-2.18
0.56
2.94
3.44
1.69
-1.38
-3.94
-4.46
-2.52
0.86
3.79
4.63
2.89
-0.46
-3.57
-4.72
-3.30
-0.14
3.02
4.48
3.59
1.04
-1.52
-2.52
-1.38
1.19
3.57
4.21
2.57
-0.54
-3.45
-4.55
-3.28
-0.43
2.28
3.25
1.88
-1.03
-3.76
-4.72
-3.32
-0.40
2.35
3.33
2.02
-0.76
-3.29
-3.99
-2.34
0.81
3.77
4.92
3.70
0.85
-2.03
-3.37
-2.57
-0.26
2.10
3.05
2.05
-0.25
-2.41
-3.00
-1.53
1.28
3.87
4.69
3.18
0.07
-2.99
-4.34
-3.24
-0.34
2.70
4.15
3.21
0.45
-2.46
-3.80
-2.75
0.09
3.04
4.35
3.21
0.27
-2.80
-4.20
-3.15
-0.30
2.66
3.98
2.85
-0.08
-3.14
-4.58
-3.57
-0.74
2.23
3.54
2.35
-0.75
-4.04
-5.67
-4.69
-1.68
1.67
3.48
2.81
0.18
-2.75
-4.18
-3.16
-0.25
2.96
4.68
4.06
1.58
-1.21
-2.65
-1.92
0.49
3.10
4.29
3.30
0.66
-2.16
-3.54
-2.71
-0.18
2.52
3.71
2.59
-0.29
-3.35
-4.87
-3.97
-1.14
2.02
3.77
3.19
0.76
-1.99
-3.35
-2.46
0.16
2.93
4.12
2.88
-0.22
-3.53
-5.20
-4.27
-1.23
2.23
4.19
3.65
1.06
-1.92
-3.41
-2.41
0.57
3.82
5.44
4.45
1.36
-2.11
-4.05
-3.47
-0.85
2.14
3.62
2.63
-0.35
-3.64
-5.34
-4.44
-1.42
2.07
4.08
3.58
0.99
-2.10
-3.83
-3.16
-0.52
2.51
4.10
3.29
0.52
-2.61
-4.26
-3.42
-0.49
2.94
5.00
4.62
2.09
-1.04
-2.96
-2.57
-0.17
2.75
4.44
3.84
1.29
-1.74
-3.47
-2.92
-0.43
2.48
4.02
3.21
0.45
-2.68
-4.37
-3.60
-0.82
2.39
4.16
3.45
0.68
-2.61
-4.56
-4.18
-1.80
1.04
2.61
1.97
-0.47
-3.20
-4.51
-3.54
-0.80
2.16
3.62
2.76
0.13
-2.66
-3.90
-2.71
0.34
3.61
5.29
4.43
1.45
-2.05
-4.23
-4.00
-1.64
1.39
3.32
3.08
0.90
-1.80
-3.32
-2.67
-0.20
2.60
4.02
3.10
0.31
-2.81
-4.49
-3.75
-0.99
2.23
4.12
3.64
1.12
-1.96
-3.85
-3.46
-1.06
1.94
3.78
3.39
1.01
-1.96
-3.77
-3.36
-0.97
1.97
3.72
3.23
0.77
-2.22
-3.99
-3.50
-1.00
2.06
3.87
3.32
0.67
-2.64
-4.77
-4.52
-2.06
1.22
3.46
3.48
1.40
-1.41
-3.18
-2.79
-0.43
2.51
4.27
3.78
1.25
-1.87
-3.84
-3.54
-1.14
1.98
4.07
3.94
1.68
-1.45
-3.72
-3.88
-1.89
1.07
3.28
3.46
1.49
-1.45
-3.62
-3.69
-1.52
1.70
4.15
4.41
2.31
-0.96
-3.51
-3.87
-1.87
1.30
3.76
4.05
2.00
-1.12
-3.43
-3.52
-1.28
1.96
4.31
4.34
2.03
-1.26
-3.64
-3.74
-1.54
1.59
3.79
3.73
1.40
-1.89
-4.30
-4.50
-2.44
0.68
3.06
3.35
1.44
-1.54
-3.82
-4.06
-2.14
0.82
3.02
3.10
0.92
-2.31
-4.76
-5.01
-2.88
0.44
3.11
3.69
1.96
-0.92
-3.20
-3.47
-1.54
1.47
3.82
4.18
2.41
-0.40
-2.49
-2.53
-0.36
2.90
5.43
5.78
3.68
0.20
-2.86
-3.96
-2.70
-0.01
2.42
3.08
1.58
-1.18
-3.51
-3.97
-2.21
0.79
3.28
3.82
2.07
-0.97
-3.55
-4.19
-2.55
0.38
2.88
3.50
1.94
-0.85
-3.16
-3.59
-1.80
1.22
3.74
4.27
2.45
-0.72
-3.47
-4.25
-2.61
0.52
3.35
4.28
2.82
-0.17
-2.96
-4.02
-2.85
-0.31
1.97
2.59
1.19
-1.31
-3.30
-3.46
-1.56
1.37
3.63
3.84
1.79
-1.41
-3.95
-4.34
-2.26
1.24
4.30
5.28
3.70
0.45
-2.70
-4.10
-3.13
-0.55
1.99
2.94
1.77
-0.74
-2.94
-3.36
-1.58
1.48
4.09
4.71
2.91
-0.34
-3.28
-4.33
-2.97
-0.13
2.47
3.29
1.84
-1.02
-3.59
-4.35
-2.82
0.19
2.97
3.93
2.54
-0.44
-3.31
-4.45
-3.23
-0.36
2.48
3.67
2.55
-0.17
-2.86
-3.90
-2.62
0.27
3.12
4.33
3.24
0.59
-1.94
-2.76
-1.26
1.76
4.59
5.56
4.08
0.94
-2.14
-3.45
-2.34
0.46
3.22
4.27
2.94
-0.05
-3.01
-4.31
-3.30
-0.66
1.97
3.02
1.88
-0.75
-3.29
-4.17
-2.82
0.01
2.72
3.73
2.49
-0.28
-2.97
-4.00
-2.77
0.04
2.80
3.94
2.81
0.10
-2.59
-3.68
-2.54
0.14
2.73
3.67
2.33
-0.55
-3.36
-4.48
-3.30
-0.50
2.31
3.53
2.55
0.04
-2.48
-3.51
-2.49
-0.09
2.19
2.89
1.49
-1.28
-3.85
-4.70
-3.24
-0.17
2.89
4.34
3.49
0.94
-1.77
-3.05
-2.20
0.18
2.59
3.51
2.30
-0.39
-3.03
-4.07
-2.88
-0.15
2.55
3.65
2.50
-0.21
-2.87
-3.89
-2.59
0.33
3.22
4.39
3.14
0.12
-2.99
-4.49
-3.57
-0.78
2.29
3.97
3.45
1.20
-1.34
-2.62
-1.92
0.28
2.59
3.54
2.47
-0.08
-2.69
-3.85
-2.88
-0.29
2.44
3.78
2.94
0.45
-2.22
-3.47
-2.51
0.15
2.98
4.35
3.45
0.78
-2.09
-3.50
-2.66
-0.12
2.56
3.75
2.67
-0.09
-2.95
-4.24
-3.19
-0.37
2.65
4.17
3.35
0.70
-2.22
-3.69
-2.83
-0.13
2.81
4.19
3.08
-0.03
-3.46
-5.30
-4.48
-1.46
2.09
4.18
3.72
1.05
-2.23
-4.22
-3.85
-1.45
1.48
3.17
2.63
0.25
-2.48
-3.84
-2.90
-0.15
2.87
4.40
3.52
0.72
-2.43
-4.12
-3.38
-0.64
2.52
4.26
3.55
0.77
-2.54
-4.48
-3.94
-1.18
2.30
4.62
4.58
2.36
-0.68
-2.72
-2.61
-0.52
2.17
3.71
3.03
0.38
-2.81
-4.79
-4.47
-2.11
0.86
2.65
2.22
-0.17
-3.05
-4.61
-3.73
-0.70
2.96
5.30
5.08
2.49
-0.97
-3.30
-3.19
-0.73
2.58
4.77
4.50
1.88
-1.60
-3.92
-3.78
-1.27
2.13
4.43
4.32
1.91
-1.36
-3.57
-3.44
-1.07
2.08
4.14
3.86
1.34
-2.03
-4.41
-4.53
-2.48
0.47
2.56
2.60
0.70
-1.92
-3.57
-3.20
-0.95
1.86
3.57
3.11
0.67
-2.36
-4.21
-3.77
-1.20
2.06
4.18
3.95
1.50
-1.75
-3.97
-3.92
-1.69
1.36
3.42
3.29
1.05
-1.98
-4.08
-4.04
-1.91
1.06
3.19
3.27
1.32
-1.52
-3.56
-3.59
-1.55
1.42
3.62
3.78
1.81
-1.13
-3.29
-3.36
-1.26
1.80
4.01
4.01
1.74
-1.53
-3.91
-3.99
-1.69
1.70
4.26
4.55
2.48
-0.68
-3.02
-3.16
-0.99
2.21
4.56
4.68
2.51
-0.66
-3.00
-3.20
-1.21
1.70
3.75
3.70
1.58
-1.34
-3.36
-3.33
-1.37
1.18
2.65
1.95
-0.69
-3.84
-5.71
-5.15
-2.39
1.12
3.49
3.46
1.16
-2.03
-4.24
-4.21
-1.97
1.16
3.42
3.55
1.58
-1.27
-3.32
-3.39
-1.46
1.32
3.36
3.49
1.68
-0.99
-2.94
-3.00
-1.05
1.85
4.11
4.43
2.58
-0.47
-3.11
-3.93
-2.54
0.20
2.70
3.55
2.32
-0.17
-2.37
-2.88
-1.31
1.42
3.70
4.07
2.21
-0.89
-3.50
-4.10
-2.32
0.86
3.63
4.46
2.88
-0.20
-3.09
-4.25
-3.22
-0.82
1.39
2.03
0.76
-1.58
-3.41
-3.46
-1.50
1.49
3.84
4.25
2.53
-0.24
-2.34
-2.46
-0.45
2.52
4.65
4.58
2.17
-1.37
-4.21
-4.88
-3.17
-0.15
2.42
3.16
1.75
-0.86
-3.07
-3.56
-2.01
0.65
2.86
3.31
1.72
-1.01
-3.26
-3.68
-2.00
0.84
3.15
3.55
1.73
-1.29
-3.80
-4.33
-2.53
0.58
3.24
3.93
2.27
-0.75
-3.37
-4.05
-2.37
0.72
3.47
4.35
2.91
0.09
-2.45
-3.25
-1.95
0.51
2.52
2.73
0.90
-1.92
-4.04
-4.08
-1.80
1.65
4.43
5.00
3.03
-0.39
-3.34
-4.15
-2.39
0.90
3.82
4.75
3.22
0.23
-2.42
-3.20
-1.74
1.03
3.38
3.89
2.20
-0.78
-3.39
-4.19
-2.80
-0.03
2.52
3.38
2.07
-0.64
-3.14
-3.95
-2.51
0.34
2.95
3.73
2.14
-0.93
-3.69
-4.50
-2.82
0.42
3.33
4.25
2.62
-0.65
-3.71
-4.87
-3.55
-0.59
2.25
3.31
2.02
-0.83
-3.51
-4.38
-2.87
0.26
3.26
4.46
3.24
0.37
-2.39
-3.35
-1.88
1.21
4.14
5.22
3.87
0.95
-1.73
-2.54
-0.96
2.09
4.78
5.43
3.53
0.03
-3.22
-4.56
-3.39
-0.58
2.14
3.13
1.82
-1.00
-3.66
-4.55
-3.12
-0.11
2.76
3.87
2.57
-0.44
-3.46
-4.81
-3.78
-1.04
1.77
3.02
2.08
-0.34
-2.65
-3.30
-1.80
1.04
3.54
4.16
2.46
-0.68
-3.50
-4.44
-2.97
0.06
2.92
4.00
2.70
-0.22
-3.07
-4.20
-2.97
-0.07
2.81
4.03
2.88
0.06
-2.76
-3.91
-2.68
0.24
3.18
4.46
3.38
0.61
-2.23
-3.49
-2.52
0.02
2.51
3.39
2.03
-0.81
-3.47
-4.30
-2.71
0.48
3.52
4.65
3.20
-0.07
-3.34
-4.79
-3.67
-0.64
2.52
4.03
3.11
0.40
-2.41
-3.63
-2.54
0.21
3.00
4.20
3.15
0.48
-2.21
-3.34
-2.25
0.39
2.98
3.95
2.68
-0.16
-2.96
-4.11
-2.97
-0.24
2.46
3.54
2.34
-0.46
-3.24
-4.41
-3.29
-0.51
2.35
3.73
2.92
0.48
-2.10
-3.27
-2.35
0.11
2.66
3.78
2.77
0.19
-2.43
-3.51
-2.31
0.58
3.57
4.93
3.80
0.67
-2.80
-4.79
-4.27
-1.66
1.47
3.28
2.73
0.20
-2.79
-4.44
-3.77
-1.20
1.70
3.18
2.31
-0.41
-3.38
-4.82
-3.82
-0.89
2.36
4.13
3.53
1.07
-1.68
-3.00
-2.06
0.61
3.44
4.73
3.70
0.92
-2.02
-3.49
-2.69
-0.18
2.52
3.82
2.96
0.46
-2.23
-3.57
-2.84
-0.52
1.94
3.03
2.05
-0.50
-3.14
-4.34
-3.36
-0.71
2.14
3.61
2.92
0.57
-2.01
-3.24
-2.40
0.03
2.59
3.75
2.81
0.33
-2.23
-3.31
-2.19
0.58
3.50
4.95
4.11
1.45
-1.57
-3.29
-2.82
-0.51
2.21
3.75
3.18
0.81
-1.99
-3.64
-3.25
-1.12
1.44
2.89
2.38
0.21
-2.33
-3.76
-3.25
-1.16
1.28
2.58
1.98
-0.16
-2.54
-3.70
-2.86
-0.46
2.14
3.37
2.41
-0.31
-3.31
-4.89
-4.08
-1.23
2.14
4.26
4.10
1.90
-0.88
-2.54
-2.09
0.18
2.86
4.32
3.62
1.13
-1.72
-3.26
-2.59
-0.09
2.81
4.40
3.73
1.14
-1.95
-3.86
-3.58
-1.40
1.29
2.83
2.28
-0.01
-2.62
-3.88
-2.90
-0.11
2.94
4.47
3.53
0.54
-2.86
-4.80
-4.22
-1.48
1.84
3.83
3.38
0.79
-2.39
-4.29
-3.79
-1.18
2.04
4.02
3.64
1.18
-1.90
-3.79
-3.39
-0.94
2.11
4.00
3.62
1.22
-1.83
-3.76
-3.50
-1.29
1.51
3.17
2.69
0.37
-2.39
-3.89
-3.16
-0.54
2.52
4.28
3.73
1.19
-1.92
-3.82
-3.46
-1.07
1.96
3.87
3.58
1.27
-1.69
-3.56
-3.22
-0.83
2.24
4.21
3.94
1.60
-1.46
-3.49
-3.37
-1.27
1.49
3.24
2.91
0.77
-1.87
-3.32
-2.62
-0.04
2.94
4.59
3.84
1.01
-2.38
-4.48
-4.13
-1.58
1.67
3.75
3.48
1.04
-2.12
-4.20
-4.01
-1.70
1.37
3.43
3.33
1.17
-1.77
-3.77
-3.73
-1.72
0.99
2.77
2.51
0.34
-2.46
-4.19
-3.74
-1.24
1.97
4.15
4.11
1.95
-1.03
-3.08
-3.01
-0.88
2.01
3.94
3.74
1.51
-1.42
-3.34
-3.11
-0.85
2.10
3.97
3.64
1.26
-1.79
-3.69
-3.29
-0.75
2.47
4.48
4.04
1.32
-2.19
-4.53
-4.36
-1.79
1.69
4.08
4.02
1.58
-1.81
-4.18
-4.20
-1.92
1.30
3.56
3.58
1.40
-1.69
-3.87
-3.93
-1.90
0.94
2.84
2.63
0.40
-2.57
-4.50
-4.23
-1.83
1.41
3.75
3.95
1.99
-0.91
-3.06
-3.22
-1.34
1.49
3.64
3.92
2.23
-0.37
-2.29
-2.36
-0.51
2.17
4.04
3.87
1.62
-1.49
-3.67
-3.61
-1.27
2.05
4.41
4.40
1.95
-1.59
-4.24
-4.55
-2.39
0.92
3.45
3.78
1.79
-1.25
-3.53
-3.70
-1.68
1.30
3.46
3.50
1.38
-1.68
-3.89
-3.93
-1.73
1.47
3.84
3.99
1.79
-1.58
-4.27
-4.84
-3.08
-0.12
2.29
2.78
1.18
-1.41
-3.29
-3.20
-1.08
1.87
3.91
3.80
1.57
-1.48
-3.56
-3.42
-1.14
2.00
4.19
4.18
2.00
-1.07
-3.25
-3.30
-1.20
1.78
3.87
3.78
1.48
-1.75
-4.09
-4.15
-1.85
1.57
4.22
4.63
2.62
-0.59
-3.14
-3.55
-1.61
1.48
3.90
4.21
2.25
-0.82
-3.22
-3.60
-1.86
0.87
2.83
2.77
0.64
-2.35
-4.44
-4.34
-2.03
1.28
3.74
3.98
1.87
-1.42
-4.03
-4.52
-2.66
0.47
3.09
3.77
2.18
-0.70
-3.16
-3.81
-2.32
0.38
2.64
3.08
1.43
-1.35
-3.53
-3.72
-1.65
1.59
4.14
4.45
2.24
-1.29
-4.11
-4.57
-2.35
1.30
4.24
4.76
2.53
-1.15
-4.14
-4.73
-2.60
0.94
3.79
4.32
2.30
-0.95
-3.44
-3.67
-1.52
1.69
4.01
4.03
1.72
-1.57
-3.93
-3.94
-1.52
2.05
4.86
5.45
3.64
0.53
-2.07
-2.76
-1.25
1.48
3.75
4.18
2.47
-0.42
-2.84
-3.42
-1.86
0.81
2.88
2.92
0.71
-2.66
-5.30
-5.68
-3.51
0.04
2.97
3.66
1.80
-1.45
-4.12
-4.62
-2.65
0.61
3.26
3.78
1.95
-1.07
-3.43
-3.68
-1.69
1.34
3.59
3.64
1.38
-1.96
-4.54
-4.92
-2.92
0.27
2.83
3.31
1.52
-1.42
-3.74
-4.05
-2.18
0.74
2.92
2.97
0.74
-2.63
-5.32
-5.88
-4.08
-1.06
1.34
1.62
-0.45
-3.76
-6.48
-7.11
-5.43
-2.51
-0.18
0.04
-2.16
-5.73
-8.91
-10.26
-9.41
-7.33
-5.61
-5.63
-7.72
-11.11
-14.39
-16.39
-16.86
-16.47
-16.42
-17.65
-20.23
-23.44
-26.23
-27.90
-28.58
-29.16
-30.71
-33.83
-38.16
-42.54
-45.68
-46.96
-46.87
-46.78
-48.14
-51.45
-55.60
-57.96
-55.32
-45.36
-27.88
-5.25
18.30
38.27
51.62
57.77
58.67
57.72
58.25
62.24
69.93
80.19
91.41
102.29
112.02
120.12
126.03
128.97
128.17
123.32
114.91
104.16
92.59
81.56
71.85
63.53
56.24
49.53
43.27
37.72
33.32
30.33
28.67
27.87
27.38
26.85
26.44
26.84
28.93
33.19
39.05
45.10
49.41
50.50
47.81
42.18
35.43
29.49
25.17
21.15
14.53
1.94
-18.67
-47.09
-80.36
-113.84
-142.91
-163.94
-177.33
-186.49
-196.18
-210.48
-231.51
-258.36
-286.73
-309.36
-317.57
-303.63
-263.53
-201.25
-125.79
-51.23
7.35
39.12
41.94
23.70
-0.66
-15.12
-9.22
18.20
58.90
100.03
130.36
144.64
145.28
139.32
133.47
130.38
128.61
124.90
117.81
109.45
104.49
106.82
116.51
129.25
138.41
138.82
128.80
110.96
90.84
73.78
62.58
56.26
50.76
40.77
22.38
-5.82
-42.62
-84.86
-128.02
-166.84
-195.18
-208.60
-205.36
-187.28
-159.69
-129.87
-104.55
-87.61
-79.33
-77.27
-78.10
-79.01
-78.40
-75.41
-69.61
-60.95
-49.38
-35.54
-20.91
-7.27
4.29
13.67
22.36
32.80
47.88
69.76
98.36
130.26
158.84
176.18
175.41
155.48
121.58
83.19
50.18
28.70
19.41
18.44
20.47
21.66
21.19
20.17
19.90
20.54
20.86
19.27
15.05
9.03
2.84
-1.43
-2.67
-1.09
1.87
4.27
4.54
2.20
-1.97
-6.37
-9.15
-9.25
-6.74
-2.78
0.86
2.63
1.84
-1.07
-4.77
-7.47
-7.86
-5.59
-1.44
2.94
5.85
6.20
4.10
0.79
-1.86
-2.36
-0.06
4.49
9.75
14.02
15.97
14.74
9.86
1.52
-8.99
-18.84
-23.96
-20.67
-7.50
13.52
37.07
56.57
66.98
66.83
57.85
44.56
30.88
18.58
7.39
-3.64
-14.40
-23.32
-28.04
-27.20
-21.27
-12.88
-5.59
-2.55
-5.12
-12.01
-19.73
-23.48
-19.48
-6.47
12.56
30.77
39.51
31.65
4.70
-38.15
-88.73
-136.81
-172.69
-189.41
-183.71
-155.48
-110.89
-59.92
-15.00
14.05
21.50
8.43
-17.65
-45.58
-65.27
-71.48
-63.82
-46.61
-25.10
-3.19
17.33
35.66
50.82
61.35
65.66
63.71
57.19
49.23
42.83
40.06
40.79
43.36
45.37
44.80
41.03
34.86
28.16
22.84
20.11
19.92
21.24
22.54
22.48
20.55
17.10
13.16
9.83
7.86
7.30
7.69
8.26
8.30
7.50
5.94
4.04
2.32
1.13
0.58
0.51
0.69
0.81
0.71
0.36
-0.18
-0.77
-1.28
-1.66
-1.88
-1.98
-2.01
-2.04
-2.12
-2.26
-2.44
-2.61
-2.69
-2.66
-2.50
-2.31
-2.17
-2.19
-2.41
-2.79
-3.19
-3.46
-3.48
-3.29
-3.04
-2.98
-3.34
-4.18
-5.35
-6.51
-7.29
-7.44
-7.05
-6.49
-6.34
-7.04
-8.76
-11.18
-13.62
-15.32
-15.80
-15.12
-13.93
-13.26
-13.97
-16.40
-20.13
-24.07
-27.02
-28.18
-27.47
-25.63
-23.78
-23.12
-24.57
-28.65
-35.24
-43.10
-49.66
-51.36
-44.89
-28.86
-4.94
22.53
47.98
67.17
78.62
83.81
85.72
87.13
89.42
92.26
94.42
94.32
90.56
82.18
68.78
50.91
30.27
9.64
-8.00
-20.41
-26.79
-27.92
-25.41
-20.90
-15.35
-9.32
-3.54
0.54
1.09
-2.96
-10.78
-19.49
-25.37
-25.69
-20.34
-11.83
-3.93
0.39
0.08
-3.75
-8.95
-13.46
-15.89
-15.67
-12.62
-6.88
1.24
11.12
21.87
32.27
40.72
45.41
44.65
37.56
24.96
9.47
-5.16
-15.36
-19.28
-17.24
-11.21
-3.46
4.29
11.12
16.63
20.22
21.08
18.81
14.39
10.32
9.74
14.60
24.06
34.39
40.61
39.39
30.82
18.19
5.47
-5.42
-15.42
-26.44
-38.67
-49.06
-51.86
-42.99
-22.38
4.64
29.67
45.18
47.73
38.50
21.70
2.40
-15.43
-28.87
-36.12
-36.46
-30.90
-22.25
-14.89
-13.01
-18.59
-30.39
-44.06
-53.57
-53.41
-40.75
-16.72
13.57
42.51
62.48
68.45
59.94
41.01
18.35
-1.73
-15.18
-21.38
-22.32
-20.72
-18.50
-16.33
-14.11
-11.44
-9.57
-9.61
-12.16
-16.82
-22.30
-26.97
-29.63
-30.22
-29.15
-27.57
-26.42
-26.25
-27.08
-28.63
-30.48
-32.43
-34.38
-36.19
-37.78
-38.96
-39.48
-39.34
-38.83
-38.41
-38.83
-41.08
-46.13
-54.27
-64.07
-72.04
-73.40
-64.00
-42.63
-12.39
20.07
47.21
63.85
69.33
67.16
62.75
60.26
60.78
62.38
62.19
58.32
51.20
43.14
36.94
34.56
36.44
41.98
49.45
56.43
59.72
55.64
40.98
14.39
-22.08
-62.54
-98.33
-120.86
-124.66
-109.65
-81.05
-47.26
-16.47
6.03
18.83
23.60
23.13
19.74
14.58
8.13
0.98
-5.69
-10.19
-11.47
-9.80
-6.88
-5.05
-6.06
-10.51
-17.36
-24.66
-30.44
-33.59
-34.30
-33.80
-33.68
-35.20
-38.64
-43.23
-47.50
-49.91
-49.38
-45.63
-39.13
-30.76
-21.47
-11.77
-1.90
8.11
18.19
28.01
37.00
44.49
49.84
52.78
53.38
52.12
49.68
46.78
44.01
41.72
40.00
38.71
37.55
36.19
34.26
31.48
27.63
22.61
16.45
9.26
1.30
-7.21
-15.99
-24.74
-33.22
-41.30
-48.88
-55.92
-62.40
-68.27
-73.52
-78.07
-81.67
-84.09
-85.23
-85.07
-83.66
-81.16
-77.81
-74.00
-70.19
-66.56
-63.43
-61.16
-60.13
-60.67
-63.01
-67.31
-73.65
-82.03
-91.87
-102.71
-114.04
-125.31
-135.87
-144.92
-151.43
-153.98
-154.21
-152.21
-147.92
-141.35
-132.68
-122.22
-110.40
-97.65
-84.40
-71.09
-57.69
-44.40
-31.62
-19.85
-9.58
-1.08
5.65
10.96
15.42
20.02
25.49
32.09
39.67
47.74
55.73
63.29
70.39
77.41
85.13
94.09
104.45
115.68
126.76
136.49
144.01
149.38
153.98
160.63
172.54
191.91
218.22
247.68
273.92
289.97
290.32
272.22
235.98
184.62
123.26
58.75
-0.78
-47.15
-73.77
-77.44
-59.10
-23.48
22.58
72.15
119.68
161.30
194.26
216.10
224.35
216.68
191.94
151.58
100.51
46.75
-0.74
-35.10
-53.78
-58.72
-54.20
-43.76
-28.48
-7.48
19.79
51.22
82.01
106.97
123.38
132.72
139.69
149.06
162.56
177.93
190.22
194.72
189.53
176.34
159.18
142.34
128.25
116.69
105.65
92.45
75.46
55.70
36.87
24.08
21.48
29.76
45.32
61.72
71.79
70.95
59.51
42.59
27.78
21.60
27.08
42.80
64.89
87.86
106.64
118.03
121.16
117.37
109.39
100.25
91.75
84.46
75.94
61.95
38.83
5.59
-35.15
-78.34
-118.53
-157.45
-193.49
-223.72
-245.29
-256.49
-257.00
-247.21
-229.53
-207.89
-187.73
-174.00
-171.26
-183.12
-210.66
-253.25
-307.49
-367.51
-425.01
-470.43
-494.38
-491.44
-462.59
-414.85
-359.24
-306.67
-264.81
-236.27
-219.26
-210.40
-205.68
-203.16
-202.11
-201.67
-199.90
-194.68
-184.80
-170.76
-154.35
-137.86
-123.10
-109.90
-98.48
-87.21
-74.28
-58.67
-40.82
-22.23
-4.78
10.02
21.80
31.33
40.41
50.60
62.65
76.19
90.06
103.09
114.59
124.85
134.90
146.25
159.93
176.00
193.55
211.15
227.47
241.85
254.57
266.82
280.67
298.36
321.53
350.19
381.94
411.80
433.51
441.54
433.37
410.56
377.80
340.85
304.07
269.21
235.64
201.75
166.21
128.59
89.23
49.06
9.90
-25.18
-52.29
-68.19
-72.06
-66.55
-56.94
-49.40
-48.71
-56.85
-72.92
-94.20
-117.16
-138.31
-154.41
-162.36
-159.85
-146.03
-121.86
-90.19
-55.36
-22.37
4.07
20.73
27.34
26.23
21.50
17.78
18.79
26.39
40.61
60.13
82.85
107.25
131.13
151.56
165.75
172.11
171.04
164.92
157.05
149.99
145.63
142.89
138.06
126.82
106.00
74.91
36.01
-6.12
-53.63
-104.37
-153.94
-197.56
-231.67
-255.44
-269.88
-275.58
-272.38
-259.83
-238.11
-209.95
-180.63
-155.13
-136.84
-126.35
-120.32
-112.92
-100.00
-77.75
-45.77
-7.62
31.97
68.27
93.30
102.18
94.64
75.00
50.04
29.19
11.53
-7.10
-31.00
-63.52
-105.65
-154.13
-202.95
-245.11
-274.87
-289.29
-288.19
-274.61
-254.75
-232.37
-207.61
-177.68
-139.85
-93.90
-42.19
11.61
63.98
111.36
154.19
195.06
236.16
276.23
303.52
307.11
282.02
243.20
201.35
165.50
138.52
124.04
123.61
136.13
158.73
185.96
210.01
220.60
211.14
180.96
135.90
84.89
36.43
-3.61
-33.86
-56.34
-75.28
-92.16
-105.75
-113.66
-115.75
-114.87
-115.08
-119.64
-129.11
-142.02
-154.40
-162.39
-163.65
-158.59
-149.29
-137.99
-126.49
-115.90
-107.46
-101.86
-99.24
-98.76
-99.14
-99.00
-97.41
-94.54
-91.45
-89.56
-89.74
-91.91
-95.28
-99.09
-103.07
-107.43
-112.44
-117.62
-121.31
-120.61
-112.13
-93.10
-62.62
-22.54
22.53
66.06
101.51
124.19
132.62
128.69
116.55
100.91
85.45
72.09
61.22
52.52
45.82
41.42
40.10
42.61
49.04
58.39
68.47
76.39
79.36
75.61
64.99
48.96
29.94
10.58
-6.90
-21.02
-30.84
-35.81
-35.74
-30.75
-21.34
-8.34
7.20
24.10
41.14
57.13
70.98
82.06
90.39
96.62
101.84
107.01
112.59
118.37
123.64
127.56
129.62
129.77
128.47
126.39
124.26
122.75
122.47
124.06
128.10
134.97
144.50
155.67
166.61
174.91
178.28
175.23
165.51
150.06
130.47
108.19
83.92
57.41
27.78
-5.71
-42.99
-83.09
-124.27
-164.80
-203.77
-241.44
-279.23
-319.35
-364.04
-414.29
-468.78
-523.05
-569.66
-599.88
-606.55
-587.13
-545.43
-490.76
-434.66
-386.47
-350.05
-323.18
-299.72
-273.25
-240.25
-200.94
-158.17
-115.08
-73.40
-32.98
7.22
47.89
88.92
129.40
168.38
205.12
238.72
267.65
289.71
302.64
305.03
297.03
280.58
258.64
234.29
210.06
187.71
168.26
152.21
139.69
130.58
124.85
122.78
124.88
131.56
142.42
155.82
168.89
178.32
181.47
177.10
165.85
149.76
131.62
114.15
99.43
88.50
81.32
76.99
74.15
71.55
68.61
65.66
63.86
64.88
70.37
81.19
96.97
115.97
135.36
151.92
162.99
166.70
162.17
148.98
126.68
95.01
54.34
6.47
-44.94
-94.84
-137.95
-170.12
-189.41
-196.58
-194.59
-187.91
-181.35
-178.92
-182.89
-193.29
-207.96
-223.40
-235.93
-242.95
-243.75
-239.67
-233.27
-227.15
-222.72
-219.45
-215.15
-207.00
-192.85
-172.38
-147.26
-120.35
-94.50
-71.25
-50.38
-30.16
-8.21
17.73
49.18
86.73
129.98
177.18
225.48
271.13
310.14
339.19
356.42
361.73
356.92
345.20
330.37
315.91
304.14
295.74
289.88
284.92
279.05
271.04
260.42
247.31
232.09
215.15
196.88
177.80
158.54
139.68
121.57
104.24
87.52
71.39
56.13
42.35
30.69
21.55
14.84
10.17
6.96
4.67
2.86
1.08
-1.28
-5.04
-11.12
-20.34
-33.01
-48.80
-66.72
-85.27
-102.83
-117.99
-129.84
-138.05
-142.66
-143.93
-142.23
-137.97
-131.68
-124.12
-116.19
-108.83
-102.76
-98.31
-95.34
-93.24
-91.09
-87.91
-82.96
-75.92
-67.01
-56.89
-46.33
-35.96
-26.11
-16.79
-7.94
0.31
7.63
13.50
17.47
19.49
19.98
19.75
19.61
19.85
20.05
19.22
16.24
10.54
2.55
-6.29
-14.03
-18.90
-19.95
-17.39
-12.24
-5.86
0.70
7.11
13.76
21.41
31.09
43.65
59.29
77.16
94.93
108.63
113.10
103.27
75.86
31.11
-26.36
-88.18
-144.02
-184.46
-203.53
-200.24
-178.43
-145.18
-108.31
-74.25
-46.91
-27.65
-15.88
-9.89
-7.10
-4.29
2.03
14.49
33.48
56.02
75.81
84.90
77.07
51.29
13.59
-24.21
-48.70
-50.65
-29.27
7.02
44.09
68.33
72.18
56.30
27.52
-5.88
-38.60
-69.99
-102.61
-138.99
-179.13
-220.29
-259.16
-294.30
-326.87
-359.14
-391.94
-423.00
-447.83
-462.41
-465.84
-460.89
-452.12
-442.81
-432.88
-419.29
-398.34
-368.34
-330.54
-288.23
-244.28
-199.72
-153.90
-106.32
-58.26
-12.96
25.74
55.67
77.76
96.10
116.29
142.87
177.00
215.57
252.15
279.80
294.02
294.70
286.02
274.22
264.97
261.41
263.82
270.61
279.18
286.31
288.01
279.92
258.97
225.82
186.45
151.27
131.43
133.61
156.64
191.53
225.62
248.23
254.84
248.04
234.54
220.98
211.02
205.04
202.38
203.92
212.90
232.96
264.78
303.23
337.77
356.04
348.66
313.02
254.33
183.62
113.24
52.54
5.03
-31.63
-63.25
-96.66
-137.32
-186.99
-242.30
-295.36
-335.89
-354.98
-347.84
-315.00
-262.94
-202.63
-146.78
-106.43
-88.52
-94.65
-121.83
-165.70
-216.96
-263.64
-295.50
-308.77
-307.03
-299.34
-291.45
-284.93
-277.88
-266.02
-245.26
-212.98
-169.74
-118.81
-64.93
-11.79
38.42
85.65
131.15
175.42
217.11
253.81
284.35
310.35
336.61
368.51
409.51
459.58
514.59
567.55
611.08
640.01
651.93
647.12
626.85
592.40
544.87
485.45
416.10
340.07
261.91
185.88
115.88
54.48
2.79
-39.29
-72.80
-99.15
-119.61
-134.99
-147.62
-159.70
-172.93
-188.09
-204.92
-222.69
-240.57
-258.00
-274.48
-292.58
-314.72
-342.05
-373.82
-407.51
-440.10
-469.33
-494.08
-514.28
-534.36
-558.85
-590.55
-629.52
-673.11
-717.39
-758.88
-795.10
-800.67
-757.73
-659.84
-516.74
-350.79
-185.83
-38.41
84.18
181.78
258.15
314.34
351.16
370.40
374.76
368.23
355.32
339.54
322.91
306.24
286.53
260.10
224.72
179.51
125.59
66.45
5.47
-54.60
-110.67
-159.90
-202.16
-231.74
-243.02
-233.36
-205.10
-165.45
-123.30
-85.73
-56.71
-36.29
-20.49
-6.46
7.18
20.30
31.83
41.26
49.37
57.32
65.88
76.71
89.64
102.96
114.15
121.02
123.15
122.30
121.63
124.29
134.80
155.07
183.90
217.59
251.48
282.24
308.91
332.38
354.29
379.45
411.70
452.70
500.86
551.23
596.58
628.95
641.40
611.42
528.88
399.86
246.62
97.13
-28.14
-122.04
-187.75
-232.30
-261.79
-277.01
-278.04
-267.06
-249.30
-231.37
-218.23
-211.39
-209.28
-208.73
-204.69
-194.23
-177.73
-158.71
-141.73
-130.03
-123.98
-121.67
-120.13
-115.40
-105.39
-90.59
-73.89
-58.84
-47.85
-41.09
-37.19
-34.22
-30.29
-25.14
-20.32
-18.64
-23.01
-35.43
-56.27
-84.09
-115.56
-145.07
-166.00
-172.71
-162.91
-139.01
-108.64
-78.36
-53.49
-35.76
-22.87
-10.34
5.61
26.04
49.16
71.43
90.45
105.75
118.41
129.79
140.41
149.81
157.26
162.00
163.33
160.21
150.41
131.50
102.65
66.12
27.24
-7.14
-31.43
-43.34
-44.18
-37.80
-28.32
-18.31
-8.42
1.40
11.02
19.49
25.45
27.92
26.53
21.57
13.55
3.14
-9.44
-23.93
-39.51
-55.51
-70.87
-84.64
-96.09
-104.75
-110.68
-114.75
-118.36
-122.78
-128.10
-132.16
-130.94
-120.13
-97.57
-65.03
-28.19
5.58
30.25
43.36
46.68
44.24
40.09
36.50
33.66
30.77
27.36
23.94
21.62
21.24
22.60
24.54
25.64
24.72
21.65
17.30
13.05
10.13
9.15
9.79
11.06
11.77
11.13
8.97
5.88
2.75
0.43
-0.66
-0.76
-0.54
-0.82
-2.10
-4.51
-7.69
-11.03
-13.88
-15.80
-16.71
-16.85
-16.58
-16.13
-15.47
-14.20
-11.82
-7.82
-1.92
5.63
14.01
21.98
28.29
32.08
33.26
32.42
30.42
28.58
27.63
27.62
27.41
25.74
21.86
16.29
10.89
8.34
10.77
18.40
28.98
38.41
42.65
39.29
28.37
11.64
-8.40
-29.34
-48.63
-62.87
-68.06
-61.01
-41.89
-15.49
9.31
23.27
20.60
1.56
-27.77
-58.91
-85.00
-103.48
-115.57
-123.36
-126.57
-121.51
-102.86
-67.00
-15.24
45.76
106.12
156.90
193.48
216.48
229.53
235.58
234.35
222.30
195.44
153.11
100.04
45.57
0.25
-28.57
-39.48
-36.64
-27.16
-17.31
-10.16
-5.52
-2.43
-0.79
-2.15
-8.70
-21.49
-39.18
-58.28
-74.79
-86.04
-91.96
-94.47
-96.44
-100.35
-107.56
-118.21
-131.35
-145.13
-156.77
-163.15
-161.52
-150.70
-132.05
-109.96
-91.04
-82.17
-87.91
-108.38
-138.75
-170.78
-195.73
-207.27
-203.23
-185.33
-157.29
-122.69
-83.97
-43.14
-2.94
32.42
58.37
72.15
74.55
70.05
64.88
64.23
70.21
81.72
95.98
110.64
125.19
140.64
157.61
174.68
187.96
192.69
186.04
169.04
146.46
124.87
109.84
103.70
105.07
109.86
113.31
111.88
104.21
91.06
74.41
56.36
38.20
20.20
1.82
-17.55
-37.61
-56.62
-71.63
-79.78
-79.79
-73.16
-63.77
-56.47
-55.05
-60.74
-72.06
-85.63
-97.54
-104.58
-104.85
-97.91
-84.75
-67.76
-50.57
-37.72
-33.54
-40.44
-57.36
-79.16
-98.21
-107.40
-103.22
-87.08
-64.00
-39.02
-13.84
14.17
49.94
96.61
152.14
208.72
256.10
285.66
293.91
282.86
257.75
224.54
188.38
153.79
125.30
107.18
101.49
106.11
114.38
117.29
107.23
81.07
40.98
-7.26
-56.89
-102.35
-139.90
-167.38
-183.78
-189.25
-185.55
-175.88
-163.81
-151.98
-141.07
-129.90
-116.79
-101.18
-83.91
-67.00
-52.46
-41.43
-34.22
-30.49
-29.59
-30.65
-32.62
-34.27
-34.44
-32.51
-28.71
-24.16
-20.22
-17.82
-16.86
-16.14
-13.79
-8.15
1.51
14.70
29.87
45.18
59.06
70.63
79.76
87.11
94.04
102.22
112.90
126.10
140.40
153.18
161.83
165.01
163.07
157.53
149.93
140.84
129.61
115.45
97.84
76.90
53.38
28.96
6.38
-10.82
-19.43
-18.12
-7.95
6.71
20.05
27.62
28.40
25.24
23.20
27.34
40.86
64.81
96.65
130.62
159.01
174.18
171.07
148.98
111.92
62.66
7.78
-45.70
-92.44
-129.52
-155.81
-171.02
-175.42
-170.54
-159.66
-146.36
-134.13
-125.02
-119.05
-114.83
-110.37
-104.26
-96.32
-87.46
-78.65
-70.94
-65.00
-60.81
-57.67
-54.58
-50.78
-46.09
-40.95
-35.78
-31.14
-27.40
-24.65
-22.59
-20.75
-18.74
-16.41
-13.91
-11.35
-8.96
-6.90
-5.25
-3.94
-2.81
-1.70
-0.54
0.67
1.94
3.22
4.46
5.63
6.70
7.69
8.60
9.39
10.10
10.78
11.49
12.27
13.21
14.40
15.95
17.95
20.35
23.14
26.23
29.40
32.40
34.84
36.42
36.85
35.95
33.59
29.81
24.80
18.78
12.14
5.27
-1.39
-7.46
-12.58
-16.60
-19.42
-21.07
-21.70
-21.42
-20.44
-18.93
-17.03
-14.83
-12.51
-10.26
-8.28
-6.77
-5.81
-5.52
-5.86
-6.67
-7.55
-8.24
-8.50
-8.11
-7.00
-5.16
-2.76
0.04
3.09
6.33
9.29
11.47
12.39
11.77
9.68
6.64
3.72
2.42
4.40
10.43
20.61
34.28
50.03
65.95
80.08
90.85
97.27
99.02
95.57
86.99
73.75
56.58
36.16
12.61
-15.15
-49.78
-88.98
-130.83
-171.32
-204.41
-223.72
-224.86
-207.02
-173.22
-128.94
-80.01
-32.06
10.32
42.83
61.02
61.21
42.45
8.09
-34.41
-75.58
-108.09
-128.77
-139.43
-145.03
-151.09
-161.17
-176.04
-194.38
-213.90
-232.99
-250.17
-263.59
-270.42
-267.27
-251.25
-221.43
-179.72
-130.37
-78.88
-29.63
15.41
56.70
95.86
133.91
170.00
201.50
225.42
239.84
245.10
243.51
237.94
230.41
221.26
209.95
196.11
180.90
166.96
157.55
154.40
156.18
158.39
154.91
140.82
114.83
80.49
45.29
17.80
4.45
7.12
22.96
45.74
68.48
85.34
92.77
89.52
75.85
52.93
22.59
-12.42
-48.41
-81.09
-106.71
-123.26
-131.01
-132.47
-130.86
-128.50
-126.03
-122.66
-117.35
-109.94
-100.99
-90.30
-75.14
-49.90
-8.14
53.70
133.22
221.36
305.18
372.62
416.83
437.94
441.37
434.00
420.57
401.89
375.83
339.80
293.02
237.46
177.02
116.46
60.21
11.59
-27.27
-55.78
-75.24
-88.77
-100.66
-114.90
-133.45
-155.52
-177.80
-195.72
-204.88
-202.47
-188.09
-163.68
-132.84
-99.68
-67.85
-40.04
-18.17
-4.38
-1.73
-14.08
-43.53
-87.52
-137.85
-182.61
-210.37
-214.55
-196.05
-162.48
-125.26
-93.84
-72.27
-59.37
-51.43
-45.16
-39.41
-35.42
-35.67
-43.90
-60.77
-82.59
-103.28
-118.62
-128.61
-136.75
-147.21
-161.71
-180.47
-199.07
-209.35
-203.81
-180.22
-142.38
-97.09
-51.42
-11.85
11.34
9.50
-19.90
-71.37
-133.04
-189.31
-224.28
-227.13
-175.10
-71.32
51.26
151.25
209.09
232.61
241.57
251.83
268.22
286.21
294.72
287.28
266.32
240.16
215.10
191.67
165.49
132.13
91.75
45.10
-4.40
-50.34
-85.55
-106.73
-115.13
-114.85
-110.35
-105.09
-102.98
-105.79
-112.32
-119.19
-124.56
-128.27
-131.07
-133.67
-136.15
-139.41
-143.81
-151.71
-159.93
-167.15
-173.70
-180.51
-187.61
-192.76
-192.34
-181.96
-158.59
-122.08
-77.41
-32.53
4.56
28.66
39.17
38.77
31.49
20.85
9.28
-2.24
-12.63
-19.84
-24.06
-24.56
-21.53
-16.24
-10.31
-4.80
0.08
5.45
13.28
25.38
43.03
66.07
93.16
122.33
151.86
180.47
207.75
234.15
260.70
289.04
320.19
353.78
387.36
416.59
436.15
441.93
432.65
410.64
381.16
350.18
322.41
300.44
285.03
276.04
273.01
274.63
277.93
278.06
269.22
246.73
209.26
159.60
103.51
47.48
-3.75
-48.41
-87.27
-122.34
-155.65
-188.74
-222.94
-259.75
-300.44
-344.86
-390.05
-429.93
-456.33
-461.45
-440.59
-394.00
-327.02
-248.67
-169.45
-99.33
-46.45
-16.41
-11.72
-31.08
-69.14
-116.89
-163.45
-198.93
-217.16
-217.10
-202.47
-179.42
-153.53
-127.74
-101.84
-73.34
-39.35
1.86
49.83
101.68
152.45
195.85
225.53
236.43
226.26
196.27
151.31
98.89
47.53
4.78
-24.43
-38.71
-40.14
-33.28
-23.64
-15.79
-12.22
-12.93
-16.05
-18.99
-19.73
-17.29
-11.95
-4.97
1.97
7.20
9.61
8.96
6.03
2.45
0.13
0.66
4.83
12.56
22.94
34.65
46.31
56.60
64.63
69.86
72.11
71.43
67.99
61.93
53.49
43.18
31.76
20.11
8.84
-1.99
-13.00
-25.21
-39.50
-56.12
-74.44
-93.11
-110.58
-125.58
-137.48
-146.31
-152.63
-157.22
-160.90
-164.31
-167.80
-171.32
-174.32
-175.89
-174.83
-170.07
-160.78
-146.58
-127.64
-104.66
-78.82
-51.67
-25.05
-0.82
19.46
34.81
44.90
50.01
50.81
48.25
43.40
37.56
32.08
28.36
27.47
29.85
35.19
42.48
50.33
57.41
62.74
65.82
66.57
65.23
62.15
57.75
52.53
47.07
42.02
37.82
34.51
31.65
28.45
24.19
18.68
12.42
6.54
2.35
0.86
2.38
6.48
12.27
18.77
25.30
31.52
37.22
42.15
45.94
48.22
48.84
48.09
46.70
45.55
45.31
46.09
47.44
48.62
48.99
48.29
46.65
44.37
41.63
38.44
34.64
30.16
25.09
19.79
14.63
9.87
5.52
1.37
-2.87
-7.45
-12.47
-17.89
-23.51
-28.97
-33.84
-37.65
-40.00
-40.61
-39.34
-36.13
-30.97
-24.00
-15.38
-5.52
4.95
15.22
24.52
32.20
37.87
41.44
43.02
43.00
41.95
40.56
39.47
39.17
39.75
40.92
42.07
42.47
41.57
39.11
35.17
30.09
24.35
18.38
12.47
6.85
1.63
-3.12
-7.46
-11.52
-15.59
-20.04
-25.23
-31.19
-37.53
-43.51
-48.10
-50.42
-50.02
-46.99
-41.93
-35.65
-28.84
-21.88
-14.87
-7.74
-0.54
6.47
12.83
17.98
21.58
23.61
24.39
24.34
23.79
22.79
21.22
19.01
16.28
13.42
11.00
9.43
8.82
8.95
9.44
9.98
10.48
11.01
11.65
12.32
12.83
13.00
12.83
12.52
12.41
12.68
13.20
13.55
13.24
12.07
10.31
8.73
8.35
10.09
14.55
21.84
31.66
43.31
55.78
67.83
78.06
85.10
87.89
85.92
79.41
69.12
56.15
41.57
26.22
10.72
-4.53
-19.15
-32.70
-44.79
-55.16
-63.74
-70.68
-76.26
-80.73
-84.30
-87.09
-89.28
-91.13
-92.92
-94.67
-96.23
-97.13
-96.78
-94.75
-90.98
-85.86
-80.13
-74.55
-69.66
-65.61
-62.12
-58.62
-54.47
-49.09
-42.12
-33.49
-23.37
-12.19
-0.45
11.33
22.74
33.40
42.95
50.96
57.03
60.89
62.55
62.36
60.93
58.95
56.83
54.77
52.64
50.19
47.34
44.17
41.00
38.18
36.01
34.53
33.57
32.81
31.86
30.49
28.63
26.32
23.72
20.96
18.11
15.16
12.07
8.75
5.15
1.28
-2.75
-6.73
-10.30
-13.02
-14.40
-14.06
-11.90
-8.04
-2.92
2.98
9.14
15.10
20.51
25.06
28.40
30.24
30.41
28.95
26.19
22.66
18.94
15.50
12.64
10.39
8.63
7.18
5.87
4.56
3.16
1.60
-0.14
-2.11
-4.27
-6.57
-8.91
-11.15
-13.15
-14.74
-15.87
-16.55
-16.94
-17.33
-18.00
-19.10
-20.55
-22.03
-23.04
-23.17
-22.12
-19.82
-16.40
-12.10
-7.20
-2.08
2.91
7.42
11.10
13.77
15.49
16.44
16.97
17.40
17.95
18.70
19.65
20.71
21.77
22.76
23.56
24.07
24.27
24.10
23.59
22.84
21.98
21.12
20.36
19.57
18.51
16.87
14.36
10.90
6.67
2.01
-2.73
-7.32
-11.72
-15.87
-19.59
-22.53
-24.22
-24.33
-22.84
-20.08
-16.54
-12.61
-8.48
-4.13
0.47
5.16
9.61
13.38
16.12
17.76
18.45
18.47
18.15
17.65
17.13
16.67
16.42
16.51
17.08
18.15
19.64
21.34
22.94
24.16
24.79
24.72
24.01
22.77
21.10
19.02
16.44
13.21
9.24
4.59
-0.53
-5.83
-11.08
-16.14
-20.96
-25.41
-29.28
-32.22
-33.97
-34.42
-33.63
-31.82
-29.19
-25.88
-21.98
-17.64
-13.15
-8.91
-5.28
-2.45
-0.40
1.12
2.38
3.62
4.92
6.28
7.64
8.95
10.18
11.37
12.52
13.60
14.49
15.13
15.44
15.38
14.89
13.87
12.19
9.84
6.90
3.71
0.69
-1.87
-4.01
-6.14
-8.91
-12.84
-17.97
-23.79
-29.30
-33.41
-35.27
-34.58
-31.60
-27.04
-21.78
-16.66
-12.30
-9.00
-6.72
-5.21
-4.07
-2.91
-1.46
0.45
2.81
5.51
8.30
10.90
12.99
14.34
14.91
14.88
14.61
14.51
14.84
15.58
16.43
16.88
16.52
15.12
12.78
9.86
6.82
3.96
1.35
-1.23
-4.10
-7.59
-11.88
-16.95
-22.58
-28.37
-33.76
-38.08
-40.77
-41.45
-40.07
-36.92
-32.48
-27.25
-21.66
-16.08
-10.83
-6.19
-2.39
0.57
2.87
4.85
6.80
8.85
10.84
12.42
13.18
12.85
11.44
9.16
6.34
3.25
-0.02
-3.65
-8.03
-13.59
-20.54
-28.68
-37.34
-45.58
-52.59
-58.07
-62.43
-66.60
-71.71
-78.50
-87.06
-96.66
-106.00
-113.45
-117.35
-116.23
-109.09
-95.68
-76.72
-53.68
-28.41
-2.28
24.33
51.93
80.89
110.43
138.17
160.88
176.08
183.39
184.93
184.42
185.58
190.63
199.76
211.38
222.68
230.44
231.44
223.03
203.93
175.06
139.72
102.99
70.16
45.01
28.76
20.16
16.49
14.85
12.94
9.28
3.03
-6.32
-18.85
-33.91
-49.84
-63.84
-72.38
-72.08
-60.87
-39.05
-9.71
21.74
49.04
67.00
73.35
69.42
59.35
48.21
39.70
34.75
31.71
27.75
20.71
10.10
-3.02
-17.03
-30.72
-43.52
-54.75
-62.62
-63.81
-54.29
-31.08
6.00
53.65
106.06
156.85
201.11
236.30
262.03
278.86
287.07
286.18
275.53
255.07
226.00
190.72
152.03
112.28
72.95
34.57
-2.80
-39.22
-74.78
-109.77
-144.69
-180.06
-215.70
-250.15
-280.63
-303.63
-316.16
-316.93
-306.82
-288.61
-265.91
-242.11
-219.62
-199.73
-182.79
-168.53
-156.31
-145.15
-133.96
-121.84
-108.47
-94.26
-80.27
-67.81
-58.06
-51.67
-48.53
-47.87
-48.48
-49.08
-48.76
-47.27
-45.07
-43.17
-42.69
-44.54
-49.06
-55.89
-64.08
-72.36
-79.35
-83.94
-85.51
-83.93
-79.55
-72.93
-64.66
-55.28
-45.39
-35.77
-27.46
-21.59
-18.90
-19.44
-22.30
-25.92
-28.76
-29.79
-29.01
-27.13
-25.27
-24.20
-24.08
-24.53
-24.89
-24.66
-23.60
-21.71
-19.16
-16.18
-13.08
-10.32
-8.43
-7.76
-8.28
-9.36
-10.10
-9.68
-7.85
-5.11
-2.48
-1.03
-1.30
-3.14
-5.70
-7.99
-9.19
-9.00
-7.56
-5.11
-1.73
2.86
9.20
17.81
28.80
41.59
54.92
67.12
76.66
82.55
84.75
83.98
81.41
78.18
74.96
71.90
68.69
64.78
59.50
52.19
42.47
30.47
17.08
3.90
-7.25
-15.11
-19.55
-21.71
-23.35
-25.96
-29.97
-34.69
-38.85
-41.48
-42.45
-42.40
-42.20
-42.34
-42.62
-42.37
-40.94
-38.14
-34.33
-30.23
-26.48
-23.35
-20.57
-17.52
-13.61
-8.59
-2.69
3.41
8.85
12.89
15.21
16.01
15.89
15.54
15.47
15.81
16.28
16.48
16.11
15.18
14.03
13.10
12.68
12.82
13.28
13.68
13.71
13.24
12.31
11.01
9.45
7.72
5.90
4.03
2.16
0.25
-1.81
-4.14
-6.76
-9.53
-12.12
-14.01
-14.68
-13.69
-10.83
-6.16
-0.10
6.71
13.48
19.46
24.15
27.30
28.93
29.22
28.39
26.64
24.25
21.46
18.51
15.53
12.44
9.07
5.12
0.41
-5.12
-11.37
-18.26
-25.81
-34.22
-43.73
-54.33
-65.39
-75.55
-82.79
-84.94
-80.48
-69.14
-52.15
-32.05
-12.00
5.01
16.82
22.23
21.02
13.82
2.05
-12.07
-25.67
-35.75
-39.89
-36.87
-27.10
-12.38
4.76
21.86
37.11
49.56
58.98
65.56
69.65
71.63
71.87
70.71
68.49
65.50
61.95
58.07
54.06
50.10
46.36
42.90
39.62
36.34
32.83
28.97
24.77
20.34
15.87
11.44
7.11
2.86
-1.35
-5.46
-9.50
-13.49
-17.55
-21.82
-26.27
-30.57
-34.09
-36.09
-35.92
-33.39
-28.79
-22.80
-16.19
-9.58
-3.34
2.41
7.65
12.36
16.43
19.76
22.28
24.03
25.14
25.76
26.00
25.91
25.55
24.96
24.25
23.59
23.11
22.86
22.81
22.74
22.45
21.68
20.31
18.33
15.84
13.05
10.10
7.17
4.31
1.56
-1.15
-3.97
-7.08
-10.68
-14.87
-19.56
-24.38
-28.75
-31.94
-33.31
-32.45
-29.33
-24.28
-17.83
-10.60
-3.05
4.52
12.03
19.47
26.73
33.61
39.80
45.00
49.05
51.96
53.89
55.08
55.76
56.07
56.10
55.96
55.78
55.70
55.82
56.14
56.53
56.77
56.55
55.63
53.86
51.29
48.12
44.58
40.88
37.07
33.06
28.68
23.75
18.15
11.87
5.06
-2.01
-8.90
-15.06
-19.89
-22.91
-23.90
-22.94
-20.42
-16.76
-12.44
-7.77
-3.02
1.63
5.96
9.71
12.65
14.64
15.71
16.02
15.82
15.33
14.67
13.81
12.59
10.90
8.72
6.24
3.76
1.64
-0.02
-1.33
-2.54
-4.03
-5.94
-8.24
-10.70
-13.07
-15.20
-17.13
-19.08
-21.30
-24.00
-27.23
-30.84
-34.48
-37.65
-39.77
-40.28
-38.82
-35.27
-29.90
-23.27
-16.10
-9.04
-2.48
3.47
8.93
14.01
18.76
22.96
26.34
28.69
29.96
30.34
30.12
29.49
28.48
27.03
25.04
22.57
19.84
17.14
14.71
12.58
10.60
8.53
6.21
3.62
0.89
-1.83
-4.42
-6.90
-9.38
-12.04
-15.09
-18.67
-22.89
-27.68
-32.75
-37.55
-41.34
-43.39
-43.22
-40.73
-36.20
-30.21
-23.37
-16.24
-9.27
-2.80
2.91
7.68
11.42
14.15
15.99
17.15
17.86
18.25
18.34
18.02
17.11
15.46
13.08
10.14
7.00
4.05
1.56
-0.45
-2.24
-4.15
-6.55
-9.61
-13.30
-17.40
-21.62
-25.68
-29.41
-32.76
-35.78
-38.64
-41.61
-44.93
-48.77
-53.07
-57.45
-61.26
-63.76
-64.34
-62.69
-58.92
-53.46
-46.85
-39.66
-32.26
-24.90
-17.69
-10.76
-4.23
1.76
7.07
11.60
15.29
18.13
20.20
21.65
22.71
23.53
24.25
24.86
25.30
25.46
25.29
24.77
23.88
22.57
20.73
18.27
15.17
11.58
7.68
3.71
-0.21
-4.12
-8.17
-12.55
-17.43
-22.90
-28.93
-35.30
-41.65
-47.42
-52.07
-55.11
-56.27
-55.53
-53.01
-48.99
-43.72
-37.46
-30.48
-23.05
-15.46
-7.96
-0.75
5.98
12.11
17.53
22.13
25.92
29.01
31.65
34.14
36.70
39.39
42.12
44.68
46.86
48.58
49.81
50.59
50.89
50.60
49.56
47.66
44.90
41.44
37.53
33.42
29.23
24.90
20.25
15.01
9.01
2.20
-5.14
-12.46
-19.05
-24.17
-27.30
-28.24
-27.12
-24.33
-20.32
-15.54
-10.31
-4.87
0.56
5.77
10.57
14.83
18.44
21.44
23.88
25.83
27.31
28.31
28.84
28.89
28.56
27.95
27.16
26.23
25.09
23.66
21.84
19.59
16.92
13.91
10.60
7.01
3.12
-1.02
-5.33
-9.69
-14.03
-18.36
-22.86
-27.69
-32.84
-37.98
-42.55
-45.81
-47.15
-46.35
-43.59
-39.34
-34.18
-28.56
-22.70
-16.70
-10.63
-4.64
0.96
5.83
9.67
12.37
14.05
14.97
15.44
15.68
15.82
15.80
15.57
15.11
14.43
13.65
12.83
11.96
10.97
9.75
8.17
6.23
4.01
1.60
-0.83
-3.22
-5.56
-7.93
-10.50
-13.49
-17.03
-21.15
-25.62
-29.91
-33.35
-35.18
-34.95
-32.58
-28.47
-23.25
-17.54
-11.78
-6.07
-0.39
5.36
11.11
16.63
21.60
25.74
28.90
31.03
32.23
32.60
32.28
31.41
30.16
28.69
27.10
25.50
23.90
22.31
20.74
19.15
17.49
15.68
13.63
11.23
8.49
5.47
2.29
-0.88
-4.02
-7.21
-10.62
-14.46
-18.87
-23.83
-29.10
-34.20
-38.48
-41.34
-42.32
-41.35
-38.68
-34.81
-30.24
-25.35
-20.28
-15.03
-9.63
-4.20
0.99
5.61
9.40
12.31
14.41
15.83
16.72
17.11
16.98
16.35
15.22
13.72
11.99
10.20
8.47
6.81
5.14
3.32
1.18
-1.40
-4.39
-7.73
-11.32
-15.07
-18.89
-22.76
-26.62
-30.51
-34.49
-38.66
-43.12
-47.97
-53.09
-58.21
-62.83
-66.34
-68.19
-68.06
-65.96
-62.23
-57.45
-52.22
-47.02
-42.09
-37.46
-33.03
-28.67
-24.30
-19.91
-15.53
-11.16
-6.86
-2.67
1.39
5.28
8.98
12.47
15.70
18.67
21.38
23.81
25.91
27.55
28.59
28.89
28.38
27.12
25.27
23.07
20.75
18.46
16.22
13.93
11.42
8.49
4.95
0.70
-4.17
-9.39
-14.52
-18.99
-22.29
-24.01
-23.95
-22.13
-18.66
-13.82
-7.88
-1.15
6.07
13.54
21.03
28.34
35.25
41.48
46.76
50.95
54.12
56.53
58.57
60.57
62.61
64.51
65.95
66.60
66.33
65.24
63.54
61.46
59.07
56.30
52.99
49.05
44.53
39.64
34.65
29.75
25.01
20.33
15.53
10.46
4.99
-0.92
-7.20
-13.73
-20.21
-26.16
-30.98
-34.04
-34.87
-33.37
-29.81
-24.70
-18.73
-12.48
-6.35
-0.59
4.73
9.51
13.71
17.24
20.05
22.09
23.38
23.97
23.92
23.33
22.26
20.78
19.07
17.31
15.71
14.38
13.33
12.42
11.45
10.22
8.61
6.56
4.08
1.24
-1.89
-5.15
-8.46
-11.77
-15.19
-18.97
-23.39
-28.55
-34.14
-39.45
-43.47
-45.28
-44.35
-40.83
-35.47
-29.29
-23.18
-17.57
-12.48
-7.63
-2.84
1.89
6.34
10.23
13.35
15.64
17.12
17.83
17.82
17.14
15.98
14.60
13.26
12.14
11.21
10.25
8.95
6.97
4.10
0.36
-3.95
-8.19
-11.52
-13.15
-12.66
-10.25
-6.85
-3.85
-2.64
-4.09
-8.23
-14.33
-21.30
-28.12
-34.16
-39.25
-43.50
-46.96
-49.49
-50.77
-50.49
-48.59
-45.31
-41.23
-36.98
-33.03
-29.49
-26.16
-22.63
-18.65
-14.22
-9.64
-5.30
-1.56
1.49
3.99
6.13
8.06
9.72
10.93
11.51
11.38
10.61
9.41
7.98
6.41
4.73
2.85
0.71
-1.71
-4.41
-7.40
-10.80
-14.82
-19.71
-25.47
-31.76
-37.87
-42.88
-46.00
-46.83
-45.44
-42.22
-37.68
-32.28
-26.31
-20.00
-13.57
-7.25
-1.23
4.40
9.65
14.59
19.25
23.55
27.32
30.34
32.48
33.74
34.25
34.22
33.87
33.34
32.72
31.99
31.12
30.00
28.47
26.34
23.44
19.72
15.36
10.73
6.28
2.37
-0.95
-3.89
-6.95
-10.69
-15.50
-21.46
-28.26
-35.13
-41.13
-45.34
-47.12
-46.30
-43.24
-38.63
-33.19
-27.47
-21.70
-15.84
-9.80
-3.56
2.74
8.85
14.53
19.63
24.07
27.87
31.11
33.82
36.07
37.88
39.25
40.25
40.94
41.42
41.78
42.05
42.18
42.04
41.42
40.21
38.42
36.18
33.68
31.08
28.40
25.53
22.28
18.37
13.64
8.04
1.69
-5.13
-11.97
-18.25
-23.42
-26.93
-28.46
-27.95
-25.60
-21.81
-17.11
-11.94
-6.64
-1.36
3.91
9.15
14.26
19.01
23.11
26.38
28.75
30.30
31.14
31.36
30.95
29.94
28.42
26.57
24.65
22.77
20.93
18.98
16.75
14.14
11.12
7.79
4.24
0.51
-3.34
-7.25
-11.21
-15.23
-19.43
-23.99
-29.03
-34.48
-40.01
-44.99
-48.69
-50.45
-49.89
-47.09
-42.43
-36.49
-29.82
-22.83
-15.77
-8.86
-2.34
3.51
8.44
12.30
15.08
16.94
18.10
18.76
19.02
18.88
18.29
17.24
15.79
14.15
12.52
11.11
9.96
8.90
7.63
5.87
3.51
0.64
-2.41
-5.26
-7.48
-8.75
-8.90
-7.99
-6.33
-4.47
-2.99
-2.34
-2.61
-3.54
-4.69
-5.72
-6.52
-7.25
-8.04
-8.76
-8.99
-8.11
-5.65
-1.57
3.70
9.44
14.87
19.43
22.79
24.85
25.66
25.29
23.86
21.58
18.74
15.75
13.00
10.78
9.17
8.12
7.35
6.60
5.60
4.20
2.34
0.04
-2.66
-5.67
-8.91
-12.28
-15.71
-19.26
-23.10
-27.51
-32.64
-38.38
-44.21
-49.37
-52.97
-54.30
-53.10
-49.49
-43.98
-37.22
-29.82
-22.29
-14.99
-8.20
-2.11
3.10
7.29
10.42
12.46
13.47
13.48
12.58
10.84
8.40
5.43
2.14
-1.23
-4.39
-7.05
-8.98
-10.09
-10.44
-10.31
-10.10
-10.19
-10.86
-12.27
-14.38
-17.04
-20.11
-23.46
-27.06
-30.96
-35.24
-39.96
-44.97
-49.81
-53.71
-55.73
-55.10
-51.45
-45.02
-36.56
-27.04
-17.35
-8.05
0.63
8.73
16.34
23.52
30.24
36.39
41.81
46.30
49.67
51.80
52.71
52.63
51.89
50.82
49.61
48.28
46.76
44.94
42.76
40.29
37.64
34.89
32.08
29.14
25.93
22.33
18.25
13.71
8.96
4.39
0.53
-2.12
-3.31
-3.09
-1.86
-0.21
1.33
2.60
3.90
5.85
9.11
13.83
19.60
25.54
30.89
35.53
40.21
46.18
54.74
66.63
81.75
99.08
116.67
131.73
140.92
140.94
129.53
106.75
75.70
42.33
14.01
-3.07
-6.06
3.25
19.11
33.83
40.57
35.46
18.43
-7.45
-37.73
-68.38
-96.92
-122.39
-144.52
-162.74
-175.78
-182.12
-180.78
-171.84
-156.32
-135.35
-109.66
-79.82
-47.06
-14.24
14.45
35.02
45.68
48.16
47.05
47.61
53.13
63.55
76.16
87.62
95.82
100.49
102.54
103.02
102.54
101.53
100.49
100.44
102.52
107.09
113.36
119.45
123.40
124.16
121.98
117.79
112.99
108.90
106.40
105.64
106.00
106.33
105.38
102.05
94.33
81.07
62.62
40.91
18.45
-3.01
-22.89
-41.26
-57.90
-74.61
-91.87
-108.27
-121.06
-128.12
-129.78
-128.61
-127.86
-129.79
-139.59
-159.95
-189.53
-222.97
-253.77
-277.54
-293.53
-304.20
-313.35
-330.98
-364.57
-415.74
-479.47
-547.50
-612.63
-670.46
-718.98
-723.33
-661.26
-532.39
-362.40
-186.56
-30.75
93.90
186.49
247.86
287.10
303.90
296.54
266.62
221.58
172.70
130.88
104.56
98.20
111.65
135.16
157.95
173.08
180.01
182.50
184.57
187.58
190.07
189.75
182.22
166.39
145.24
124.16
107.56
96.52
89.08
82.32
74.88
65.93
56.41
48.10
42.41
39.55
38.54
38.05
37.19
35.80
33.35
29.32
23.24
15.02
5.00
-6.13
-17.55
-28.54
-38.57
-47.35
-54.53
-59.58
-61.84
-60.74
-56.11
-48.27
-38.09
-26.71
-15.28
-4.68
4.63
12.54
19.19
24.81
29.56
33.50
36.69
39.18
41.11
42.74
44.34
46.09
47.92
49.51
50.46
50.38
49.19
47.11
44.58
42.03
39.67
37.36
34.72
31.31
26.86
21.55
15.82
10.24
5.29
1.06
-2.73
-6.69
-11.42
-17.27
-24.05
-31.02
-37.07
-41.00
-41.95
-39.58
-34.15
-26.32
-17.06
-7.35
1.93
10.12
16.81
21.85
25.34
27.56
28.89
29.67
30.15
30.45
30.63
30.70
30.62
30.30
29.62
28.47
26.83
24.79
22.51
20.09
17.54
14.79
11.79
8.61
5.37
2.19
-0.90
-3.98
-7.24
-10.78
-14.61
-18.65
-22.82
-27.04
-31.13
-34.66
-36.89
-36.96
-34.22
-28.53
-20.44
-10.96
-1.29
7.63
15.23
21.39
26.25
30.05
33.02
35.27
36.89
37.89
38.29
38.05
37.18
35.71
33.72
31.35
28.81
26.30
24.02
22.06
20.34
18.69
16.85
14.60
11.87
8.75
5.42
2.10
-1.06
-4.07
-7.02
-10.14
-13.67
-17.81
-22.58
-27.64
-32.31
-35.56
-36.38
-33.94
-28.03
-19.12
-8.24
3.30
14.27
23.81
31.54
37.52
41.98
45.17
47.27
48.40
48.66
48.23
47.36
46.23
44.94
43.43
41.58
39.36
36.90
34.41
32.15
30.15
28.20
25.97
23.12
19.57
15.58
11.65
8.27
5.72
3.95
2.57
1.02
-1.15
-4.20
-8.09
-12.44
-16.66
-19.96
-21.55
-20.79
-17.35
-11.25
-2.93
6.86
17.20
27.20
36.06
43.26
48.52
51.85
53.48
53.76
53.07
51.74
49.94
47.67
44.76
40.94
35.95
29.85
22.96
15.99
9.79
5.09
2.27
1.19
1.28
1.77
1.94
1.28
-0.39
-3.06
-6.61
-10.87
-15.61
-20.65
-25.79
-30.84
-35.67
-40.01
-43.45
-45.45
-45.35
-42.72
-37.49
-30.09
-21.28
-11.96
-2.96
5.12
11.84
16.95
20.41
22.45
23.51
24.20
24.98
26.02
27.19
28.07
28.28
27.55
25.88
23.34
20.12
16.49
12.80
9.43
6.68
4.66
3.15
1.70
-0.13
-2.60
-5.71
-9.21
-12.73
-15.99
-18.83
-21.30
-23.58
-25.98
-28.79
-32.25
-36.34
-40.62
-44.29
-46.32
-45.81
-42.25
-35.76
-27.00
-16.99
-6.78
2.77
11.09
17.88
23.03
26.56
28.63
29.53
29.63
29.34
28.90
28.34
27.53
26.25
24.32
21.73
18.62
15.28
12.02
9.07
6.51
4.31
2.27
0.20
-2.06
-4.59
-7.34
-10.15
-12.82
-15.22
-17.31
-19.21
-21.14
-23.33
-26.00
-29.28
-33.13
-37.29
-41.28
-44.39
-45.86
-45.04
-41.56
-35.55
-27.56
-18.49
-9.33
-0.98
6.00
11.39
15.27
17.96
19.84
21.20
22.25
23.03
23.49
23.52
22.97
21.75
19.86
17.42
14.73
12.11
9.84
8.02
6.49
5.03
3.33
1.28
-1.08
-3.58
-6.09
-8.53
-10.87
-13.05
-14.91
-16.32
-17.18
-17.66
-18.04
-18.54
-19.12
-19.39
-18.74
-16.68
-13.12
-8.43
-3.32
1.47
5.47
8.56
10.85
12.58
13.98
15.16
16.19
17.04
17.64
17.93
17.88
17.47
16.69
15.53
13.93
11.93
9.68
7.51
5.78
4.67
4.11
3.70
2.90
1.31
-1.13
-4.21
-7.51
-10.57
-13.12
-15.07
-16.51
-17.73
-19.08
-20.85
-23.23
-26.12
-29.03
-31.20
-31.79
-30.17
-26.19
-20.22
-12.97
-5.26
2.26
9.23
15.54
21.20
26.18
30.34
33.51
35.56
36.44
36.20
34.96
32.84
29.98
26.54
22.75
18.92
15.35
12.30
9.93
8.20
6.95
5.89
4.69
3.12
1.05
-1.49
-4.35
-7.31
-10.23
-13.05
-15.81
-18.61
-21.55
-24.67
-27.82
-30.72
-32.99
-34.14
-33.77
-31.64
-27.72
-22.27
-15.71
-8.57
-1.40
5.28
11.16
15.98
19.62
22.10
23.53
24.04
23.86
23.14
22.02
20.63
18.98
17.05
14.79
12.23
9.48
6.75
4.27
2.17
0.41
-1.22
-2.94
-4.84
-6.83
-8.71
-10.34
-11.75
-13.12
-14.73
-16.74
-19.19
-22.05
-25.26
-28.79
-32.50
-36.01
-38.73
-39.95
-39.02
-35.69
-30.13
-22.89
-14.73
-6.36
1.70
9.06
15.49
20.87
25.11
28.29
30.61
32.38
33.96
35.53
37.00
37.96
37.89
36.39
33.57
30.09
26.93
25.01
24.77
25.87
27.43
28.43
28.16
26.54
24.08
21.62
19.99
19.70
20.79
22.76
24.52
24.50
21.02
12.96
0.24
-15.62
-31.81
-44.97
-52.40
-53.10
-48.19
-40.67
-34.28
-32.36
-36.66
-47.03
-61.62
-77.68
-92.49
-103.95
-110.90
-112.83
-109.66
-101.52
-88.66
-71.83
-52.26
-31.69
-12.00
5.26
19.16
29.46
36.45
40.63
42.35
41.82
39.14
34.47
28.31
21.49
15.06
9.92
6.47
4.41
2.97
1.19
-1.57
-5.45
-10.12
-14.99
-19.55
-23.47
-26.58
-28.63
-29.27
-28.04
-24.64
-19.14
-11.99
-3.91
4.37
12.20
19.10
24.69
28.64
30.82
31.28
30.41
28.77
26.91
25.12
23.32
21.20
18.48
15.09
11.35
7.75
4.82
2.81
1.65
1.02
0.51
-0.22
-1.34
-2.83
-4.60
-6.43
-8.14
-9.59
-10.71
-11.61
-12.50
-13.69
-15.47
-17.86
-20.63
-23.23
-24.98
-25.32
-23.97
-20.98
-16.71
-11.61
-6.11
-0.56
4.77
9.67
13.93
17.39
19.98
21.77
22.92
23.54
23.73
23.45
22.63
21.25
19.41
17.39
15.51
14.08
13.19
12.69
12.31
11.64
10.40
8.51
6.07
3.36
0.67
-1.73
-3.72
-5.28
-6.51
-7.64
-8.95
-10.71
-13.14
-16.25
-19.75
-22.97
-25.03
-25.05
-22.49
-17.32
-10.11
-1.81
6.48
13.82
19.62
23.68
26.11
27.24
27.51
27.30
26.95
26.64
26.39
26.08
25.49
24.42
22.76
20.54
17.95
15.32
13.02
11.36
10.46
10.22
10.36
10.51
10.28
9.42
7.78
5.38
2.35
-1.06
-4.57
-7.99
-11.25
-14.44
-17.74
-21.24
-24.80
-27.97
-30.10
-30.58
-29.03
-25.47
-20.31
-14.13
-7.56
-1.15
4.66
9.58
13.41
16.19
18.09
19.33
20.13
20.56
20.53
19.90
18.61
16.73
14.51
12.20
9.95
7.83
5.83
3.94
2.25
0.84
-0.22
-1.00
-1.72
-2.62
-3.99
-5.94
-8.46
-11.33
-14.24
-16.88
-19.10
-20.95
-22.68
-24.63
-27.02
-29.83
-32.74
-35.23
-36.68
-36.57
-34.64
-30.94
-25.77
-19.66
-13.13
-6.61
-0.40
5.37
10.61
15.19
18.99
21.88
23.80
24.80
25.01
24.56
23.59
22.19
20.42
18.42
16.35
14.38
12.64
11.20
10.04
9.04
8.04
6.88
5.42
3.56
1.36
-1.06
-3.57
-6.03
-8.40
-10.68
-12.85
-14.86
-16.61
-18.14
-19.57
-21.21
-23.31
-25.88
-28.53
-30.53
-31.05
-29.52
-25.84
-20.49
-14.29
-8.07
-2.39
2.54
6.80
10.50
13.70
16.36
18.41
19.82
20.72
21.24
21.48
21.39
20.80
19.51
17.49
14.91
12.12
9.53
7.42
5.85
4.69
3.66
2.54
1.12
-0.64
-2.74
-5.10
-7.60
-10.09
-12.36
-14.27
-15.74
-16.89
-17.87
-18.92
-20.25
-22.00
-24.26
-26.90
-29.60
-31.86
-33.05
-32.62
-30.35
-26.36
-21.18
-15.47
-9.87
-4.74
-0.24
3.65
6.99
9.79
12.07
13.86
15.23
16.27
17.00
17.32
17.15
16.42
15.17
13.51
11.64
9.78
8.13
6.81
5.80
5.02
4.25
3.21
1.74
-0.20
-2.48
-4.76
-6.78
-8.36
-9.51
-10.38
-11.22
-12.25
-13.71
-15.72
-18.26
-21.13
-23.92
-26.05
-26.92
-26.10
-23.40
-19.06
-13.57
-7.66
-2.00
2.92
6.90
10.02
12.51
14.63
16.48
18.02
19.19
19.88
20.12
19.95
19.38
18.33
16.74
14.69
12.48
10.58
9.38
9.06
9.39
9.87
9.92
9.18
7.59
5.39
2.95
0.53
-1.72
-3.79
-5.72
-7.60
-9.49
-11.53
-13.87
-16.52
-19.28
-21.68
-23.05
-22.78
-20.56
-16.50
-11.18
-5.39
0.19
5.13
9.38
13.08
16.42
19.46
22.12
24.26
25.75
26.54
26.59
25.90
24.44
22.29
19.62
16.75
14.08
11.94
10.48
9.61
9.03
8.36
7.25
5.49
3.09
0.26
-2.66
-5.35
-7.58
-9.29
-10.60
-11.78
-13.15
-14.98
-17.42
-20.35
-23.43
-26.09
-27.72
-27.79
-26.11
-22.76
-18.15
-12.76
-7.07
-1.47
3.77
8.39
12.25
15.30
17.65
19.50
21.11
22.64
24.10
25.34
26.05
25.98
25.01
23.24
20.98
18.62
16.45
14.59
13.00
11.47
9.86
8.09
6.21
4.27
2.30
0.26
-1.90
-4.13
-6.34
-8.35
-10.08
-11.64
-13.30
-15.42
-18.21
-21.55
-24.94
-27.63
-28.86
-28.13
-25.37
-20.90
-15.33
-9.23
-3.06
2.87
8.39
13.33
17.50
20.72
23.01
24.44
25.23
25.54
25.43
24.90
23.86
22.29
20.20
17.68
14.88
11.96
9.17
6.68
4.64
2.99
1.51
-0.11
-2.06
-4.35
-6.82
-9.18
-11.32
-13.23
-15.08
-17.00
-19.05
-21.11
-23.09
-25.00
-26.95
-29.14
-31.59
-34.04
-35.93
-36.58
-35.47
-32.39
-27.54
-21.38
-14.51
-7.40
-0.46
6.04
11.88
16.84
20.79
23.65
25.49
26.42
26.67
26.39
25.66
24.52
22.94
20.96
18.70
16.35
14.09
12.04
10.24
8.66
7.21
5.78
4.28
2.56
0.54
-1.87
-4.64
-7.59
-10.41
-12.78
-14.58
-15.88
-17.01
-18.36
-20.23
-22.73
-25.75
-28.98
-31.98
-34.33
-35.58
-35.37
-33.48
-29.90
-24.89
-18.89
-12.49
-6.21
-0.47
4.55
8.78
12.36
15.38
17.91
19.90
21.20
21.64
21.12
19.70
17.56
15.06
12.59
10.45
8.81
7.69
6.94
6.36
5.74
4.93
3.87
2.48
0.76
-1.33
-3.70
-6.20
-8.59
-10.63
-12.20
-13.32
-14.26
-15.36
-16.90
-19.05
-21.71
-24.58
-27.22
-29.13
-29.88
-29.16
-26.88
-23.19
-18.45
-13.16
-7.82
-2.82
1.61
5.44
8.74
11.67
14.30
16.67
18.70
20.24
21.17
21.37
20.84
19.71
18.16
16.48
14.95
13.80
13.09
12.72
12.44
11.88
10.69
8.67
5.86
2.56
-0.81
-3.86
-6.33
-8.22
-9.71
-11.10
-12.71
-14.72
-17.26
-20.35
-23.79
-27.19
-29.95
-31.44
-31.12
-28.91
-25.12
-20.45
-15.64
-11.24
-7.47
-4.23
-1.35
1.29
3.71
5.93
8.13
10.70
14.19
18.99
25.23
32.67
40.79
49.02
56.76
63.51
68.77
72.05
72.81
70.70
65.70
58.19
48.96
38.92
28.92
19.57
11.21
3.87
-2.48
-7.95
-12.64
-16.69
-20.26
-23.56
-26.73
-29.83
-32.69
-34.97
-36.26
-36.18
-34.54
-31.41
-27.13
-22.20
-17.15
-12.36
-8.01
-4.12
-0.57
2.74
5.86
8.73
11.24
13.29
14.87
16.04
16.78
17.05
16.73
15.70
14.00
11.87
9.62
7.62
6.06
4.90
3.96
2.95
1.69
0.13
-1.70
-3.77
-5.97
-8.22
-10.39
-12.29
-13.81
-14.92
-15.76
-16.62
-17.84
-19.71
-22.30
-25.45
-28.66
-31.34
-32.86
-32.74
-30.82
-27.27
-22.51
-17.07
-11.43
-5.90
-0.65
4.23
8.60
12.31
15.25
17.42
18.92
19.89
20.43
20.53
20.10
19.02
17.30
15.06
12.57
10.15
8.05
6.43
5.28
4.40
3.52
2.33
0.65
-1.53
-4.03
-6.56
-8.78
-10.52
-11.75
-12.65
-13.47
-14.59
-16.26
-18.66
-21.73
-25.12
-28.33
-30.64
-31.47
-30.42
-27.49
-23.07
-17.78
-12.30
-7.17
-2.70
1.10
4.37
7.37
10.28
13.17
16.02
18.64
20.80
22.21
22.67
22.03
20.34
17.81
14.76
11.58
8.63
6.13
4.16
2.67
1.52
0.48
-0.71
-2.31
-4.40
-6.88
-9.46
-11.76
-13.48
-14.53
-15.09
-15.50
-16.05
-16.92
-18.11
-19.55
-21.19
-22.94
-24.65
-25.99
-26.50
-25.71
-23.41
-19.73
-15.18
-10.45
-6.06
-2.30
0.92
3.88
6.88
10.00
13.10
15.85
17.89
19.00
19.17
18.58
17.50
16.23
14.93
13.71
12.61
11.70
11.00
10.48
10.02
9.39
8.36
6.81
4.81
2.62
0.52
-1.31
-2.86
-4.23
-5.58
-7.02
-8.63
-10.46
-12.57
-14.99
-17.62
-20.15
-22.05
-22.79
-21.96
-19.55
-15.87
-11.47
-6.86
-2.33
2.05
6.38
10.71
15.00
19.06
22.64
25.52
27.62
28.93
29.49
29.32
28.42
26.80
24.57
21.90
19.04
16.27
13.80
11.75
10.07
8.61
7.23
5.84
4.41
2.96
1.52
0.02
-1.61
-3.42
-5.37
-7.35
-9.26
-11.06
-12.90
-14.95
-17.36
-20.00
-22.43
-23.97
-23.99
-22.13
-18.46
-13.46
-7.78
-2.04
3.41
8.44
13.05
17.25
20.90
23.86
25.96
27.22
27.78
27.90
27.74
27.34
26.62
25.40
23.66
21.45
19.03
16.68
14.58
12.72
10.98
9.12
6.98
4.54
1.84
-0.92
-3.59
-6.06
-8.32
-10.40
-12.34
-14.17
-15.90
-17.55
-19.21
-21.02
-23.07
-25.33
-27.53
-29.20
-29.80
-28.92
-26.46
-22.64
-17.92
-12.76
-7.49
-2.22
2.97
8.02
12.67
16.65
19.69
21.67
22.71
23.05
22.95
22.53
21.79
20.62
18.89
16.62
13.96
11.23
8.78
6.93
5.76
5.14
4.72
4.08
2.86
0.92
-1.62
-4.48
-7.32
-9.94
-12.29
-14.48
-16.67
-18.97
-21.46
-24.13
-26.98
-29.93
-32.81
-35.21
-36.58
-36.31
-33.96
-29.50
-23.27
-16.01
-8.55
-1.59
4.44
9.45
13.58
17.09
20.11
22.71
24.80
26.21
26.80
26.54
25.49
23.85
21.88
19.79
17.73
15.75
13.86
12.08
10.46
9.01
7.70
6.38
4.90
3.14
1.12
-0.99
-2.99
-4.69
-6.12
-7.39
-8.69
-10.17
-11.89
-13.84
-16.03
-18.49
-21.22
-24.09
-26.80
-28.86
-29.83
-29.40
-27.59
-24.61
-20.79
-16.39
-11.56
-6.42
-1.10
4.15
9.06
13.41
17.04
19.89
21.85
22.76
22.33
20.39
16.93
12.21
6.78
1.35
-3.43
-7.04
-9.18
-9.83
-9.17
-7.59
-5.56
-3.55
-1.98
-1.07
-0.93
-1.48
-2.50
-3.74
-4.99
-6.13
-7.20
-8.33
-9.67
-11.29
-13.14
-15.13
-17.21
-19.38
-21.70
-24.10
-26.33
-27.94
-28.44
-27.53
-25.19
-21.71
-17.47
-12.84
-7.98
-2.96
2.15
7.16
11.73
15.50
18.22
19.89
20.69
20.90
20.76
20.38
19.75
18.79
17.49
15.90
14.22
12.67
11.45
10.66
10.25
10.05
9.81
9.25
8.22
6.67
4.70
2.50
0.29
-1.71
-3.41
-4.78
-5.93
-7.01
-8.27
-9.94
-12.17
-14.94
-17.91
-20.50
-22.01
-21.85
-19.81
-16.13
-11.44
-6.51
-1.92
2.10
5.65
8.97
12.25
15.56
18.69
21.34
23.17
23.96
23.67
22.43
20.49
18.16
15.74
13.45
11.44
9.71
8.24
6.97
5.82
4.72
3.66
2.70
2.02
1.86
2.42
3.80
5.86
8.25
10.49
11.98
12.25
10.97
8.09
3.80
-1.47
-7.13
-12.53
-16.95
-19.86
-20.87
-19.92
-17.17
-13.11
-8.26
-3.21
1.58
5.87
9.60
12.85
15.75
18.36
20.67
22.67
24.28
25.44
26.11
26.22
25.73
24.54
22.63
20.13
17.34
14.63
12.37
10.76
9.70
8.90
7.91
6.36
4.09
1.18
-2.13
-5.50
-8.71
-11.64
-14.25
-16.57
-18.60
-20.40
-22.12
-23.99
-26.26
-28.98
-31.92
-34.50
-35.98
-35.73
-33.43
-29.18
-23.38
-16.62
-9.47
-2.44
4.05
9.71
14.33
17.90
20.53
22.42
23.77
24.58
24.76
24.17
22.76
20.68
18.24
15.81
13.65
11.87
10.41
9.14
7.91
6.60
5.11
3.38
1.38
-0.80
-3.07
-5.29
-7.35
-9.24
-11.01
-12.76
-14.52
-16.36
-18.36
-20.60
-23.20
-26.14
-29.26
-32.17
-34.39
-35.47
-35.12
-33.31
-30.25
-26.21
-21.49
-16.29
-10.69
-4.79
1.22
6.98
12.15
16.42
19.68
21.98
23.44
24.21
24.32
23.69
22.25
19.99
17.12
13.93
10.83
8.13
6.03
4.53
3.54
2.84
2.21
1.44
0.40
-0.96
-2.62
-4.51
-6.53
-8.62
-10.73
-12.85
-14.96
-17.03
-19.02
-20.94
-22.80
-24.70
-26.66
-28.57
-30.13
-30.90
-30.43
-28.43
-24.88
-20.10
-14.64
-9.11
-3.99
0.50
4.35
7.69
10.66
13.30
15.56
17.32
18.49
19.03
18.97
18.31
17.05
15.22
12.94
10.53
8.37
6.91
6.37
6.65
7.40
8.03
8.06
7.20
5.51
3.32
1.01
-1.08
-2.85
-4.39
-5.89
-7.52
-9.36
-11.43
-13.71
-16.14
-18.62
-20.89
-22.54
-23.05
-21.96
-19.09
-14.60
-9.04
-3.07
2.68
7.83
12.23
15.93
19.03
21.61
23.68
25.16
25.96
26.06
25.51
24.44
22.99
21.29
19.45
17.58
15.84
14.34
13.21
12.44
11.94
11.44
10.66
9.30
7.29
4.70
1.80
-1.03
-3.49
-5.40
-6.80
-7.89
-8.94
-10.21
-11.93
-14.13
-16.75
-19.56
-22.20
-24.22
-25.18
-24.73
-22.75
-19.42
-15.09
-10.19
-5.14
-0.15
4.63
9.15
13.37
17.21
20.58
23.36
25.47
26.82
27.38
27.10
25.99
24.13
21.72
19.10
16.59
14.49
12.91
11.76
10.79
9.66
8.17
6.23
3.96
1.58
-0.69
-2.72
-4.48
-6.03
-7.49
-8.97
-10.58
-12.41
-14.62
-17.30
-20.48
-23.95
-27.24
-29.72
-30.80
-30.10
-27.57
-23.52
-18.49
-13.04
-7.59
-2.35
2.68
7.51
12.15
16.51
20.39
23.51
25.66
26.62
26.32
24.85
22.43
19.40
16.24
13.44
11.42
10.45
10.53
11.45
12.85
14.29
15.42
15.96
15.69
14.42
12.01
8.43
3.91
-1.11
-6.05
-10.32
-13.64
-16.04
-17.87
-19.71
-22.07
-25.22
-29.00
-32.96
-36.35
-38.40
-38.59
-36.72
-32.98
-27.89
-22.02
-15.82
-9.65
-3.65
2.02
7.28
12.00
16.07
19.38
21.87
23.52
24.27
24.14
23.16
21.49
19.32
16.91
14.51
12.32
10.51
9.19
8.35
7.94
7.80
7.74
7.56
7.11
6.27
4.97
3.10
0.56
-2.65
-6.39
-10.37
-14.21
-17.67
-20.68
-23.45
-26.19
-28.99
-31.70
-33.84
-34.87
-34.36
-32.22
-28.64
-24.01
-18.72
-13.08
-7.30
-1.57
3.96
9.16
13.92
18.14
21.69
24.40
26.06
26.53
25.80
24.06
21.59
18.71
15.67
12.65
9.82
7.31
5.25
3.67
2.50
1.49
0.39
-1.01
-2.79
-4.86
-7.00
-9.03
-10.76
-12.14
-13.21
-14.10
-14.99
-16.08
-17.53
-19.44
-21.80
-24.50
-27.29
-29.81
-31.59
-32.18
-31.27
-28.71
-24.68
-19.63
-14.15
-8.79
-3.88
0.58
4.71
8.72
12.69
16.46
19.79
22.39
24.05
24.80
24.78
24.15
22.99
21.33
19.18
16.70
14.16
11.88
10.14
8.97
8.19
7.40
6.23
4.47
2.24
-0.14
-2.32
-4.06
-5.32
-6.22
-6.97
-7.73
-8.67
-9.90
-11.56
-13.68
-16.14
-18.54
-20.30
-20.78
-19.60
-16.77
-12.68
-7.95
-3.10
1.53
5.85
9.92
13.78
17.46
20.80
23.65
25.85
27.32
28.10
28.27
27.90
27.00
25.58
23.66
21.39
19.03
16.89
15.18
13.92
12.94
12.00
10.87
9.45
7.77
5.87
3.83
1.69
-0.49
-2.59
-4.59
-6.49
-8.43
-10.56
-13.03
-15.84
-18.80
-21.62
-23.91
-25.40
-25.83
-25.10
-23.19
-20.19
-16.31
-11.84
-7.11
-2.31
2.40
7.01
11.49
15.79
19.72
23.06
25.57
27.08
27.56
27.08
25.77
23.77
21.31
18.65
16.09
13.92
12.26
11.05
10.09
9.11
7.94
6.57
5.16
3.86
2.68
1.47
0.01
-1.90
-4.22
-6.77
-9.28
-11.55
-13.57
-15.55
-17.74
-20.30
-23.18
-26.01
-28.34
-29.67
-29.66
-28.22
-25.40
-21.42
-16.49
-10.92
-5.00
0.87
6.35
11.13
15.05
18.11
20.44
22.17
23.36
24.05
24.18
23.72
22.64
21.01
18.90
16.52
14.14
12.00
10.26
8.87
7.59
6.11
4.21
1.91
-0.58
-2.96
-5.07
-6.96
-8.82
-10.84
-13.01
-15.22
-17.31
-19.27
-21.23
-23.40
-25.90
-28.68
-31.44
-33.79
-35.38
-35.96
-35.36
-33.49
-30.33
-25.93
-20.52
-14.43
-8.02
-1.65
4.38
9.87
14.68
18.73
22.01
24.58
26.43
27.55
27.84
27.18
25.48
22.85
19.60
16.18
13.04
10.52
8.72
7.53
6.68
5.89
4.90
3.58
1.89
-0.17
-2.54
-5.17
-7.94
-10.72
-13.37
-15.74
-17.80
-19.64
-21.41
-23.37
-25.69
-28.39
-31.31
-34.02
-36.01
-36.79
-36.05
-33.74
-30.08
-25.42
-20.10
-14.42
-8.57
-2.74
2.89
8.08
12.59
16.25
19.04
21.01
22.21
22.72
22.58
21.80
20.46
18.67
16.56
14.34
12.19
10.23
8.58
7.24
6.13
5.11
4.07
2.91
1.62
0.30
-1.00
-2.21
-3.33
-4.37
-5.36
-6.35
-7.42
-8.70
-10.35
-12.53
-15.30
-18.46
-21.58
-23.99
-24.98
-24.08
-21.17
-16.56
-10.89
-4.93
0.67
5.44
9.25
12.21
14.62
16.84
19.17
21.73
24.43
27.00
29.04
30.20
30.29
29.33
27.54
25.28
22.93
20.76
18.90
17.38
16.14
15.05
14.01
12.90
11.57
9.93
7.90
5.51
2.86
0.18
-2.33
-4.52
-6.33
-7.87
-9.31
-10.90
-12.80
-15.02
-17.40
-19.58
-21.11
-21.57
-20.70
-18.46
-15.01
-10.70
-5.90
-0.95
3.90
8.44
12.50
15.99
18.82
21.02
22.63
23.72
24.28
24.24
23.49
22.03
19.98
17.64
15.39
13.55
12.24
11.39
10.76
10.05
9.01
7.47
5.38
2.79
-0.19
-3.39
-6.62
-9.70
-12.43
-14.72
-16.61
-18.23
-19.86
-21.77
-24.14
-26.94
-29.86
-32.36
-33.82
-33.81
-32.15
-29.02
-24.78
-19.81
-14.46
-8.93
-3.37
2.06
7.15
11.69
15.47
18.43
20.59
22.09
23.06
23.60
23.68
23.19
22.01
20.08
17.43
14.28
11.00
7.99
5.59
3.90
2.80
2.00
1.15
0.01
-1.49
-3.24
-5.03
-6.67
-8.10
-9.39
-10.65
-12.02
-13.56
-15.25
-17.11
-19.18
-21.52
-24.11
-26.78
-29.12
-30.57
-30.63
-29.06
-25.96
-21.79
-17.08
-12.22
-7.40
-2.66
2.00
6.47
10.60
14.19
17.18
19.61
21.48
22.73
23.23
22.81
21.47
19.41
17.03
14.75
12.87
11.52
10.59
9.89
9.17
8.14
6.63
4.58
2.11
-0.61
-3.32
-5.84
-8.07
-9.98
-11.65
-13.23
-14.85
-16.63
-18.67
-20.95
-23.41
-25.89
-28.25
-30.38
-32.12
-33.31
-33.71
-33.05
-31.12
-27.87
-23.46
-18.20
-12.51
-6.75
-1.20
3.91
8.44
12.29
15.37
17.61
19.02
19.67
19.73
19.42
18.90
18.30
17.61
16.71
15.58
14.30
13.07
12.11
11.48
11.07
10.56
9.66
8.13
6.03
3.50
0.77
-1.98
-4.67
-7.22
-9.56
-11.58
-13.22
-14.54
-15.74
-17.08
-18.78
-20.87
-23.10
-25.04
-26.16
-26.03
-24.47
-21.61
-17.78
-13.36
-8.66
-3.90
0.83
5.45
9.91
14.02
17.58
20.39
22.34
23.44
23.77
23.51
22.81
21.84
20.71
19.56
18.45
17.44
16.52
15.65
14.76
13.77
12.60
11.16
9.38
7.20
4.66
1.91
-0.81
-3.24
-5.22
-6.73
-7.94
-9.12
-10.49
-12.19
-14.21
-16.41
-18.52
-20.20
-21.08
-20.81
-19.24
-16.39
-12.50
-7.92
-3.07
1.75
6.38
10.81
15.12
19.33
23.27
26.62
28.93
29.89
29.44
27.82
25.48
22.92
20.50
18.33
16.39
14.65
13.16
12.07
11.42
11.09
10.75
10.02
8.66
6.71
4.43
2.15
0.09
-1.79
-3.68
-5.77
-8.03
-10.29
-12.32
-14.05
-15.64
-17.43
-19.59
-22.04
-24.30
-25.75
-25.81
-24.22
-21.09
-16.74
-11.61
-6.00
-0.12
5.88
11.77
17.26
22.06
25.94
28.84
30.79
31.93
32.33
32.01
30.89
28.97
26.37
23.36
20.31
17.58
15.40
13.79
12.59
11.53
10.31
8.79
6.88
4.65
2.17
-0.42
-3.05
-5.62
-8.02
-10.14
-11.93
-13.50
-15.02
-16.82
-19.16
-22.09
-25.42
-28.64
-31.12
-32.26
-31.74
-29.46
-25.60
-20.51
-14.59
-8.28
-2.00
3.88
9.07
13.43
16.94
19.66
21.68
23.10
23.96
24.30
24.11
23.38
22.08
20.18
17.77
15.09
12.48
10.27
8.60
7.38
6.28
4.92
3.07
0.74
-1.85
-4.43
-6.83
-9.06
-11.25
-13.53
-15.91
-18.30
-20.58
-22.70
-24.72
-26.79
-28.99
-31.17
-32.98
-33.97
-33.77
-32.25
-29.53
-25.85
-21.46
-16.47
-10.86
-4.68
1.92
8.58
14.81
20.16
24.32
27.16
28.71
29.08
28.44
26.98
24.87
22.37
19.66
16.96
14.45
12.24
10.39
8.85
7.49
6.18
4.75
3.13
1.34
-0.57
-2.54
-4.56
-6.68
-8.92
-11.25
-13.57
-15.75
-17.73
-19.57
-21.45
-23.55
-25.92
-28.40
-30.59
-32.06
-32.38
-31.34
-28.94
-25.37
-20.90
-15.79
-10.21
-4.31
1.80
7.87
13.60
18.61
22.59
25.35
26.90
27.39
27.06
26.09
24.58
22.62
20.34
17.91
15.56
13.50
11.80
10.36
8.97
7.40
5.53
3.36
1.09
-1.11
-3.09
-4.84
-6.47
-8.13
-9.98
-12.06
-14.33
-16.64
-18.89
-21.06
-23.26
-25.67
-28.36
-31.23
-33.90
-35.82
-36.41
-35.24
-32.24
-27.65
-21.96
-15.71
-9.36
-3.17
2.66
8.00
12.68
16.50
19.27
20.93
21.56
21.35
20.53
19.32
17.84
16.18
14.43
12.73
11.25
10.16
9.47
9.05
8.68
8.12
7.21
5.93
4.38
2.68
0.92
-0.90
-2.79
-4.74
-6.68
-8.53
-10.31
-12.13
-14.14
-16.48
-19.14
-21.90
-24.34
-25.98
-26.36
-25.22
-22.51
-18.45
-13.42
-7.84
-2.10
3.50
8.72
13.46
17.68
21.35
24.46
26.96
28.80
29.91
30.21
29.71
28.47
26.65
24.50
22.28
20.20
18.40
16.95
15.79
14.84
13.95
13.00
11.95
10.72
9.27
7.57
5.56
3.29
0.79
-1.84
-4.51
-7.17
-9.81
-12.50
-15.24
-18.00
-20.57
-22.61
-23.79
-23.75
-22.29
-19.41
-15.32
-10.40
-5.10
0.15
5.05
9.44
13.31
16.68
19.54
21.82
23.46
24.40
24.67
24.30
23.31
21.76
19.72
17.41
15.14
13.23
11.85
10.94
10.24
9.38
8.06
6.14
3.71
0.97
-1.83
-4.54
-7.07
-9.40
-11.55
-13.57
-15.53
-17.52
-19.62
-21.94
-24.55
-27.29
-29.86
-31.72
-32.36
-31.49
-29.13
-25.59
-21.31
-16.64
-11.76
-6.67
-1.35
4.05
9.22
13.77
17.43
20.09
21.87
22.92
23.37
23.24
22.47
21.04
19.08
16.85
14.71
12.93
11.60
10.61
9.74
8.74
7.41
5.68
3.56
1.17
-1.38
-3.91
-6.32
-8.56
-10.67
-12.79
-15.08
-17.68
-20.58
-23.70
-26.84
-29.81
-32.38
-34.32
-35.35
-35.18
-33.61
-30.56
-26.21
-20.90
-15.08
-9.13
-3.28
2.43
8.02
13.42
18.39
22.48
25.24
26.40
25.96
24.30
21.92
19.32
16.76
14.32
11.94
9.64
7.57
5.91
4.77
4.04
3.43
2.58
1.23
-0.62
-2.85
-5.24
-7.58
-9.75
-11.72
-13.47
-15.05
-16.49
-17.86
-19.30
-20.95
-22.90
-25.12
-27.43
-29.43
-30.63
-30.60
-29.08
-26.12
-22.00
-17.17
-12.03
-6.87
-1.85
2.99
7.62
12.00
16.03
19.57
22.49
24.59
25.77
26.00
25.32
23.90
21.97
19.77
17.50
15.34
13.38
11.69
10.26
8.94
7.54
5.90
3.91
1.61
-0.80
-3.13
-5.21
-6.97
-8.41
-9.62
-10.71
-11.86
-13.25
-14.96
-16.97
-19.04
-20.70
-21.42
-20.73
-18.46
-14.77
-10.08
-4.90
0.34
5.38
10.16
14.67
18.93
22.76
25.92
28.15
29.34
29.54
29.03
28.12
27.04
25.91
24.67
23.20
21.42
19.41
17.31
15.28
13.44
11.80
10.25
8.65
6.85
4.81
2.54
0.15
-2.28
-4.67
-6.94
-9.10
-11.18
-13.29
-15.58
-18.15
-20.98
-23.87
-26.41
-28.13
-28.61
-27.59
-25.09
-21.36
-16.74
-11.59
-6.19
-0.70
4.73
10.01
14.99
19.51
23.32
26.24
28.15
29.00
28.87
27.90
26.23
24.05
21.57
18.98
16.50
14.28
12.37
10.64
8.91
6.95
4.68
2.16
-0.40
-2.75
-4.77
-6.45
-7.93
-9.39
-10.95
-12.62
-14.32
-16.04
-17.84
-19.86
-22.23
-24.90
-27.58
-29.75
-30.83
-30.37
-28.21
-24.51
-19.63
-13.98
-7.89
-1.59
4.73
10.86
16.55
21.47
25.40
28.20
29.89
30.56
30.37
29.45
27.87
25.76
23.21
20.37
17.47
14.75
12.42
10.59
9.16
7.92
6.58
4.94
2.93
0.60
-1.94
-4.54
-7.13
-9.67
-12.12
-14.42
-16.51
-18.41
-20.21
-22.07
-24.09
-26.28
-28.49
-30.48
-31.95
-32.56
-32.04
-30.18
-26.89
-22.27
-16.62
-10.38
-4.06
1.92
7.31
12.00
16.03
19.47
22.31
24.51
25.97
26.66
26.60
25.94
24.78
23.20
21.24
18.97
16.53
14.19
12.20
10.71
9.65
8.71
7.48
5.63
3.06
-0.00
-3.20
-6.21
-8.89
-11.27
-13.53
-15.73
-17.86
-19.85
-21.67
-23.45
-25.42
-27.76
-30.42
-33.04
-34.98
-35.67
-34.77
-32.27
-28.51
-23.91
-18.87
-13.61
-8.26
-2.87
2.45
7.45
11.89
15.49
18.19
20.01
21.13
21.72
21.86
21.49
20.50
18.83
16.56
13.94
11.31
8.98
7.14
5.81
4.86
4.08
3.28
2.27
0.96
-0.68
-2.58
-4.57
-6.49
-8.22
-9.71
-11.04
-12.32
-13.64
-15.13
-16.86
-18.92
-21.31
-23.93
-26.47
-28.46
-29.34
-28.71
-26.46
-22.85
-18.33
-13.44
-8.52
-3.71
1.03
5.74
10.41
14.82
18.65
21.50
23.15
23.54
22.87
21.51
19.83
18.14
16.59
15.25
14.10
13.12
12.26
11.49
10.76
9.99
9.17
8.24
7.20
6.00
4.63
3.11
1.42
-0.42
-2.36
-4.42
-6.55
-8.71
-10.84
-12.86
-14.70
-16.36
-17.76
-18.78
-19.25
-18.96
-17.79
-15.71
-12.82
-9.26
-5.19
-0.72
4.00
8.83
13.48
17.66
21.11
23.66
25.31
26.18
26.41
26.16
25.48
24.37
22.81
20.82
18.47
16.00
13.67
11.74
10.34
9.38
8.62
7.73
6.40
4.53
2.21
-0.28
-2.62
-4.59
-6.19
-7.55
-8.90
-10.39
-12.09
-14.00
-16.08
-18.32
-20.60
-22.72
-24.27
-24.73
-23.69
-20.97
-16.76
-11.56
-5.98
-0.50
4.62
9.29
13.58
17.51
21.06
24.11
26.50
28.12
28.88
28.76
27.77
26.02
23.69
21.07
18.47
16.20
14.47
13.32
12.66
12.24
11.80
11.10
9.97
8.35
6.27
3.86
1.31
-1.21
-3.52
-5.56
-7.36
-9.05
-10.78
-12.73
-15.06
-17.84
-21.03
-24.42
-27.66
-30.25
-31.66
-31.50
-29.63
-26.19
-21.55
-16.15
-10.44
-4.76
0.72
5.85
10.53
14.60
17.88
20.21
21.52
21.84
21.32
20.22
18.71
16.98
15.10
13.19
11.33
9.72
8.53
7.87
7.66
7.65
7.48
6.82
5.49
3.42
0.78
-2.25
-5.43
-8.59
-11.58
-14.23
-16.50
-18.38
-20.03
-21.66
-23.51
-25.71
-28.14
-30.46
-32.17
-32.77
-31.99
-29.72
-26.13
-21.46
-16.03
-10.13
-4.02
2.01
7.76
13.00
17.52
21.08
23.50
24.67
24.64
23.65
22.07
20.28
18.54
16.92
15.32
13.67
11.95
10.26
8.74
7.45
6.37
5.37
4.39
3.37
2.33
1.24
-0.03
-1.66
-3.85
-6.65
-9.95
-13.52
-17.05
-20.30
-23.20
-25.80
-28.19
-30.36
-32.16
-33.29
-33.40
-32.26
-29.76
-26.01
-21.22
-15.67
-9.64
-3.47
2.50
7.88
12.32
15.59
17.68
18.74
19.04
18.77
18.07
16.99
15.54
13.81
11.92
10.01
8.24
6.70
5.42
4.40
3.58
2.85
2.05
1.01
-0.44
-2.32
-4.56
-6.94
-9.14
-10.82
-11.70
-11.60
-10.54
-8.76
-6.59
-4.46
-2.79
-1.90
-1.90
-2.73
-4.10
-5.57
-6.65
-6.89
-6.04
-4.12
-1.37
1.79
4.91
7.71
10.09
12.18
14.20
16.28
18.43
20.48
22.18
23.35
23.94
24.06
23.89
23.60
23.36
23.33
23.58
24.11
24.76
25.19
24.97
23.65
20.93
16.75
11.32
5.01
-1.74
-8.48
-14.87
-20.67
-25.88
-30.72
-35.56
-40.80
-46.70
-53.22
-59.86
-65.85
-70.29
-72.41
-71.80
-68.47
-62.78
-55.31
-46.60
-37.05
-26.93
-16.40
-5.61
5.21
15.71
25.42
33.89
40.77
45.82
48.89
49.94
49.04
46.36
42.34
37.57
32.77
28.63
25.52
23.45
22.08
20.89
19.35
17.17
14.28
10.84
7.14
3.47
0.12
-2.73
-5.02
-6.87
-8.51
-10.26
-12.35
-14.80
-17.42
-19.79
-21.38
-21.76
-20.66
-18.07
-14.23
-9.57
-4.54
0.47
5.24
9.76
14.06
18.19
22.10
25.53
28.19
29.82
30.27
29.60
27.99
25.72
23.09
20.44
17.98
15.91
14.32
13.19
12.42
11.79
11.04
9.90
8.19
5.83
3.00
-0.03
-2.97
-5.58
-7.83
-9.85
-11.80
-13.81
-16.00
-18.33
-20.78
-23.28
-25.65
-27.60
-28.78
-28.84
-27.55
-24.94
-21.24
-16.82
-12.04
-7.16
-2.33
2.36
6.84
11.00
14.70
17.76
20.03
21.41
21.90
21.57
20.56
19.01
17.06
14.77
12.25
9.70
7.43
5.71
4.67
4.21
4.00
3.62
2.77
1.33
-0.61
-2.85
-5.19
-7.58
-10.00
-12.42
-14.82
-17.10
-19.22
-21.25
-23.34
-25.62
-28.08
-30.46
-32.28
-33.02
-32.26
-29.82
-25.83
-20.63
-14.62
-8.20
-1.67
4.65
10.50
15.56
19.57
22.41
24.06
24.64
24.31
23.16
21.33
18.96
16.33
13.78
11.65
10.14
9.29
8.93
8.79
8.56
7.93
6.65
4.61
1.86
-1.35
-4.59
-7.36
-9.34
-10.43
-10.86
-11.03
-11.37
-12.17
-13.57
-15.57
-18.09
-21.10
-24.51
-28.17
-31.73
-34.73
-36.64
-37.10
-36.01
-33.58
-30.20
-26.27
-22.06
-17.67
-13.16
-8.64
-4.37
-0.71
1.98
3.43
3.67
3.08
2.44
2.73
4.90
9.56
16.74
25.87
35.88
45.61
53.96
60.17
63.79
64.66
62.92
58.97
53.47
47.17
40.75
34.56
28.62
22.58
16.07
8.88
1.10
-6.82
-14.33
-20.80
-25.85
-29.27
-31.02
-31.23
-30.12
-28.07
-25.65
-23.57
-22.47
-22.64
-23.77
-25.07
-25.48
-24.13
-20.78
-15.79
-10.05
-4.51
0.17
3.73
6.29
8.04
9.12
9.53
9.23
8.23
6.72
5.06
3.62
2.65
2.22
2.15
2.12
1.83
1.09
-0.10
-1.56
-3.09
-4.53
-5.82
-7.02
-8.23
-9.51
-10.86
-12.27
-13.75
-15.31
-16.93
-18.51
-19.77
-20.37
-19.92
-18.16
-15.12
-11.04
-6.32
-1.34
3.58
8.29
12.70
16.79
20.49
23.63
26.01
27.46
27.93
27.48
26.28
24.53
22.46
20.21
17.91
15.69
13.65
11.90
10.46
9.28
8.24
7.14
5.82
4.21
2.33
0.29
-1.78
-3.73
-5.50
-7.09
-8.58
-10.11
-11.79
-13.64
-15.63
-17.58
-19.20
-20.18
-20.25
-19.24
-17.12
-14.00
-10.08
-5.60
-0.80
4.12
9.01
13.73
18.13
22.05
25.34
27.83
29.37
29.92
29.48
28.22
26.36
24.15
21.81
19.50
17.30
15.26
13.35
11.56
9.79
7.95
5.90
3.58
1.02
-1.63
-4.14
-6.37
-8.28
-9.98
-11.66
-13.53
-15.72
-18.28
-21.22
-24.45
-27.76
-30.79
-33.04
-33.96
-33.18
-30.60
-26.44
-21.17
-15.30
-9.27
-3.36
2.28
7.62
12.58
17.00
20.73
23.50
25.13
25.58
24.88
23.27
20.94
18.15
15.11
12.09
9.32
7.05
5.43
4.44
3.83
3.27
2.42
1.13
-0.60
-2.67
-4.93
-7.30
-9.77
-12.29
-14.84
-17.34
-19.72
-22.03
-24.42
-27.01
-29.78
-32.49
-34.60
-35.57
-34.99
-32.72
-28.87
-23.68
-17.38
-10.18
-2.36
5.69
13.46
20.39
26.06
30.21
32.80
33.91
33.65
32.11
29.48
26.02
22.17
18.35
14.89
11.96
9.58
7.64
6.03
4.64
3.32
1.94
0.38
-1.45
-3.45
-5.52
-7.51
-9.37
-11.14
-12.98
-14.95
-17.14
-19.58
-22.26
-25.24
-28.44
-31.64
-34.41
-36.24
-36.62
-35.33
-32.43
-28.19
-23.01
-17.24
-11.14
-4.94
1.12
6.76
11.73
15.83
19.07
21.45
22.98
23.65
23.45
22.50
20.94
19.07
17.11
15.27
13.60
12.06
10.62
9.24
7.85
6.36
4.67
2.70
0.52
-1.66
-3.58
-5.02
-5.96
-6.56
-7.09
-7.83
-8.98
-10.65
-12.84
-15.50
-18.46
-21.42
-23.93
-25.47
-25.64
-24.27
-21.50
-17.68
-13.28
-8.64
-3.98
0.65
5.24
9.77
14.16
18.27
21.92
24.94
27.18
28.52
28.91
28.37
26.99
25.03
22.77
20.51
18.53
16.99
15.95
15.33
14.95
14.53
13.77
12.44
10.43
7.85
4.93
1.98
-0.72
-3.05
-5.04
-6.89
-8.85
-11.11
-13.70
-16.46
-19.08
-21.20
-22.47
-22.68
-21.75
-19.73
-16.69
-12.76
-8.09
-2.89
2.60
8.07
13.23
17.80
21.50
24.11
25.58
26.01
25.60
24.64
23.24
21.42
19.19
16.59
13.85
11.32
9.29
7.81
6.66
5.47
3.91
1.90
-0.40
-2.70
-4.73
-6.42
-7.84
-9.17
-10.58
-12.17
-13.99
-16.08
-18.42
-20.97
-23.62
-26.14
-28.15
-29.19
-28.80
-26.76
-23.15
-18.33
-12.85
-7.28
-1.93
3.06
7.70
12.01
15.93
19.30
21.96
23.79
24.73
24.78
23.92
22.18
19.68
16.66
13.49
10.56
8.21
6.61
5.74
5.35
5.04
4.41
3.11
1.06
-1.62
-4.57
-7.44
-9.91
-11.82
-13.17
-14.11
-14.80
-15.43
-16.21
-17.30
-18.82
-20.67
-22.53
-23.92
-24.31
-23.34
-20.94
-17.35
-12.91
-7.99
-2.90
2.15
6.95
11.29
14.97
17.91
20.11
21.70
22.80
23.41
23.46
22.82
21.47
19.52
17.27
15.01
12.97
11.21
9.71
8.39
7.14
5.91
4.67
3.36
1.90
0.25
-1.62
-3.71
-5.97
-8.41
-11.01
-13.76
-16.65
-19.63
-22.64
-25.54
-28.19
-30.33
-31.69
-32.02
-31.15
-29.02
-25.72
-21.48
-16.59
-11.39
-6.23
-1.40
2.91
6.63
9.79
12.50
14.79
16.58
17.82
18.44
18.48
18.13
17.57
16.95
16.32
15.62
14.76
13.69
12.43
11.07
9.67
8.24
6.73
5.05
3.15
0.96
-1.46
-4.02
-6.59
-9.01
-11.19
-13.07
-14.73
-16.29
-17.95
-19.85
-22.07
-24.55
-27.04
-29.28
-30.95
-31.78
-31.59
-30.29
-27.89
-24.49
-20.26
-15.40
-10.22
-4.98
0.10
4.90
9.41
13.61
17.43
20.67
23.15
24.69
25.32
25.27
24.94
24.72
24.87
25.42
26.14
26.71
26.73
25.95
24.22
21.50
17.89
13.52
8.61
3.44
-1.60
-6.13
-9.84
-12.57
-14.39
-15.51
-16.29
-17.07
-18.05
-19.28
-20.64
-21.85
-22.56
-22.48
-21.39
-19.30
-16.29
-12.55
-8.29
-3.72
0.96
5.56
9.92
13.98
17.71
21.13
24.21
26.81
28.72
29.79
29.92
29.17
27.70
25.69
23.33
20.78
18.26
15.99
14.17
12.86
11.89
10.97
9.78
8.13
6.00
3.55
0.97
-1.58
-4.00
-6.21
-8.16
-9.83
-11.28
-12.69
-14.29
-16.27
-18.64
-21.18
-23.41
-24.75
-24.69
-22.98
-19.76
-15.40
-10.43
-5.32
-0.33
4.47
9.10
13.48
17.44
20.65
22.84
23.91
23.93
23.16
21.77
19.91
17.59
14.92
12.11
9.55
7.59
6.38
5.82
5.51
4.99
3.93
2.26
0.11
-2.28
-4.72
-7.17
-9.64
-12.15
-14.69
-17.16
-19.47
-21.56
-23.44
-25.19
-26.89
-28.52
-29.94
-30.88
-30.97
-29.95
-27.69
-24.27
-19.89
-14.85
-9.39
-3.69
2.01
7.47
12.42
16.64
20.01
22.53
24.26
25.23
25.43
24.85
23.54
21.63
19.38
17.07
14.90
12.97
11.28
9.77
8.34
6.88
5.29
3.51
1.52
-0.65
-2.90
-5.16
-7.38
-9.60
-11.83
-14.03
-16.14
-18.02
-19.69
-21.23
-22.86
-24.73
-26.75
-28.60
-29.70
-29.49
-27.68
-24.34
-19.88
-14.85
-9.72
-4.67
0.33
5.41
10.60
15.70
20.33
24.03
26.46
27.54
27.42
26.43
24.90
23.07
21.06
18.96
16.88
14.95
13.33
12.09
11.15
10.32
9.36
8.11
6.55
4.78
2.87
0.85
-1.35
-3.80
-6.53
-9.40
-12.21
-14.80
-17.15
-19.42
-21.84
-24.58
-27.59
-30.58
-33.08
-34.60
-34.82
-33.62
-31.10
-27.46
-22.93
-17.70
-11.93
-5.84
0.32
6.22
11.51
15.89
19.18
21.28
22.26
22.28
21.54
20.30
18.80
17.24
15.72
14.34
13.06
11.88
10.74
9.62
8.50
7.32
6.01
4.49
2.74
0.77
-1.32
-3.40
-5.42
-7.32
-9.17
-10.99
-12.74
-14.38
-15.91
-17.40
-19.01
-20.84
-22.79
-24.51
-25.51
-25.26
-23.55
-20.47
-16.36
-11.70
-6.85
-1.98
2.86
7.65
12.26
16.45
19.90
22.35
23.67
23.95
23.42
22.41
21.22
20.05
18.96
17.94
16.97
16.00
15.03
14.06
13.05
11.97
10.77
9.42
7.96
6.48
5.02
3.60
2.13
0.44
-1.58
-3.99
-6.72
-9.62
-12.54
-15.36
-17.95
-20.17
-21.79
-22.47
-21.92
-19.99
-16.76
-12.58
-7.89
-3.09
1.54
5.92
10.10
14.11
17.90
21.27
23.94
25.60
26.15
25.67
24.43
22.74
20.83
18.83
16.81
14.85
13.06
11.59
10.46
9.60
8.85
8.05
7.12
6.08
4.95
3.72
2.27
0.42
-1.92
-4.64
-7.48
-10.19
-12.58
-14.68
-16.63
-18.69
-20.97
-23.39
-25.60
-27.14
-27.55
-26.56
-24.16
-20.53
-15.99
-10.91
-5.57
-0.24
4.82
9.48
13.58
17.05
19.85
21.97
23.37
24.06
24.02
23.24
21.78
19.70
17.11
14.22
11.29
8.61
6.38
4.65
3.28
2.04
0.74
-0.66
-2.11
-3.47
-4.71
-5.92
-7.24
-8.78
-10.51
-12.33
-14.08
-15.70
-17.30
-19.05
-21.15
-23.61
-26.29
-28.77
-30.60
-31.33
-30.69
-28.63
-25.29
-20.90
-15.72
-9.97
-3.86
2.35
8.34
13.79
18.38
21.93
24.36
25.74
26.15
25.75
24.68
23.10
21.17
19.02
16.84
14.76
12.93
11.41
10.16
9.00
7.73
6.16
4.28
2.27
0.46
-0.87
-1.63
-2.03
-2.53
-3.64
-5.65
-8.48
-11.68
-14.67
-16.93
-18.36
-19.21
-19.97
-21.11
-22.67
-24.16
-24.63
-22.93
-18.09
-9.87
0.94
12.46
21.96
26.51
23.57
11.77
-8.57
-35.20
-64.19
-90.57
-109.49
-117.35
-112.74
-96.69
-72.42
-44.35
-17.12
5.36
20.49
27.21
25.92
18.24
6.67
-6.01
-17.35
-25.83
-31.12
-33.88
-35.30
-36.50
-38.13
-40.15
-42.21
-43.94
-45.50
-47.55
-51.09
-56.90
-65.02
-74.87
-85.48
-95.81
-104.97
-112.00
-115.54
-113.99
-106.32
-93.13
-77.08
-62.19
-51.71
-46.19
-42.54
-35.18
-18.57
10.32
50.90
99.92
153.45
208.40
262.61
313.83
358.57
392.38
411.24
413.45
400.54
376.64
346.70
314.57
282.28
250.39
219.01
188.79
160.94
136.46
115.24
95.68
75.05
50.95
22.68
-8.07
-37.45
-60.92
-75.09
-79.15
-74.96
-66.14
-56.48
-48.77
-44.29
-42.79
-42.38
-39.42
-29.05
-6.82
28.70
73.66
118.65
151.37
161.33
144.20
103.60
49.17
-7.68
-58.03
-97.53
-125.66
-143.50
-151.78
-150.60
-140.26
-122.24
-99.45
-75.36
-52.69
-32.73
-15.49
-0.46
12.64
23.57
32.08
38.29
42.82
46.46
49.45
51.25
50.63
46.20
36.94
22.55
3.53
-18.81
-42.29
-64.04
-81.03
-91.04
-93.72
-90.98
-86.35
-83.33
-83.73
-86.95
-90.31
-90.33
-84.30
-71.50
-53.87
-35.82
-23.23
-21.55
-33.63
-57.95
-88.64
-117.49
-137.30
-145.00
-142.60
-135.47
-128.75
-124.42
-120.43
-112.33
-96.24
-71.12
-39.56
-6.59
22.04
41.85
50.64
48.88
39.39
26.40
14.49
7.10
5.69
9.48
16.18
23.34
29.40
34.27
38.83
44.15
50.75
58.37
66.29
73.65
79.68
83.57
84.48
81.54
74.24
62.78
48.23
32.32
17.00
3.86
-6.24
-13.16
-17.38
-19.72
-21.12
-22.52
-24.68
-28.10
-32.75
-38.16
-43.51
-47.91
-50.69
-51.60
-50.89
-49.24
-47.50
-46.35
-46.11
-46.48
-46.81
-46.31
-44.46
-41.27
-37.18
-32.82
-28.61
-24.57
-20.39
-15.71
-10.42
-4.77
0.63
5.14
8.45
10.74
12.65
15.02
18.62
23.81
30.54
38.32
46.41
53.90
59.80
63.08
62.76
58.22
49.44
37.21
23.07
8.84
-3.89
-14.27
-22.23
-28.33
-33.22
-37.25
-40.39
-42.36
-43.04
-42.66
-41.81
-41.19
-41.31
-42.37
-44.28
-46.80
-49.63
-52.39
-54.51
-55.17
-53.49
-48.91
-41.55
-32.31
-22.63
-13.90
-6.93
-1.71
2.38
6.12
10.02
14.04
17.88
21.20
23.94
26.34
28.68
31.01
33.02
34.19
34.04
32.43
29.67
26.41
23.32
20.93
19.45
18.80
18.77
19.05
19.30
19.19
18.33
16.34
13.00
8.24
2.27
-4.52
-11.72
-19.01
-26.15
-33.00
-39.37
-44.89
-49.04
-51.30
-51.31
-49.06
-44.95
-39.70
-34.11
-28.84
-24.25
-20.38
-17.08
-14.04
-10.99
-7.60
-3.56
1.45
7.58
14.63
21.87
28.09
31.96
32.45
29.28
23.13
15.39
7.67
1.17
-3.74
-7.57
-11.34
-16.17
-22.79
-31.38
-41.59
-52.71
-63.85
-74.07
-82.49
-88.43
-91.53
-91.80
-89.68
-85.85
-80.97
-75.53
-69.63
-63.07
-55.44
-46.44
-36.14
-25.01
-13.86
-3.46
5.65
13.29
19.50
24.34
27.71
29.31
28.88
26.41
22.29
17.23
12.03
7.33
3.42
0.37
-1.92
-3.50
-4.27
-3.94
-2.22
1.05
5.64
10.82
15.68
19.25
20.95
20.72
18.96
16.32
13.37
10.42
7.44
4.28
0.74
-3.25
-7.61
-12.09
-16.29
-19.70
-21.82
-22.27
-20.90
-17.86
-13.49
-8.27
-2.64
3.00
8.39
13.31
17.60
21.17
23.96
25.99
27.30
27.95
28.10
27.95
27.71
27.63
27.87
28.44
29.31
30.35
31.52
32.84
34.37
36.14
38.08
39.90
41.25
41.85
41.52
40.36
38.65
36.75
34.95
33.34
31.79
30.01
27.70
24.78
21.38
17.92
14.94
12.95
12.22
12.69
14.07
15.94
17.91
19.68
21.10
22.02
22.38
22.17
21.62
21.19
21.57
23.46
27.29
33.01
40.05
47.54
54.53
60.44
65.14
69.02
72.74
76.95
81.93
87.46
92.81
96.92
98.66
97.06
91.50
81.99
69.27
54.85
40.81
29.33
22.17
20.16
23.17
30.41
41.02
54.34
69.89
86.97
104.27
119.84
131.49
137.47
136.90
129.79
116.72
98.45
75.65
49.11
19.87
-10.73
-41.25
-70.57
-98.09
-123.65
-147.08
-167.74
-184.43
-195.67
-200.55
-199.30
-193.52
-185.75
-178.53
-173.42
-170.43
-168.22
-164.85
-158.82
-149.78
-138.70
-127.32
-117.42
-110.43
-107.32
-108.94
-115.79
-127.04
-139.45
-146.94
-142.08
-119.60
-80.11
-31.46
13.93
44.75
56.22
52.09
41.64
33.89
32.54
34.82
34.63
27.25
12.59
-5.26
-21.33
-32.97
-41.18
-49.01
-58.88
-70.60
-81.54
-88.41
-89.07
-83.59
-73.97
-63.25
-54.33
-49.05
-48.00
-50.52
-54.75
-57.82
-56.35
-47.62
-30.96
-8.66
14.30
32.08
40.49
38.94
30.41
19.67
10.57
4.21
-0.99
-7.48
-16.42
-26.44
-34.52
-38.15
-37.34
-35.27
-36.84
-46.33
-65.14
-91.15
-119.75
-146.06
-166.57
-179.72
-185.21
-183.05
-173.09
-155.34
-130.48
-100.18
-66.56
-31.41
4.64
41.87
80.65
120.18
157.78
189.43
211.06
220.30
217.37
204.89
186.82
166.87
147.42
129.28
112.51
97.41
85.19
77.55
75.44
77.98
82.03
83.11
77.14
62.11
38.82
10.93
-16.53
-38.77
-52.63
-57.23
-53.44
-43.00
-27.60
-8.28
14.56
40.63
68.91
97.05
121.18
136.93
141.20
133.81
117.84
98.57
81.30
69.36
63.31
61.52
61.85
62.89
64.17
65.54
66.05
63.60
55.75
41.18
20.45
-3.81
-27.82
-48.01
-61.61
-67.00
-63.64
-51.97
-33.56
-10.95
12.68
33.75
48.87
55.44
52.41
40.43
21.78
-0.41
-23.11
-44.11
-61.96
-75.42
-83.10
-83.89
-77.78
-66.90
-55.41
-48.28
-49.27
-59.03
-74.60
-90.77
-102.50
-107.04
-104.58
-97.11
-86.92
-75.42
-63.03
-49.88
-36.62
-24.41
-14.59
-7.93
-4.34
-3.14
-3.54
-5.18
-8.44
-14.26
-23.61
-36.92
-53.64
-71.83
-88.39
-99.79
-103.11
-97.37
-84.00
-66.29
-48.12
-32.38
-19.96
-9.77
0.28
11.96
25.64
40.27
54.07
65.37
73.40
78.32
80.79
81.40
80.38
77.84
74.34
71.38
71.36
76.81
89.18
107.82
129.77
150.67
166.42
174.68
175.46
170.46
161.87
151.14
138.53
123.87
107.61
91.41
77.81
68.96
65.44
65.80
67.10
66.30
61.81
54.09
45.43
38.77
36.34
38.48
43.44
48.20
49.79
46.79
40.02
32.07
26.12
24.40
27.22
33.01
39.28
43.74
44.92
42.00
34.29
20.86
0.72
-26.40
-59.35
-95.26
-130.16
-160.02
-181.83
-194.34
-197.99
-194.28
-184.71
-169.98
-149.63
-122.68
-88.64
-48.70
-5.94
35.10
69.92
95.60
111.56
119.21
120.89
118.60
113.45
105.97
96.80
87.28
79.24
74.49
74.18
78.51
86.92
98.56
112.45
127.55
142.77
156.91
168.93
178.19
184.66
188.87
191.58
193.40
194.70
195.95
197.83
201.17
206.37
212.75
218.39
220.68
217.57
208.44
194.87
180.05
167.67
160.35
158.40
159.61
159.94
155.04
141.51
118.20
86.24
48.59
8.80
-30.47
-67.93
-103.74
-138.81
-174.51
-211.28
-247.70
-279.98
-302.70
-310.25
-298.80
-268.43
-223.46
-172.66
-125.88
-90.97
-71.57
-66.77
-72.68
-83.92
-96.49
-107.97
-119.37
-132.70
-149.10
-167.42
-184.49
-196.86
-201.78
-200.20
-195.17
-192.78
-198.10
-212.90
-234.87
-259.52
-283.04
-303.06
-320.78
-322.21
-295.90
-237.64
-154.73
-61.41
29.37
103.42
162.20
206.65
236.40
248.68
241.91
217.61
180.01
135.06
87.83
42.16
-1.86
-45.35
-91.55
-143.37
-202.14
-266.05
-329.73
-385.32
-423.43
-437.61
-425.44
-390.90
-342.54
-290.53
-243.00
-203.91
-173.32
-148.63
-127.90
-110.21
-96.12
-86.25
-80.15
-75.87
-70.80
-62.93
-51.40
-37.20
-22.16
-8.07
4.23
15.09
25.93
38.57
54.46
74.42
98.39
125.90
156.43
189.23
223.05
256.03
285.73
309.73
326.21
334.34
334.30
327.06
313.92
296.15
275.01
251.66
227.36
203.30
180.47
159.58
141.19
125.80
113.83
105.37
99.75
95.39
90.32
83.09
73.63
63.54
55.24
50.67
49.94
50.98
50.57
45.71
34.83
18.12
-3.08
-27.09
-52.18
-76.49
-97.77
-113.66
-122.37
-123.76
-119.55
-112.82
-106.75
-103.20
-102.10
-101.84
-100.22
-95.76
-88.36
-79.21
-69.84
-61.47
-54.46
-48.53
-43.44
-39.18
-35.96
-33.68
-31.56
-28.36
-23.13
-15.91
-7.79
-0.23
6.02
11.43
17.34
24.90
34.00
42.93
49.23
50.89
47.46
40.23
31.51
23.67
18.21
15.49
14.87
15.28
15.72
15.52
14.54
13.11
11.81
11.39
12.51
15.57
20.69
27.60
35.72
44.15
51.82
57.53
60.14
58.78
53.29
44.44
33.81
23.51
15.47
10.96
10.22
12.49
16.32
20.09
22.48
22.72
20.70
16.78
11.49
5.31
-1.47
-8.75
-16.39
-24.22
-31.85
-38.82
-44.76
-49.47
-52.93
-55.40
-57.28
-59.00
-60.81
-62.72
-64.37
-65.09
-64.14
-60.88
-55.06
-46.84
-36.65
-25.01
-12.39
0.83
14.22
27.16
38.83
48.38
55.30
59.76
62.67
65.35
68.83
73.08
76.77
77.57
73.25
62.87
47.47
29.88
13.61
1.49
-5.36
-7.68
-7.29
-6.05
-5.05
-4.39
-3.67
-2.53
-1.07
0.16
0.37
-1.04
-4.25
-8.83
-13.97
-18.56
-21.52
-22.03
-19.69
-14.63
-7.38
1.37
10.97
20.80
30.28
38.70
45.30
49.45
50.87
49.73
46.54
42.02
36.76
31.28
25.95
21.10
17.05
13.99
11.87
10.34
8.84
6.82
4.08
0.83
-2.49
-5.40
-7.63
-9.28
-10.58
-11.75
-12.80
-13.52
-13.75
-13.60
-13.46
-13.92
-15.44
-17.97
-21.00
-23.64
-25.07
-24.84
-23.06
-20.23
-17.01
-13.93
-11.18
-8.71
-6.31
-3.83
-1.27
1.21
3.35
4.94
5.89
6.27
6.22
5.92
5.50
5.09
4.84
4.95
5.70
7.23
9.55
12.32
14.93
16.73
17.16
16.08
13.77
10.80
7.86
5.45
3.72
2.46
1.35
0.02
-1.66
-3.55
-5.29
-6.34
-6.16
-4.34
-0.79
4.32
10.48
17.09
23.57
29.53
34.78
39.31
43.13
46.10
48.08
48.91
48.63
47.43
45.66
43.75
42.05
40.79
40.01
39.50
38.96
38.12
36.87
35.32
33.57
31.50
28.63
24.17
17.48
8.48
-2.07
-12.83
-22.33
-29.69
-34.82
-38.44
-41.55
-44.94
-48.91
-53.19
-57.18
-60.19
-61.64
-61.18
-58.87
-55.09
-50.70
-46.82
-44.65
-45.11
-48.49
-54.26
-61.13
-67.22
-70.65
-70.01
-64.79
-55.39
-42.94
-28.84
-14.41
-0.66
11.72
22.21
30.46
36.20
39.46
40.61
40.28
39.14
37.60
35.62
32.70
28.25
21.86
13.61
4.10
-5.79
-15.20
-23.59
-30.77
-36.80
-41.80
-45.92
-49.31
-52.25
-55.02
-57.80
-60.40
-62.25
-62.53
-60.58
-56.25
-50.00
-42.69
-35.20
-28.05
-21.34
-14.91
-8.70
-2.97
1.78
5.10
6.87
7.52
7.87
8.80
10.90
14.18
18.19
22.19
25.51
27.71
28.66
28.48
27.44
25.82
23.86
21.74
19.50
17.18
14.75
12.27
9.83
7.48
5.20
2.89
0.35
-2.51
-5.64
-8.88
-11.91
-14.53
-16.61
-18.11
-18.94
-19.03
-18.21
-16.43
-13.86
-10.74
-7.39
-4.01
-0.57
3.09
7.04
11.27
15.55
19.53
22.95
25.66
27.71
29.28
30.62
31.92
33.32
34.81
36.22
37.19
37.33
36.32
34.05
30.73
26.73
22.52
18.45
14.74
11.50
8.72
6.34
4.22
2.15
-0.07
-2.56
-5.29
-8.13
-10.95
-13.76
-16.66
-19.74
-22.88
-25.72
-27.71
-28.38
-27.48
-25.06
-21.49
-17.16
-12.50
-7.80
-3.31
0.79
4.42
7.56
10.33
12.99
15.85
19.20
23.12
27.50
31.96
36.00
39.19
41.29
42.30
42.48
42.13
41.50
40.67
39.61
38.19
36.26
33.75
30.55
26.70
22.28
17.60
13.03
8.93
5.51
2.69
0.15
-2.59
-5.87
-9.77
-14.01
-18.01
-21.13
-22.87
-23.11
-22.03
-20.07
-17.70
-15.19
-12.59
-9.81
-6.76
-3.44
-0.06
3.08
5.75
7.84
9.38
10.56
11.50
12.30
12.94
13.38
13.55
13.42
13.01
12.40
11.67
10.91
10.15
9.36
8.39
7.08
5.34
3.18
0.76
-1.72
-4.07
-6.23
-8.30
-10.47
-12.94
-15.81
-19.07
-22.52
-25.87
-28.74
-30.67
-31.36
-30.66
-28.72
-25.83
-22.32
-18.36
-13.98
-9.14
-3.97
1.14
5.61
8.88
10.61
10.94
10.35
9.51
8.94
8.87
9.15
9.43
9.30
8.46
6.83
4.46
1.62
-1.42
-4.37
-7.11
-9.65
-12.16
-14.92
-18.08
-21.68
-25.45
-28.97
-31.84
-33.79
-34.84
-35.23
-35.36
-35.53
-36.02
-36.87
-38.03
-39.26
-40.25
-40.65
-40.16
-38.78
-36.62
-34.06
-31.43
-28.94
-26.61
-24.30
-21.85
-19.10
-15.99
-12.49
-8.67
-4.60
-0.44
3.61
7.36
10.58
13.19
15.05
16.14
16.45
16.06
15.17
14.03
12.88
11.75
10.43
8.49
5.58
1.61
-3.06
-7.73
-11.69
-14.55
-16.40
-17.72
-19.06
-20.71
-22.60
-24.48
-26.05
-27.25
-28.20
-29.07
-29.87
-30.46
-30.56
-29.96
-28.60
-26.47
-23.67
-20.23
-16.24
-11.84
-7.28
-2.89
1.04
4.28
6.81
8.70
10.11
11.23
12.23
13.25
14.40
15.72
17.16
18.63
20.07
21.51
23.09
24.93
27.02
29.17
31.03
32.17
32.30
31.29
29.25
26.43
23.11
19.49
15.65
11.56
7.11
2.16
-3.35
-9.42
-15.82
-22.19
-28.06
-32.87
-36.14
-37.57
-37.02
-34.58
-30.58
-25.46
-19.77
-13.96
-8.35
-3.09
1.77
6.20
10.20
13.71
16.72
19.30
21.56
23.62
25.49
27.07
28.22
28.84
28.97
28.78
28.46
28.06
27.55
26.73
25.37
23.38
20.82
17.86
14.75
11.67
8.64
5.65
2.59
-0.58
-3.87
-7.27
-10.79
-14.45
-18.26
-22.10
-25.62
-28.32
-29.64
-29.19
-26.86
-22.90
-17.78
-12.02
-6.05
-0.16
5.51
10.84
15.77
20.20
24.08
27.38
30.20
32.57
34.59
36.28
37.68
38.79
39.62
40.20
40.50
40.53
40.22
39.52
38.39
36.89
35.02
32.84
30.29
27.33
23.95
20.25
16.45
12.85
9.65
6.86
4.27
1.51
-1.71
-5.56
-9.91
-14.37
-18.40
-21.45
-23.03
-22.86
-20.91
-17.48
-13.05
-8.22
-3.44
0.96
4.91
8.38
11.35
13.70
15.26
15.98
15.97
15.58
15.14
14.94
15.04
15.28
15.39
15.16
14.47
13.36
11.99
10.49
8.95
7.40
5.75
3.91
1.78
-0.64
-3.29
-6.03
-8.68
-11.15
-13.43
-15.60
-17.83
-20.30
-23.15
-26.40
-29.88
-33.21
-35.90
-37.42
-37.45
-35.83
-32.71
-28.46
-23.45
-18.09
-12.66
-7.35
-2.31
2.19
5.93
8.73
10.51
11.44
11.77
11.82
11.84
11.95
12.09
12.07
11.75
11.02
10.00
8.91
8.03
7.55
7.48
7.52
7.30
6.42
4.74
2.43
-0.10
-2.44
-4.32
-5.81
-7.26
-9.04
-11.45
-14.63
-18.43
-22.61
-26.78
-30.49
-33.32
-34.91
-35.05
-33.75
-31.23
-27.78
-23.77
-19.55
-15.36
-11.45
-8.01
-5.21
-3.15
-1.84
-1.19
-1.06
-1.30
-1.72
-2.17
-2.46
-2.47
-2.09
-1.34
-0.27
1.00
2.34
3.70
5.01
6.19
7.08
7.50
7.29
6.36
4.74
2.58
0.02
-2.86
-5.99
-9.42
-13.16
-17.20
-21.51
-26.06
-30.73
-35.25
-39.23
-42.20
-43.76
-43.73
-42.24
-39.60
-36.17
-32.18
-27.73
-22.89
-17.76
-12.60
-7.73
-3.40
0.31
3.46
6.15
8.43
10.29
11.74
12.85
13.84
14.95
16.31
17.84
19.29
20.42
21.09
21.40
21.47
21.43
21.24
20.76
19.84
18.51
16.93
15.28
13.63
11.90
9.81
7.11
3.64
-0.58
-5.41
-10.66
-16.08
-21.34
-26.13
-30.06
-32.85
-34.38
-34.69
-33.94
-32.28
-29.84
-26.65
-22.80
-18.42
-13.72
-8.85
-4.00
0.76
5.28
9.43
13.04
15.99
18.33
20.24
21.96
23.62
25.25
26.69
27.75
28.31
28.40
28.18
27.85
27.51
27.17
26.69
25.87
24.55
22.69
20.33
17.60
14.57
11.25
7.58
3.54
-0.79
-5.24
-9.60
-13.75
-17.73
-21.66
-25.54
-29.21
-32.28
-34.25
-34.71
-33.48
-30.72
-26.75
-22.02
-16.90
-11.61
-6.32
-1.10
3.99
8.83
13.26
17.16
20.45
23.18
25.46
27.45
29.27
30.90
32.23
33.07
33.35
33.09
32.48
31.76
31.06
30.37
29.51
28.30
26.61
24.49
22.13
19.73
17.45
15.29
13.19
11.06
8.79
6.35
3.68
0.75
-2.49
-6.03
-9.79
-13.60
-17.22
-20.32
-22.53
-23.43
-22.75
-20.35
-16.42
-11.43
-5.95
-0.57
4.35
8.70
12.58
16.09
19.25
21.96
24.01
25.28
25.77
25.61
25.04
24.30
23.58
23.00
22.62
22.42
22.33
22.25
22.10
21.82
21.33
20.53
19.35
17.73
15.68
13.33
10.87
8.47
6.19
3.97
1.68
-0.83
-3.61
-6.63
-9.85
-13.24
-16.79
-20.44
-23.98
-27.04
-29.19
-29.99
-29.25
-26.94
-23.32
-18.80
-13.84
-8.85
-4.10
0.21
3.96
7.07
9.47
11.10
11.90
11.95
11.38
10.39
9.21
8.04
7.00
6.16
5.48
4.87
4.22
3.46
2.59
1.64
0.65
-0.43
-1.69
-3.31
-5.39
-7.82
-10.35
-12.59
-14.24
-15.23
-15.79
-16.32
-17.31
-19.10
-21.76
-25.17
-28.92
-32.54
-35.48
-37.27
-37.51
-36.02
-32.85
-28.33
-22.98
-17.31
-11.76
-6.54
-1.66
2.93
7.28
11.28
14.74
17.43
19.27
20.36
20.89
21.14
21.30
21.43
21.48
21.33
20.86
20.05
18.99
17.86
16.82
15.93
15.14
14.19
12.84
10.87
8.26
5.11
1.65
-1.87
-5.24
-8.34
-11.15
-13.68
-16.08
-18.53
-21.23
-24.24
-27.38
-30.25
-32.34
-33.20
-32.60
-30.65
-27.62
-23.87
-19.68
-15.18
-10.42
-5.45
-0.45
4.32
8.54
11.99
14.53
16.11
16.81
16.79
16.27
15.50
14.76
14.24
14.08
14.26
14.61
14.97
15.11
14.89
14.26
13.23
11.90
10.40
8.80
7.10
5.27
3.22
0.90
-1.73
-4.69
-7.98
-11.55
-15.29
-19.05
-22.68
-26.05
-29.16
-32.05
-34.78
-37.23
-39.15
-40.15
-39.92
-38.38
-35.72
-32.33
-28.64
-24.98
-21.46
-18.07
-14.71
-11.32
-7.98
-4.82
-2.04
0.25
2.03
3.41
4.62
5.91
7.45
9.21
11.00
12.43
13.18
13.07
12.19
10.81
9.27
7.74
6.20
4.47
2.34
-0.27
-3.23
-6.28
-9.17
-11.78
-14.12
-16.35
-18.57
-20.87
-23.22
-25.60
-27.95
-30.29
-32.66
-35.03
-37.34
-39.36
-40.83
-41.36
-40.63
-38.45
-34.73
-29.61
-23.42
-16.59
-9.56
-2.79
3.45
8.92
13.52
17.22
20.06
22.12
23.51
24.37
24.82
24.98
24.94
24.77
24.54
24.25
23.87
23.29
22.45
21.27
19.84
18.24
16.60
14.96
13.24
11.29
8.98
6.31
3.35
0.26
-2.81
-5.76
-8.52
-11.04
-13.27
-15.28
-17.20
-19.24
-21.67
-24.50
-27.51
-30.14
-31.75
-31.82
-30.17
-27.01
-22.76
-17.89
-12.63
-7.07
-1.22
4.83
10.86
16.50
21.45
25.52
28.69
31.17
33.21
35.03
36.80
38.54
40.18
41.60
42.65
43.28
43.51
43.45
43.19
42.78
42.22
41.43
40.27
38.60
36.33
33.43
29.92
25.97
21.83
17.74
13.87
10.24
6.74
3.20
-0.58
-4.73
-9.29
-14.12
-19.01
-23.55
-27.23
-29.58
-30.25
-29.13
-26.39
-22.36
-17.47
-12.12
-6.58
-1.03
4.38
9.50
14.15
18.15
21.39
23.83
25.54
26.64
27.23
27.32
26.86
25.88
24.47
22.92
21.56
20.67
20.33
20.38
20.52
20.44
19.89
18.76
17.07
14.91
12.41
9.67
6.80
3.84
0.77
-2.49
-6.05
-9.95
-14.15
-18.49
-22.67
-26.31
-29.01
-30.39
-30.21
-28.43
-25.27
-21.14
-16.49
-11.69
-6.97
-2.40
1.98
6.06
9.59
12.27
13.90
14.52
14.46
14.21
14.20
14.61
15.30
15.87
15.98
15.42
14.35
13.09
11.92
10.97
10.08
8.98
7.41
5.36
2.96
0.42
-2.13
-4.74
-7.55
-10.70
-14.20
-17.87
-21.48
-24.91
-28.13
-31.31
-34.57
-37.89
-41.01
-43.43
-44.61
-44.13
-41.87
-37.98
-32.83
-26.91
-20.71
-14.63
-8.96
-3.84
0.69
4.64
8.02
10.84
13.06
14.72
15.92
16.88
17.81
18.81
19.80
20.52
20.71
20.21
19.09
17.60
16.03
14.58
13.27
11.92
10.32
8.29
5.73
2.71
-0.62
-4.09
-7.53
-10.82
-13.88
-16.72
-19.38
-21.99
-24.73
-27.75
-31.11
-34.69
-38.15
-41.01
-42.77
-43.02
-41.61
-38.68
-34.58
-29.82
-24.88
-20.14
-15.78
-11.75
-7.94
-4.27
-0.80
2.24
4.55
5.98
6.60
6.75
6.89
7.38
8.34
9.60
10.87
11.90
12.61
13.11
13.54
13.95
14.16
13.88
12.88
11.07
8.59
5.72
2.72
-0.29
-3.30
-6.41
-9.64
-13.00
-16.46
-20.01
-23.67
-27.47
-31.33
-35.08
-38.39
-40.89
-42.23
-42.22
-40.85
-38.26
-34.68
-30.36
-25.46
-20.13
-14.50
-8.73
-3.00
2.49
7.57
12.14
16.13
19.56
22.39
24.59
26.08
26.83
26.86
26.22
25.03
23.41
21.54
19.57
17.63
15.80
14.12
12.60
11.28
10.16
9.16
8.09
6.70
4.72
2.06
-1.19
-4.77
-8.38
-11.81
-15.12
-18.44
-21.96
-25.70
-29.53
-33.13
-36.13
-38.13
-38.80
-37.90
-35.28
-30.99
-25.23
-18.38
-10.94
-3.40
3.85
10.59
16.73
22.24
27.12
31.31
34.75
37.36
39.12
40.07
40.28
39.84
38.84
37.42
35.72
33.96
32.31
30.87
29.61
28.39
27.04
25.39
23.35
20.85
17.90
14.52
10.79
6.87
2.98
-0.68
-3.98
-6.95
-9.67
-12.30
-14.93
-17.55
-20.08
-22.39
-24.32
-25.69
-26.31
-25.91
-24.30
-21.36
-17.19
-12.06
-6.39
-0.54
5.27
10.95
16.58
22.10
27.36
32.00
35.66
38.12
39.45
40.07
40.51
41.20
42.27
43.55
44.65
45.22
45.14
44.47
43.45
42.26
40.95
39.39
37.33
34.58
31.06
26.89
22.27
17.47
12.65
7.93
3.29
-1.26
-5.70
-10.01
-14.13
-18.09
-21.88
-25.50
-28.78
-31.43
-33.03
-33.24
-31.89
-29.02
-24.91
-19.88
-14.31
-8.48
-2.69
2.76
7.54
11.38
14.14
15.90
16.93
17.55
18.11
18.81
19.68
20.57
21.26
21.49
21.08
19.98
18.29
16.20
13.95
11.71
9.55
7.44
5.31
3.10
0.83
-1.39
-3.48
-5.36
-7.05
-8.61
-10.18
-11.85
-13.73
-15.86
-18.26
-20.91
-23.68
-26.30
-28.31
-29.15
-28.27
-25.35
-20.41
-13.80
-6.12
1.96
9.80
16.79
22.41
26.30
28.32
28.69
27.93
26.66
25.34
24.06
22.48
20.13
16.72
12.35
7.52
2.81
-1.41
-5.09
-8.45
-11.67
-14.69
-17.23
-19.02
-19.98
-20.39
-20.81
-21.73
-23.38
-25.65
-28.23
-30.79
-33.20
-35.60
-38.20
-41.21
-44.66
-48.42
-52.12
-55.36
-57.69
-58.68
-58.03
-55.64
-51.63
-46.32
-40.21
-33.78
-27.40
-21.30
-15.53
-10.08
-5.00
-0.40
3.52
6.55
8.63
9.92
10.71
11.40
12.30
13.55
15.07
16.60
17.85
18.61
18.76
18.32
17.36
15.94
14.12
11.99
9.61
7.10
4.52
1.94
-0.71
-3.47
-6.42
-9.52
-12.68
-15.75
-18.64
-21.42
-24.28
-27.46
-31.05
-34.83
-38.28
-40.67
-41.36
-39.99
-36.65
-31.78
-25.98
-19.74
-13.41
-7.10
-0.85
5.22
10.91
15.92
20.02
23.12
25.26
26.65
27.49
27.97
28.21
28.25
28.10
27.80
27.39
26.88
26.27
25.49
24.46
23.12
21.49
19.67
17.76
15.85
13.97
12.03
9.92
7.53
4.80
1.71
-1.67
-5.28
-8.99
-12.73
-16.48
-20.25
-24.02
-27.68
-30.99
-33.51
-34.80
-34.54
-32.61
-29.17
-24.57
-19.26
-13.60
-7.86
-2.17
3.36
8.63
13.53
17.95
21.82
25.11
27.85
30.08
31.82
33.05
33.78
34.06
33.99
33.70
33.29
32.83
32.30
31.66
30.86
29.88
28.72
27.38
25.87
24.25
22.57
20.85
19.12
17.33
15.45
13.39
11.04
8.27
4.98
1.08
-3.39
-8.27
-13.21
-17.69
-21.17
-23.27
-23.78
-22.76
-20.43
-17.09
-13.02
-8.48
-3.70
1.08
5.61
9.64
13.02
15.69
17.63
18.92
19.63
19.89
19.86
19.77
19.82
20.12
20.71
21.50
22.37
23.25
24.12
25.00
25.90
26.74
27.29
27.27
26.35
24.38
21.38
17.59
13.39
9.22
5.42
2.13
-0.69
-3.24
-5.82
-8.69
-11.98
-15.55
-19.08
-22.02
-23.85
-24.24
-23.22
-21.12
-18.48
-15.77
-13.21
-10.75
-8.13
-5.15
-1.83
1.46
4.19
5.86
6.24
5.49
4.08
2.57
1.37
0.61
0.12
-0.35
-1.06
-2.13
-3.53
-5.15
-6.85
-8.50
-9.94
-11.07
-11.75
-12.04
-12.06
-12.05
-12.26
-12.80
-13.62
-14.49
-15.19
-15.60
-15.85
-16.25
-17.25
-19.12
-21.81
-24.86
-27.51
-29.00
-28.85
-26.96
-23.66
-19.42
-14.72
-9.93
-5.30
-1.05
2.60
5.43
7.37
8.41
8.78
8.68
8.34
7.88
7.38
6.88
6.35
5.73
4.89
3.78
2.42
0.97
-0.38
-1.45
-2.26
-2.99
-3.89
-5.19
-6.92
-8.95
-11.02
-12.93
-14.65
-16.31
-18.12
-20.21
-22.58
-25.11
-27.64
-30.12
-32.53
-34.92
-37.22
-39.17
-40.31
-40.18
-38.55
-35.40
-30.93
-25.48
-19.30
-12.63
-5.71
1.14
7.41
12.60
16.31
18.51
19.47
19.75
19.98
20.55
21.62
23.01
24.39
25.44
25.91
25.73
25.01
23.94
22.70
21.41
20.12
18.81
17.39
15.79
13.88
11.56
8.72
5.30
1.34
-3.02
-7.56
-12.06
-16.34
-20.34
-24.17
-27.98
-31.95
-36.07
-40.05
-43.43
-45.58
-46.01
-44.47
-41.07
-36.17
-30.24
-23.72
-16.89
-9.95
-3.02
3.75
10.14
15.90
20.79
24.65
27.46
29.34
30.51
31.31
31.97
32.66
33.38
34.03
34.55
34.89
35.06
35.06
34.83
34.21
33.04
31.23
28.79
25.86
22.66
19.36
16.09
12.85
9.62
6.39
3.25
0.34
-2.24
-4.54
-6.84
-9.44
-12.59
-16.15
-19.68
-22.49
-23.92
-23.66
-21.77
-18.59
-14.56
-10.12
-5.50
-0.85
3.73
8.20
12.51
16.57
20.24
23.35
25.75
27.48
28.72
29.78
30.86
31.89
32.63
32.76
32.20
31.16
30.08
29.34
28.99
28.75
28.12
26.71
24.41
21.43
18.13
14.81
11.63
8.49
5.32
2.05
-1.31
-4.66
-7.95
-11.20
-14.50
-17.85
-21.13
-24.02
-26.09
-26.92
-26.27
-24.19
-20.92
-16.87
-12.44
-7.91
-3.44
0.90
5.10
9.10
12.74
15.76
17.91
19.04
19.24
18.76
17.92
16.98
16.03
15.00
13.78
12.37
10.88
9.50
8.35
7.42
6.51
5.43
4.06
2.38
0.50
-1.44
-3.36
-5.26
-7.17
-9.13
-11.26
-13.67
-16.51
-19.88
-23.78
-28.01
-32.17
-35.66
-37.88
-38.40
-37.08
-34.05
-29.72
-24.62
-19.24
-13.98
-9.10
-4.67
-0.68
2.88
5.98
8.52
10.34
11.39
11.72
11.56
11.21
10.92
10.82
10.88
10.95
10.92
10.74
10.43
10.02
9.50
8.81
7.88
6.62
4.95
2.86
0.32
-2.63
-5.88
-9.26
-12.54
-15.47
-17.90
-19.82
-21.35
-22.77
-24.43
-26.61
-29.41
-32.68
-36.05
-38.99
-40.93
-41.46
-40.39
-37.78
-33.97
-29.37
-24.35
-19.19
-14.03
-8.92
-3.94
0.79
5.09
8.75
11.64
13.71
15.03
15.73
15.95
15.81
15.35
14.60
13.61
12.47
11.32
10.31
9.50
8.84
8.18
7.28
5.97
4.12
1.78
-0.93
-3.82
-6.75
-9.64
-12.49
-15.36
-18.29
-21.33
-24.49
-27.80
-31.27
-34.87
-38.40
-41.54
-43.86
-44.90
-44.36
-42.22
-38.67
-34.10
-28.90
-23.41
-17.79
-12.10
-6.38
-0.74
4.63
9.47
13.55
16.73
19.06
20.77
22.11
23.31
24.42
25.32
25.84
25.89
25.57
25.14
24.94
25.15
25.79
26.62
27.30
27.49
26.91
25.38
22.80
19.16
14.51
8.94
2.61
-4.28
-11.49
-18.71
-25.56
-31.71
-36.89
-41.01
-44.07
-46.14
-47.24
-47.25
-45.99
-43.30
-39.20
-33.91
-27.84
-21.41
-14.99
-8.80
-3.00
2.30
6.99
10.93
13.99
16.16
17.54
18.42
19.16
20.10
21.40
23.03
24.72
26.12
27.00
27.29
27.15
26.78
26.38
25.98
25.48
24.71
23.51
21.76
19.42
16.49
13.03
9.22
5.26
1.43
-2.07
-5.17
-7.98
-10.69
-13.57
-16.72
-20.02
-23.20
-25.77
-27.33
-27.54
-26.30
-23.71
-19.93
-15.25
-9.90
-4.08
2.04
8.28
14.46
20.41
25.95
30.93
35.18
38.62
41.27
43.25
44.73
45.92
46.92
47.69
48.11
48.10
47.69
47.00
46.30
45.77
45.47
45.29
44.91
44.10
42.64
40.52
37.89
34.96
31.93
28.95
26.00
22.96
19.68
15.98
11.77
7.07
1.94
-3.47
-8.97
-14.27
-18.96
-22.60
-24.76
-25.25
-24.16
-21.86
-18.86
-15.58
-12.24
-8.88
-5.40
-1.81
1.74
4.93
7.46
9.15
10.10
10.53
10.66
10.65
10.57
10.38
10.13
9.95
10.00
10.34
10.88
11.40
11.62
11.31
10.38
8.87
6.89
4.60
2.09
-0.57
-3.35
-6.31
-9.50
-12.96
-16.65
-20.40
-24.03
-27.40
-30.46
-33.25
-35.82
-38.08
-39.77
-40.46
-39.80
-37.63
-34.02
-29.22
-23.62
-17.53
-11.22
-4.93
1.07
6.44
10.85
14.06
16.04
16.95
17.08
16.80
16.38
15.99
15.68
15.44
15.19
14.87
14.46
13.96
13.41
12.85
12.24
11.47
10.32
8.60
6.17
3.10
-0.38
-3.99
-7.46
-10.61
-13.37
-15.69
-17.57
-19.12
-20.50
-22.05
-24.03
-26.53
-29.28
-31.69
-33.13
-33.10
-31.46
-28.42
-24.39
-19.79
-14.94
-10.03
-5.14
-0.41
3.99
7.85
10.98
13.31
14.86
15.81
16.37
16.82
17.33
17.94
18.55
19.04
19.30
19.37
19.33
19.26
19.13
18.75
17.82
16.11
13.53
10.14
6.16
1.85
-2.61
-7.15
-11.77
-16.43
-21.01
-25.30
-29.06
-32.23
-34.89
-37.33
-39.84
-42.55
-45.32
-47.69
-49.08
-49.00
-47.28
-44.10
-39.89
-35.06
-29.89
-24.46
-18.82
-13.01
-7.28
-1.97
2.56
6.09
8.63
10.42
11.75
12.86
13.85
14.67
15.21
15.37
15.17
14.74
14.26
13.88
13.68
13.58
13.40
12.95
12.07
10.66
8.70
6.21
3.25
-0.13
-3.89
-7.88
-11.97
-15.97
-19.70
-23.08
-26.21
-29.26
-32.50
-36.11
-40.02
-43.89
-47.08
-48.92
-48.88
-46.79
-42.85
-37.57
-31.50
-25.16
-18.92
-13.04
-7.67
-2.91
1.21
4.74
7.80
10.51
12.92
15.02
16.82
18.32
19.59
20.72
21.82
22.87
23.71
24.14
23.91
22.89
21.13
18.79
16.14
13.51
11.07
8.89
6.96
5.23
3.70
2.37
1.17
-0.08
-1.63
-3.76
-6.54
-9.87
-13.47
-17.07
-20.48
-23.68
-26.69
-29.42
-31.58
-32.71
-32.35
-30.21
-26.34
-21.03
-14.74
-7.98
-1.20
5.21
10.96
15.82
19.62
22.37
24.22
25.42
26.32
27.24
28.38
29.78
31.28
32.60
33.44
33.60
33.05
31.95
30.55
29.06
27.58
26.00
24.14
21.92
19.33
16.52
13.69
11.00
8.53
6.23
3.95
1.50
-1.30
-4.55
-8.32
-12.53
-17.08
-21.82
-26.52
-30.93
-34.76
-37.62
-39.17
-39.10
-37.27
-33.75
-28.85
-23.02
-16.77
-10.54
-4.62
0.86
5.92
10.57
14.82
18.59
21.81
24.40
26.40
27.93
29.17
30.31
31.41
32.43
33.26
33.75
33.82
33.44
32.65
31.48
29.93
28.02
25.80
23.39
20.94
18.63
16.51
14.56
12.65
10.67
8.57
6.39
4.22
2.13
0.15
-1.81
-3.92
-6.38
-9.36
-12.87
-16.71
-20.34
-23.09
-24.25
-23.40
-20.55
-16.05
-10.60
-4.83
0.78
6.02
10.80
15.06
18.56
21.06
22.39
22.64
22.22
21.70
21.61
22.22
23.49
25.13
26.74
27.99
28.71
28.92
28.78
28.42
27.95
27.39
26.64
25.58
24.09
22.08
19.59
16.75
13.67
10.50
7.34
4.27
1.35
-1.38
-3.96
-6.45
-9.02
-11.83
-14.96
-18.22
-21.24
-23.42
-24.22
-23.31
-20.74
-16.83
-12.15
-7.22
-2.43
2.04
6.19
10.02
13.41
16.13
17.91
18.57
18.15
16.95
15.41
13.91
12.76
11.96
11.37
10.79
10.12
9.33
8.51
7.65
6.71
5.48
3.77
1.47
-1.39
-4.64
-8.05
-11.42
-14.72
-17.98
-21.29
-24.63
-27.88
-30.89
-33.55
-35.87
-38.04
-40.25
-42.53
-44.69
-46.28
-46.77
-45.76
-43.17
-39.27
-34.56
-29.55
-24.54
-19.64
-14.86
-10.26
-6.04
-2.56
-0.09
1.27
1.71
1.67
1.60
1.77
2.28
3.01
3.74
4.32
4.67
4.79
4.73
4.51
4.10
3.43
2.50
1.33
0.02
-1.25
-2.40
-3.37
-4.22
-5.09
-6.07
-7.23
-8.57
-10.06
-11.71
-13.63
-15.95
-18.81
-22.21
-25.93
-29.60
-32.70
-34.75
-35.41
-34.62
-32.51
-29.35
-25.39
-20.78
-15.59
-9.87
-3.73
2.52
8.46
13.63
17.68
20.48
22.17
23.07
23.57
24.00
24.58
25.37
26.36
27.45
28.42
29.01
28.94
27.93
25.83
22.67
18.65
14.13
9.54
5.19
1.27
-2.22
-5.46
-8.62
-11.84
-15.13
-18.40
-21.53
-24.43
-27.09
-29.60
-32.12
-34.72
-37.41
-40.02
-42.21
-43.60
-43.78
-42.49
-39.69
-35.58
-30.50
-24.91
-19.18
-13.52
-8.04
-2.68
2.56
7.69
12.56
16.93
20.51
23.12
24.76
25.61
26.04
26.38
26.87
27.54
28.24
28.82
29.14
29.21
29.07
28.77
28.24
27.36
26.03
24.18
21.85
19.12
16.08
12.77
9.28
5.67
2.01
-1.59
-5.08
-8.48
-11.84
-15.25
-18.72
-22.18
-25.43
-28.12
-29.89
-30.38
-29.39
-26.91
-23.12
-18.31
-12.82
-6.91
-0.78
5.37
11.30
16.74
21.37
24.94
27.34
28.60
28.90
28.54
27.88
27.30
27.15
27.65
28.82
30.50
32.41
34.20
35.61
36.43
36.54
35.88
34.37
31.99
28.74
24.76
20.25
15.47
10.74
6.33
2.51
-0.55
-2.79
-4.42
-5.78
-7.29
-9.25
-11.73
-14.52
-17.21
-19.37
-20.62
-20.80
-19.87
-17.94
-15.19
-11.86
-8.17
-4.33
-0.47
3.36
7.10
10.68
13.91
16.50
18.24
19.02
18.98
18.39
17.58
16.77
16.04
15.37
14.71
14.10
13.59
13.27
13.11
13.02
12.80
12.20
11.04
9.19
6.68
3.64
0.28
-3.12
-6.31
-9.19
-11.71
-13.96
-16.17
-18.53
-21.25
-24.40
-27.81
-31.06
-33.57
-34.75
-34.23
-31.98
-28.30
-23.64
-18.51
-13.22
-7.95
-2.82
2.02
6.35
9.96
12.70
14.56
15.66
16.21
16.49
16.68
16.90
17.16
17.42
17.58
17.55
17.24
16.59
15.55
14.14
12.43
10.49
8.43
6.32
4.19
2.00
-0.30
-2.79
-5.51
-8.44
-11.52
-14.68
-17.84
-20.95
-24.00
-27.01
-29.99
-32.92
-35.63
-37.81
-39.06
-38.98
-37.36
-34.21
-29.80
-24.54
-18.85
-13.08
-7.44
-2.13
2.73
7.05
10.74
13.72
15.92
17.33
17.93
17.79
17.05
15.96
14.74
13.50
12.21
10.74
8.98
6.96
4.84
2.79
0.95
-0.76
-2.54
-4.67
-7.29
-10.35
-13.67
-16.94
-19.93
-22.50
-24.64
-26.39
-27.85
-29.18
-30.54
-32.13
-34.07
-36.40
-39.02
-41.59
-43.63
-44.56
-43.93
-41.49
-37.36
-31.88
-25.57
-18.88
-12.14
-5.43
1.22
7.74
13.92
19.39
23.80
26.86
28.49
28.79
28.05
26.67
25.00
23.40
22.09
21.17
20.57
20.15
19.65
18.89
17.73
16.16
14.21
11.96
9.47
6.77
3.92
0.95
-2.07
-5.08
-7.98
-10.69
-13.18
-15.48
-17.65
-19.83
-22.16
-24.77
-27.68
-30.87
-34.13
-37.18
-39.61
-40.96
-40.83
-38.98
-35.41
-30.34
-24.23
-17.53
-10.66
-3.92
2.45
8.24
13.28
17.44
20.68
23.09
24.93
26.45
27.89
29.32
30.60
31.54
31.88
31.49
30.38
28.68
26.53
24.08
21.41
18.62
15.80
13.07
10.52
8.18
6.00
3.84
1.59
-0.81
-3.36
-5.96
-8.57
-11.22
-13.96
-16.89
-20.11
-23.66
-27.47
-31.33
-34.83
-37.40
-38.47
-37.60
-34.65
-29.90
-23.90
-17.36
-10.85
-4.72
0.94
6.17
11.02
15.55
19.85
24.03
28.22
32.39
36.32
39.63
41.90
42.92
42.72
41.63
40.04
38.22
36.26
34.10
31.69
29.10
26.53
24.18
22.16
20.43
18.85
17.24
15.48
13.56
11.53
9.46
7.32
4.99
2.30
-0.89
-4.56
-8.54
-12.50
-16.18
-19.34
-21.84
-23.61
-24.51
-24.37
-23.04
-20.53
-17.03
-12.87
-8.43
-4.03
0.24
4.32
8.25
12.01
15.54
18.81
21.81
24.52
26.97
29.11
30.78
31.83
32.10
31.57
30.36
28.73
27.04
25.61
24.66
24.21
24.06
23.92
23.45
22.41
20.69
18.38
15.67
12.81
9.93
7.14
4.34
1.34
-2.07
-6.04
-10.60
-15.51
-20.34
-24.55
-27.56
-28.97
-28.57
-26.37
-22.62
-17.69
-12.02
-6.13
-0.50
4.49
8.56
11.65
13.79
15.11
15.72
15.81
15.50
14.98
14.42
13.91
13.46
12.98
12.39
11.66
10.88
10.19
9.73
9.48
9.32
8.96
8.15
6.66
4.45
1.59
-1.72
-5.26
-8.80
-12.18
-15.33
-18.26
-21.07
-23.93
-27.03
-30.47
-34.18
-37.82
-40.90
-42.86
-43.28
-42.00
-39.19
-35.23
-30.63
-25.80
-21.06
-16.60
-12.57
-9.10
-6.22
-3.93
-2.17
-0.82
0.25
1.07
1.66
1.99
2.03
1.82
1.45
1.05
0.75
0.64
0.71
0.84
0.87
0.58
-0.14
-1.31
-2.84
-4.55
-6.30
-8.07
-9.87
-11.70
-13.53
-15.31
-17.04
-18.81
-20.82
-23.27
-26.21
-29.46
-32.58
-35.00
-36.21
-35.98
-34.40
-31.81
-28.71
-25.47
-22.29
-19.06
-15.50
-11.35
-6.51
-1.14
4.41
9.68
14.27
17.93
20.57
22.23
23.04
23.23
23.08
22.85
22.72
22.74
22.77
22.63
22.11
21.12
19.74
18.16
16.59
15.15
13.85
12.56
11.12
9.33
7.07
4.36
1.29
-1.96
-5.19
-8.26
-11.15
-13.95
-16.80
-19.82
-23.02
-26.26
-29.22
-31.58
-33.00
-33.28
-32.35
-30.29
-27.25
-23.42
-19.05
-14.30
-9.39
-4.45
0.40
5.05
9.42
13.44
17.03
20.09
22.54
24.38
25.66
26.54
27.17
27.68
28.06
28.22
28.05
27.52
26.75
25.93
25.22
24.62
23.88
22.66
20.67
17.87
14.46
10.79
7.18
3.75
0.47
-2.79
-6.12
-9.54
-13.03
-16.58
-20.21
-23.86
-27.26
-30.01
-31.59
-31.58
-29.85
-26.55
-22.05
-16.75
-10.96
-4.92
1.19
7.17
12.82
17.90
22.25
25.83
28.69
30.92
32.64
33.93
34.89
35.60
36.20
36.78
37.41
38.00
38.43
38.49
38.02
36.98
35.45
33.56
31.41
29.07
26.53
23.80
20.92
17.96
14.99
12.02
8.96
5.73
2.27
-1.42
-5.29
-9.27
-13.33
-17.48
-21.61
-25.48
-28.69
-30.74
-31.21
-29.91
-26.92
-22.62
-17.53
-12.08
-6.62
-1.37
3.55
7.96
11.68
14.54
16.50
17.69
18.43
19.11
20.06
21.41
23.06
24.68
25.92
26.41
26.02
24.82
22.97
20.69
18.15
15.34
12.23
8.80
5.11
1.31
-2.35
-5.71
-8.67
-11.21
-13.44
-15.45
-17.38
-19.37
-21.59
-24.15
-27.11
-30.29
-33.30
-35.62
-36.77
-36.44
-34.66
-31.67
-27.85
-23.61
-19.20
-14.80
-10.54
-6.49
-2.84
0.24
2.61
4.17
4.91
4.92
4.32
3.32
2.14
1.00
0.07
-0.54
-0.82
-0.86
-0.78
-0.75
