1532023011.00
64.000000
-0.00
-0.00
-0.00
-0.00
-0.00
-0.00
-0.00
-0.00
-0.00
-0.00
0.00
0.01
0.01
-0.00
-0.03
-0.05
-0.05
0.00
0.13
0.36
0.66
1.01
1.37
1.72
2.06
2.40
2.79
3.24
3.80
4.44
5.09
5.72
6.30
6.84
7.42
8.12
8.99
10.11
11.39
12.70
13.89
14.89
15.76
16.70
17.94
19.67
22.13
25.10
28.27
31.33
34.06
36.57
39.22
42.50
46.81
52.52
59.24
66.37
73.24
79.47
85.19
91.00
97.79
106.21
116.79
128.90
141.53
153.57
164.35
174.04
183.54
194.57
206.14
220.54
238.08
258.38
279.76
299.02
312.00
314.58
304.13
280.35
245.73
203.65
157.58
109.85
61.48
12.86
-35.37
-81.88
-125.06
-163.39
-197.04
-227.34
-256.37
-286.12
-317.56
-350.20
-381.91
-409.45
-429.02
-437.68
-433.96
-418.14
-392.52
-360.69
-326.65
-293.71
-263.89
-237.59
-214.16
-192.40
-171.31
-150.70
-131.15
-113.56
-98.52
-85.76
-74.14
-62.31
-49.50
-36.12
-23.66
-13.84
-7.53
-4.12
-1.75
1.76
7.67
15.63
23.82
29.93
32.45
31.49
28.73
26.54
26.72
29.63
33.97
37.56
38.54
36.38
32.21
28.23
26.44
27.64
30.86
33.92
34.72
32.37
27.81
23.23
20.85
21.58
24.47
27.28
27.84
25.35
20.91
16.80
15.14
16.54
19.76
22.42
22.50
19.58
15.06
11.36
10.42
12.48
15.99
18.50
18.15
14.80
10.10
6.48
5.76
8.09
11.90
14.90
15.37
13.16
9.67
6.99
6.66
8.78
11.97
14.22
14.05
11.32
7.35
4.14
3.23
4.83
7.72
9.94
9.95
7.55
3.99
1.22
0.77
2.75
5.80
7.90
7.53
4.66
0.76
-2.06
-2.22
0.31
3.97
6.49
6.18
2.92
-1.78
-5.69
-7.10
-5.83
-3.29
-1.59
-2.27
-5.29
-9.11
-11.63
-11.45
-8.82
-5.53
-3.83
-5.02
-8.64
-12.64
-14.59
-13.11
-8.71
-3.57
-0.32
-0.54
-3.90
-8.32
-11.22
-10.95
-7.69
-3.30
-0.25
-0.19
-2.98
-6.89
-9.56
-9.38
-6.38
-2.17
1.04
1.77
0.08
-2.49
-3.89
-2.85
0.40
4.21
6.51
6.12
3.40
0.15
-1.44
-0.11
3.75
8.25
11.11
10.94
8.02
4.20
1.77
2.16
5.19
9.18
12.00
12.36
10.56
8.28
7.47
9.22
12.95
16.83
18.77
17.71
14.19
10.15
7.76
8.20
11.02
14.45
16.42
15.88
13.36
10.62
9.62
11.24
14.71
17.99
18.93
16.57
11.68
6.46
3.20
3.08
5.55
8.61
10.14
9.07
6.00
2.80
1.47
2.91
6.35
9.81
11.17
9.45
5.36
0.88
-1.81
-1.60
0.97
4.09
5.78
5.07
2.56
-0.00
-0.82
0.80
3.98
6.76
7.26
4.89
0.74
-2.99
-4.24
-2.32
1.70
5.54
7.00
5.21
1.05
-3.28
-5.51
-4.57
-1.12
2.87
5.22
4.78
2.05
-1.18
-2.94
-2.25
0.32
3.03
4.11
2.83
-0.01
-2.57
-3.11
-1.08
2.49
5.57
6.40
4.48
0.95
-2.09
-2.81
-0.78
2.80
5.74
6.18
3.68
-0.48
-4.03
-4.99
-2.89
1.01
4.38
5.23
3.04
-0.93
-4.39
-5.36
-3.33
0.44
3.67
4.41
2.24
-1.55
-4.62
-5.08
-2.56
1.50
4.72
5.21
2.69
-1.32
-4.38
-4.63
-1.88
2.29
5.42
5.70
2.99
-1.09
-4.12
-4.36
-1.72
2.20
5.03
5.14
2.50
-1.24
-3.79
-3.59
-0.70
3.15
5.67
5.31
2.22
-1.79
-4.37
-4.01
-0.91
3.09
5.57
4.99
1.55
-2.85
-5.71
-5.39
-2.05
2.41
5.41
5.21
1.85
-2.77
-6.06
-6.15
-2.99
1.63
5.09
5.45
2.55
-1.96
-5.50
-6.14
-3.58
0.65
4.14
5.03
2.97
-0.64
-3.60
-4.19
-2.18
1.13
3.69
4.03
2.10
-0.72
-2.49
-1.92
0.78
4.01
5.78
4.88
1.70
-1.97
-3.95
-3.06
0.28
4.13
6.23
5.26
1.62
-2.80
-5.68
-5.63
-2.92
0.72
3.16
3.07
0.71
-2.35
-4.15
-3.56
-0.95
2.05
3.60
2.74
0.04
-2.69
-3.54
-1.66
2.20
5.99
7.56
5.90
1.75
-2.76
-5.33
-4.74
-1.51
2.40
4.75
4.23
1.18
-2.65
-5.15
-5.08
-2.76
0.17
1.80
1.15
-1.24
-3.57
-3.96
-1.64
2.49
6.27
7.58
5.56
1.20
-3.22
-5.38
-4.26
-0.66
3.31
5.43
4.62
1.48
-2.11
-4.16
-3.66
-1.17
1.61
2.93
2.02
-0.43
-2.66
-3.04
-1.01
2.44
5.33
5.85
3.49
-0.61
-4.25
-5.41
-3.45
0.57
4.41
5.97
4.42
0.65
-3.27
-5.28
-4.52
-1.77
1.06
2.17
0.93
-1.70
-3.81
-3.69
-0.98
3.08
6.31
6.89
4.45
0.26
-3.40
-4.62
-2.90
0.55
3.58
4.30
2.26
-1.40
-4.55
-5.36
-3.36
0.28
3.45
4.31
2.42
-1.02
-3.87
-4.33
-2.03
1.73
4.77
5.31
3.06
-0.61
-3.47
-3.75
-1.21
2.71
5.73
6.02
3.28
-1.13
-4.92
-6.20
-4.54
-1.13
1.92
2.86
1.31
-1.57
-3.80
-3.81
-1.40
2.08
4.59
4.59
2.01
-1.67
-4.26
-4.21
-1.46
2.43
5.22
5.24
2.39
-1.83
-5.16
-5.83
-3.64
0.06
3.14
3.93
2.22
-0.75
-3.05
-3.22
-1.20
1.66
3.50
3.10
0.67
-2.21
-3.57
-2.34
1.03
4.66
6.33
4.85
0.75
-3.95
-6.81
-6.38
-3.00
1.41
4.41
4.45
1.64
-2.35
-5.30
-5.68
-3.54
-0.37
1.89
2.02
0.24
-1.91
-2.59
-0.81
2.88
6.63
8.33
6.86
2.74
-2.06
-5.23
-5.41
-2.92
0.47
2.58
2.16
-0.40
-3.37
-4.65
-3.13
0.62
4.64
6.70
5.62
1.96
-2.29
-4.88
-4.57
-1.85
1.41
3.16
2.37
-0.33
-3.05
-3.82
-1.81
2.10
5.82
7.21
5.39
1.22
-3.09
-5.35
-4.56
-1.49
1.81
3.25
1.99
-1.11
-3.99
-4.65
-2.37
1.81
5.66
7.04
5.13
0.91
-3.38
-5.56
-4.73
-1.73
1.40
2.68
1.35
-1.63
-4.26
-4.67
-2.34
1.58
4.92
5.75
3.52
-0.59
-4.37
-5.85
-4.41
-1.13
1.93
2.98
1.52
-1.34
-3.57
-3.47
-0.67
3.55
6.96
7.66
5.15
0.64
-3.57
-5.43
-4.21
-0.92
2.35
3.66
2.35
-0.64
-3.34
-4.00
-2.13
1.18
3.91
4.33
2.11
-1.47
-4.20
-4.32
-1.54
2.67
5.91
6.19
3.08
-1.98
-6.50
-8.28
-6.63
-2.68
1.35
3.39
2.75
0.34
-1.94
-2.44
-0.76
2.05
4.17
4.21
2.06
-0.95
-2.88
-2.41
0.38
3.94
6.13
5.53
2.27
-1.98
-4.93
-4.98
-2.19
1.76
4.53
4.46
1.56
-2.48
-5.28
-5.19
-2.22
1.87
4.69
4.56
1.53
-2.62
-5.46
-5.32
-2.27
1.91
4.76
4.63
1.61
-2.49
-5.24
-5.04
-2.04
1.95
4.49
4.02
0.75
-3.45
-6.16
-5.82
-2.70
1.31
3.78
3.26
0.12
-3.67
-5.68
-4.53
-0.74
3.57
5.93
5.01
1.39
-2.73
-4.93
-3.99
-0.59
3.13
4.89
3.66
0.28
-3.12
-4.43
-2.83
0.74
4.17
5.46
3.92
0.52
-2.67
-3.78
-2.13
1.34
4.64
5.89
4.39
0.96
-2.52
-4.16
-3.18
-0.27
2.75
4.03
2.73
-0.49
-3.84
-5.41
-4.30
-1.14
2.30
4.08
3.26
0.40
-2.79
-4.43
-3.58
-0.78
2.26
3.74
2.76
-0.07
-3.08
-4.42
-3.28
-0.27
2.90
4.43
3.51
0.80
-2.00
-3.11
-1.81
1.16
4.04
5.10
3.69
0.63
-2.27
-3.27
-1.78
1.35
4.28
5.28
3.76
0.61
-2.35
-3.36
-1.87
1.25
4.10
4.90
3.03
-0.64
-4.19
-5.77
-4.57
-1.30
2.22
4.13
3.56
1.06
-1.75
-3.17
-2.45
-0.22
1.92
2.40
0.69
-2.35
-4.92
-5.36
-3.19
0.53
3.76
4.67
2.71
-1.04
-4.41
-5.49
-3.64
0.05
3.43
4.59
2.93
-0.42
-3.33
-3.97
-1.84
1.83
4.86
5.41
3.11
-0.75
-3.91
-4.57
-2.40
1.22
4.03
4.26
1.65
-2.38
-5.54
-6.06
-3.66
0.24
3.39
3.98
1.73
-2.00
-4.98
-5.47
-3.16
0.62
3.68
4.28
2.11
-1.50
-4.42
-4.91
-2.69
0.97
3.97
4.61
2.63
-0.72
-3.39
-3.76
-1.62
1.73
4.30
4.61
2.62
-0.26
-2.07
-1.54
1.11
4.26
5.83
4.62
1.04
-3.04
-5.41
-4.77
-1.50
2.54
5.10
4.78
1.82
-2.12
-4.89
-5.10
-2.87
0.30
2.47
2.43
0.41
-2.06
-3.16
-1.89
1.23
4.39
5.56
3.76
-0.29
-4.49
-6.53
-5.26
-1.33
3.08
5.53
4.67
1.04
-3.35
-6.09
-5.77
-2.75
1.13
3.65
3.55
1.19
-1.65
-2.95
-1.68
1.53
4.77
5.99
4.26
0.41
-3.46
-5.18
-3.80
-0.15
3.62
5.31
3.92
0.19
-3.80
-5.89
-5.05
-1.93
1.53
3.31
2.44
-0.36
-3.21
-4.19
-2.48
1.07
4.42
5.61
3.91
0.27
-3.16
-4.33
-2.51
1.27
4.80
5.97
3.99
-0.11
-4.12
-5.91
-4.64
-1.25
2.15
3.59
2.36
-0.57
-3.19
-3.65
-1.48
2.17
5.17
5.66
3.20
-0.99
-4.69
-6.00
-4.39
-1.01
2.06
3.03
1.50
-1.36
-3.50
-3.26
-0.43
3.58
6.52
6.59
3.56
-1.08
-4.97
-6.17
-4.23
-0.48
2.86
3.94
2.33
-0.74
-3.20
-3.36
-0.99
2.60
5.27
5.39
2.78
-1.10
-4.06
-4.42
-2.00
1.73
4.56
4.82
2.39
-1.31
-4.08
-4.31
-1.89
1.70
4.28
4.24
1.47
-2.50
-5.49
-5.82
-3.37
0.41
3.35
3.82
1.71
-1.56
-3.89
-3.76
-1.19
2.30
4.53
4.01
0.87
-3.18
-5.86
-5.58
-2.47
1.76
4.76
4.91
2.26
-1.52
-4.16
-4.13
-1.50
2.08
4.42
4.07
1.17
-2.58
-5.03
-4.76
-1.99
1.61
3.90
3.56
0.91
-2.29
-3.89
-2.69
0.82
4.71
6.67
5.42
1.47
-3.13
-5.96
-5.56
-2.30
1.86
4.58
4.43
1.76
-1.62
-3.47
-2.59
0.53
3.98
5.55
4.07
0.14
-4.21
-6.70
-6.09
-2.88
1.00
3.37
3.06
0.56
-2.34
-3.61
-2.32
0.90
4.14
5.42
3.85
0.19
-3.55
-5.33
-4.20
-0.91
2.57
4.26
3.28
0.37
-2.54
-3.58
-1.97
1.43
4.63
5.69
3.83
-0.01
-3.77
-5.35
-3.89
-0.25
3.50
5.23
3.98
0.54
-3.08
-4.81
-3.74
-0.62
2.60
3.95
2.68
-0.34
-3.09
-3.67
-1.46
2.46
5.87
6.71
4.25
-0.45
-5.07
-7.40
-6.51
-3.26
0.30
2.15
1.48
-0.84
-2.89
-2.95
-0.60
2.94
5.51
5.38
2.32
-2.15
-5.59
-6.04
-3.17
1.51
5.43
6.48
4.10
-0.37
-4.53
-6.23
-4.82
-1.41
1.89
3.23
2.12
-0.36
-2.26
-2.01
0.54
4.07
6.45
6.10
2.90
-1.66
-5.30
-6.26
-4.26
-0.66
2.37
3.12
1.31
-1.76
-3.97
-3.73
-0.88
3.08
5.92
5.93
2.99
-1.34
-4.72
-5.33
-2.96
0.91
3.97
4.40
1.99
-1.86
-4.94
-5.54
-3.48
-0.17
2.34
2.55
0.47
-2.36
-3.94
-2.98
0.25
3.98
6.06
5.18
1.73
-2.40
-4.90
-4.37
-1.13
2.94
5.48
5.00
1.69
-2.68
-5.76
-5.93
-3.24
0.71
3.72
4.21
2.20
-0.86
-2.97
-2.80
-0.52
2.34
3.89
3.04
0.23
-2.75
-3.93
-2.30
1.49
5.44
7.31
5.96
1.97
-2.67
-5.64
-5.63
-2.99
0.52
2.81
2.70
0.59
-1.92
-2.99
-1.71
1.33
4.33
5.44
3.80
0.15
-3.58
-5.34
-4.16
-0.71
3.04
4.92
3.81
0.25
-3.84
-6.28
-5.85
-2.96
0.64
2.90
2.68
0.41
-2.28
-3.53
-2.38
0.58
3.64
5.01
3.89
1.02
-1.75
-2.59
-0.82
2.62
5.67
6.33
3.88
-0.62
-4.92
-6.74
-5.19
-1.21
2.91
4.88
3.69
0.20
-3.44
-5.09
-3.88
-0.72
2.30
3.27
1.59
-1.61
-4.18
-4.30
-1.55
2.71
6.16
6.83
4.24
-0.35
-4.60
-6.45
-5.21
-1.94
1.28
2.55
1.29
-1.43
-3.63
-3.58
-0.97
2.90
5.82
6.01
3.15
-1.32
-5.05
-6.14
-4.12
-0.29
3.13
4.31
2.83
-0.08
-2.39
-2.42
0.07
3.80
6.64
6.88
4.20
-0.11
-3.92
-5.42
-4.14
-1.20
1.43
2.07
0.36
-2.53
-4.65
-4.44
-1.73
2.06
4.78
4.82
2.11
-1.80
-4.59
-4.59
-1.72
2.42
5.51
5.81
3.17
-0.88
-4.09
-4.78
-2.79
0.44
2.81
2.81
0.44
-2.77
-4.74
-4.03
-0.78
3.31
5.97
5.64
2.40
-2.05
-5.34
-5.82
-3.39
0.35
3.15
3.40
1.08
-2.25
-4.45
-4.02
-1.13
2.57
4.89
4.46
1.52
-2.15
-4.38
-3.86
-0.92
2.66
4.69
3.93
0.82
-2.80
-4.74
-3.73
-0.24
3.84
6.24
5.64
2.39
-1.65
-4.24
-4.06
-1.41
1.98
3.98
3.39
0.58
-2.69
-4.40
-3.44
-0.35
3.00
4.53
3.18
-0.38
-4.17
-5.97
-4.67
-0.92
3.23
5.47
4.58
1.08
-3.03
-5.49
-5.02
-2.10
1.40
3.35
2.64
-0.16
-3.15
-4.30
-2.64
1.06
4.79
6.44
5.03
1.30
-2.71
-4.90
-4.26
-1.42
1.74
3.29
2.38
-0.22
-2.65
-3.08
-0.85
3.02
6.43
7.39
5.18
0.83
-3.46
-5.60
-4.72
-1.71
1.39
2.60
1.22
-1.80
-4.46
-4.90
-2.57
1.42
4.91
5.97
4.01
0.13
-3.48
-4.87
-3.43
-0.23
2.64
3.35
1.47
-1.80
-4.32
-4.32
-1.53
2.66
5.94
6.41
3.67
-0.89
-4.88
-6.33
-4.70
-1.18
2.04
3.14
1.68
-1.13
-3.24
-3.01
-0.24
3.63
6.32
6.10
2.76
-2.14
-6.13
-7.22
-5.02
-0.95
2.64
3.81
2.20
-0.84
-3.07
-2.77
0.21
4.28
7.08
6.83
3.43
-1.43
-5.29
-6.29
-4.15
-0.38
2.76
3.55
1.78
-1.17
-3.22
-2.89
-0.19
3.32
5.48
4.80
1.40
-3.02
-6.12
-6.29
-3.53
0.49
3.47
3.82
1.55
-1.75
-3.90
-3.47
-0.62
2.94
4.99
4.17
0.79
-3.29
-5.75
-5.13
-1.72
2.61
5.50
5.40
2.46
-1.60
-4.49
-4.68
-2.28
1.10
3.35
3.14
0.70
-2.27
-3.75
-2.55
0.87
4.62
6.51
5.29
1.45
-3.06
-5.89
-5.66
-2.69
1.21
3.80
3.74
1.26
-1.97
-3.90
-3.34
-0.63
2.53
4.20
3.33
0.46
-2.59
-3.83
-2.29
1.32
5.02
6.66
5.17
1.21
-3.26
-6.01
-5.86
-3.25
0.06
2.07
1.76
-0.38
-2.66
-3.30
-1.49
1.99
5.26
6.34
4.41
0.29
-3.95
-6.15
-5.29
-2.07
1.54
3.48
2.78
0.16
-2.52
-3.30
-1.47
2.06
5.23
6.03
3.76
-0.53
-4.58
-6.28
-4.77
-1.05
2.69
4.32
3.01
-0.32
-3.57
-4.67
-2.88
0.87
4.41
5.69
3.97
0.23
-3.37
-4.78
-3.21
0.36
3.83
5.20
3.76
0.47
-2.61
-3.59
-1.91
1.41
4.30
4.94
2.80
-0.99
-4.35
-5.47
-3.82
-0.51
2.45
3.30
1.64
-1.39
-3.77
-3.83
-1.27
2.63
5.72
6.25
3.88
-0.11
-3.54
-4.62
-2.91
0.39
3.20
3.77
1.69
-1.86
-4.83
-5.55
-3.69
-0.49
2.01
2.25
0.09
-3.02
-4.93
-4.12
-0.65
3.77
6.79
6.75
3.70
-0.62
-3.78
-4.06
-1.39
2.58
5.52
5.70
2.96
-1.21
-4.55
-5.36
-3.41
-0.08
2.52
2.78
0.55
-2.75
-5.04
-4.83
-2.12
1.51
3.90
3.58
0.68
-3.08
-5.48
-5.08
-2.09
1.75
4.18
3.82
0.97
-2.59
-4.67
-3.94
-0.76
3.05
5.29
4.69
1.62
-2.09
-4.28
-3.74
-0.91
2.36
3.99
2.90
-0.31
-3.71
-5.20
-3.82
-0.30
3.32
4.92
3.59
0.13
-3.37
-4.79
-3.23
0.42
4.04
5.49
3.87
0.09
-3.67
-5.22
-3.65
0.17
4.06
5.85
4.60
1.19
-2.24
-3.56
-1.96
1.62
5.01
6.09
4.11
0.08
-3.74
-5.23
-3.56
0.26
3.98
5.43
3.75
-0.06
-3.74
-5.15
-3.46
0.30
3.88
5.10
3.23
-0.65
-4.20
-5.29
-3.25
0.76
4.42
5.65
3.85
0.19
-3.05
-3.96
-2.04
1.46
4.34
4.77
2.42
-1.38
-4.38
-4.79
-2.30
1.67
4.86
5.44
3.08
-0.85
-4.07
-4.78
-2.66
0.95
3.86
4.32
2.05
-1.63
-4.57
-5.06
-2.86
0.67
3.40
3.64
1.18
-2.58
-5.46
-5.71
-3.14
0.82
3.93
4.44
2.10
-1.66
-4.63
-5.05
-2.70
1.01
3.93
4.39
2.22
-1.19
-3.77
-3.91
-1.54
1.92
4.38
4.33
1.74
-1.92
-4.52
-4.54
-1.93
1.81
4.51
4.63
2.08
-1.69
-4.56
-4.94
-2.69
0.85
3.64
4.11
2.10
-1.09
-3.53
-3.71
-1.53
1.70
4.00
3.88
1.26
-2.50
-5.35
-5.70
-3.41
0.21
3.09
3.69
1.79
-1.34
-3.76
-3.98
-1.88
1.22
3.40
3.27
0.85
-2.42
-4.55
-4.12
-1.21
2.64
5.32
5.34
2.74
-0.95
-3.61
-3.73
-1.34
2.07
4.42
4.28
1.75
-1.66
-3.89
-3.56
-0.82
2.77
5.13
4.93
2.36
-0.98
-3.05
-2.59
0.08
3.30
5.05
4.17
1.09
-2.44
-4.38
-3.62
-0.63
2.77
4.52
3.56
0.41
-3.06
-4.79
-3.68
-0.30
3.45
5.45
4.58
1.39
-2.26
-4.25
-3.46
-0.41
3.06
4.88
3.97
0.83
-2.74
-4.74
-4.10
-1.37
1.67
3.10
1.97
-1.03
-4.06
-5.19
-3.62
-0.20
3.07
4.21
2.50
-1.10
-4.49
-5.65
-3.88
-0.20
3.26
4.52
2.89
-0.62
-3.96
-5.19
-3.70
-0.47
2.50
3.44
1.82
-1.26
-3.84
-4.24
-2.15
1.17
3.65
3.70
1.20
-2.35
-4.77
-4.43
-1.33
2.91
5.96
6.16
3.45
-0.55
-3.57
-3.91
-1.49
2.18
4.92
5.13
2.70
-0.98
-3.80
-4.30
-2.42
0.45
2.34
1.96
-0.52
-3.50
-4.94
-3.60
0.14
4.45
7.04
6.50
3.15
-1.15
-4.01
-3.86
-0.86
3.25
6.15
6.20
3.40
-0.73
-3.97
-4.70
-2.79
0.35
2.67
2.66
0.24
-3.18
-5.56
-5.49
-3.03
0.27
2.36
1.93
-0.74
-3.94
-5.55
-4.37
-0.86
3.09
5.25
4.47
1.31
-2.21
-3.88
-2.49
1.33
5.54
7.83
6.93
3.33
-1.03
-3.83
-3.75
-1.16
2.14
4.00
3.17
0.11
-3.38
-5.20
-4.25
-1.10
2.36
4.04
2.95
-0.19
-3.38
-4.55
-2.80
1.02
4.80
6.39
4.85
0.98
-3.12
-5.34
-4.69
-1.91
1.07
2.30
1.00
-2.00
-4.73
-5.30
-3.08
0.88
4.48
5.75
4.04
0.44
-2.88
-3.94
-2.04
1.73
5.22
6.38
4.47
0.46
-3.55
-5.52
-4.62
-1.69
1.34
2.57
1.30
-1.60
-4.21
-4.81
-2.91
0.42
3.18
3.69
1.66
-1.63
-4.08
-4.06
-1.36
2.61
5.65
6.04
3.57
-0.39
-3.68
-4.54
-2.62
0.83
3.77
4.49
2.62
-0.72
-3.58
-4.35
-2.69
0.28
2.68
2.99
1.00
-2.08
-4.30
-4.22
-1.68
2.00
4.83
5.27
3.17
-0.18
-2.80
-3.13
-1.01
2.31
4.81
4.96
2.57
-1.06
-3.89
-4.31
-2.11
1.39
4.07
4.27
1.76
-2.08
-5.09
-5.53
-3.23
0.37
3.07
3.22
0.84
-2.52
-4.63
-4.04
-1.00
2.70
4.81
4.07
0.95
-2.64
-4.47
-3.42
-0.06
3.68
5.69
4.86
1.74
-1.86
-3.95
-3.41
-0.71
2.46
4.14
3.25
0.18
-3.35
-5.38
-4.76
-1.93
1.35
3.06
2.11
-0.89
-4.04
-5.27
-3.64
0.06
3.76
5.34
3.93
0.41
-3.11
-4.55
-3.09
0.40
3.88
5.38
4.09
0.81
-2.50
-3.91
-2.59
0.68
4.00
5.36
3.88
0.28
-3.46
-5.27
-4.15
-0.86
2.59
4.08
2.68
-0.74
-4.08
-5.20
-3.30
0.59
4.19
5.35
3.37
-0.61
-4.25
-5.42
-3.48
0.36
3.80
4.83
2.94
-0.58
-3.48
-3.90
-1.52
2.23
5.11
5.38
2.87
-0.91
-3.71
-3.89
-1.39
2.21
4.66
4.43
1.58
-2.23
-4.70
-4.28
-1.08
3.17
6.07
5.92
2.71
-1.89
-5.47
-6.20
-3.92
-0.13
2.85
3.27
0.94
-2.65
-5.28
-5.28
-2.57
1.27
4.00
4.03
1.38
-2.29
-4.71
-4.39
-1.50
2.22
4.47
3.84
0.66
-3.21
-5.47
-4.76
-1.45
2.57
5.02
4.60
1.72
-1.75
-3.62
-2.66
0.66
4.46
6.53
5.67
2.36
-1.50
-3.70
-2.98
0.21
3.98
6.08
5.21
1.75
-2.41
-5.00
-4.66
-1.72
2.02
4.29
3.74
0.68
-3.09
-5.34
-4.78
-1.78
1.83
3.83
2.95
-0.35
-4.12
-6.15
-5.21
-1.87
1.87
3.77
2.70
-0.67
-4.25
-5.82
-4.32
-0.51
3.53
5.62
4.79
1.79
-1.36
-2.65
-1.21
2.11
5.33
6.48
4.76
1.01
-2.79
-4.67
-3.73
-0.74
2.43
3.85
2.64
-0.48
-3.62
-4.85
-3.34
0.16
3.67
5.17
3.74
0.14
-3.60
-5.39
-4.26
-0.96
2.49
4.01
2.70
-0.61
-3.90
-5.12
-3.51
-0.01
3.27
4.32
2.50
-1.12
-4.33
-5.16
-3.05
0.79
4.12
5.03
3.05
-0.56
-3.61
-4.28
-2.21
1.27
4.01
4.34
2.05
-1.46
-4.04
-4.08
-1.51
2.17
4.78
4.75
2.04
-1.82
-4.63
-4.80
-2.30
1.32
3.90
3.88
1.27
-2.38
-4.90
-4.79
-2.10
1.61
4.19
4.16
1.59
-1.97
-4.42
-4.32
-1.75
1.75
4.12
3.96
1.34
-2.22
-4.65
-4.50
-1.83
1.84
4.40
4.33
1.61
-2.26
-5.12
-5.35
-2.84
0.97
3.88
4.25
1.96
-1.56
-4.13
-4.16
-1.57
2.11
4.71
4.73
2.23
-1.20
-3.41
-3.01
-0.21
3.31
5.40
4.80
1.88
-1.57
-3.40
-2.42
0.84
4.50
6.35
5.24
1.71
-2.32
-4.70
-4.23
-1.40
1.94
3.68
2.68
-0.58
-4.29
-6.38
-5.69
-2.62
1.13
3.52
3.38
1.04
-1.91
-3.52
-2.72
0.09
3.22
4.77
3.74
0.68
-2.57
-4.04
-2.73
0.63
4.09
5.56
4.03
0.23
-3.78
-5.83
-4.81
-1.38
2.48
4.56
3.73
0.55
-3.07
-4.99
-4.16
-1.15
2.18
3.80
2.83
0.03
-2.63
-3.22
-1.06
2.77
6.11
6.97
4.72
0.47
-3.52
-5.18
-3.77
-0.26
3.20
4.60
3.13
-0.35
-3.81
-5.33
-4.15
-1.10
1.87
2.94
1.50
-1.43
-3.86
-4.00
-1.49
2.39
5.42
5.79
3.16
-1.06
-4.54
-5.40
-3.26
0.55
3.77
4.52
2.36
-1.50
-4.91
-6.04
-4.38
-1.00
2.09
3.14
1.67
-1.30
-3.84
-4.28
-2.22
1.19
3.96
4.40
2.21
-1.35
-4.17
-4.52
-2.12
1.70
4.74
5.30
3.13
-0.37
-3.04
-3.24
-0.82
2.78
5.39
5.44
2.90
-0.72
-3.23
-3.16
-0.56
2.96
5.21
4.75
1.72
-2.21
-4.81
-4.62
-1.78
2.01
4.54
4.28
1.30
-2.78
-5.78
-6.11
-3.73
-0.11
2.61
2.89
0.62
-2.78
-5.20
-5.07
-2.30
1.64
4.53
4.75
2.19
-1.64
-4.48
-4.63
-1.98
1.93
4.84
5.10
2.70
-0.80
-3.17
-2.91
-0.14
3.45
5.67
5.15
2.21
-1.35
-3.31
-2.45
0.75
4.33
6.06
4.75
1.03
-3.05
-5.24
-4.43
-1.26
2.26
3.93
2.70
-0.75
-4.46
-6.30
-5.26
-1.97
1.66
3.58
2.73
-0.33
-3.78
-5.58
-4.63
-1.42
2.26
4.34
3.65
0.63
-2.91
-4.87
-4.02
-0.83
2.87
4.87
3.98
0.71
-3.02
-5.00
-4.01
-0.60
3.25
5.31
4.42
1.16
-2.47
-4.29
-3.18
0.21
3.84
5.54
4.25
0.71
-3.02
-4.77
-3.51
-0.02
3.60
5.20
3.83
0.33
-3.19
-4.61
-3.09
0.48
3.96
5.24
3.54
-0.17
-3.72
-5.02
-3.27
0.56
4.30
5.84
4.37
0.81
-2.75
-4.26
-2.93
0.36
3.55
4.69
3.09
-0.33
-3.48
-4.49
-2.71
0.79
3.92
4.77
2.74
-1.07
-4.53
-5.71
-4.01
-0.52
2.65
3.64
1.92
-1.40
-4.23
-4.79
-2.69
0.86
3.74
4.21
2.00
-1.56
-4.30
-4.53
-2.07
1.61
4.30
4.34
1.70
-2.03
-4.60
-4.39
-1.50
2.42
5.07
4.90
2.04
-1.79
-4.33
-4.11
-1.31
2.33
4.64
4.21
1.33
-2.28
-4.45
-3.85
-0.83
2.85
4.98
4.27
1.05
-2.86
-5.25
-4.77
-1.79
1.91
4.11
3.47
0.31
-3.62
-6.11
-5.76
-2.77
1.14
3.79
3.74
1.10
-2.54
-5.06
-4.98
-2.32
1.38
4.04
4.19
1.88
-1.41
-3.57
-3.20
-0.41
3.23
5.61
5.39
2.79
-0.56
-2.54
-1.91
0.94
4.21
5.80
4.53
0.91
-3.18
-5.59
-5.13
-2.28
1.12
2.98
2.19
-0.68
-3.73
-4.92
-3.25
0.53
4.43
6.31
5.19
1.77
-1.99
-3.99
-3.26
-0.50
2.41
3.50
1.92
-1.49
-4.73
-5.78
-3.80
0.33
4.48
6.47
5.30
1.71
-2.25
-4.45
-3.88
-1.20
1.72
2.94
1.67
-1.30
-4.04
-4.75
-2.75
1.00
4.49
5.79
4.20
0.57
-3.10
-4.86
-3.91
-0.99
2.06
3.41
2.32
-0.41
-2.98
-3.69
-1.96
1.28
4.14
4.91
3.06
-0.39
-3.45
-4.34
-2.50
1.01
4.12
4.97
2.98
-0.79
-4.22
-5.41
-3.75
-0.25
3.06
4.30
2.93
-0.02
-2.55
-2.91
-0.70
2.86
5.62
5.84
3.18
-1.08
-4.76
-6.05
-4.52
-1.29
1.62
2.54
1.08
-1.63
-3.65
-3.44
-0.81
2.90
5.58
5.64
2.93
-1.09
-4.25
-4.86
-2.73
0.72
3.34
3.49
1.03
-2.56
-5.13
-5.06
-2.31
1.64
4.60
4.97
2.67
-0.87
-3.49
-3.66
-1.28
2.15
4.51
4.25
1.36
-2.61
-5.48
-5.63
-3.04
0.78
3.64
3.97
1.76
-1.43
-3.46
-2.87
0.14
3.83
5.95
5.10
1.57
-2.80
-5.67
-5.58
-2.73
1.15
3.79
3.74
1.19
-2.19
-4.26
-3.70
-0.80
2.74
4.82
4.23
1.38
-1.95
-3.69
-2.70
0.49
3.99
5.67
4.43
0.78
-3.38
-5.90
-5.56
-2.77
0.76
2.96
2.69
0.31
-2.51
-3.81
-2.59
0.62
4.01
5.61
4.48
1.27
-2.12
-3.70
-2.58
0.46
3.50
4.59
2.96
-0.51
-3.86
-5.19
-3.83
-0.67
2.35
3.40
1.83
-1.44
-4.51
-5.58
-4.01
-0.66
2.57
3.86
2.55
-0.56
-3.60
-4.74
-3.23
0.11
3.41
4.77
3.41
0.14
-3.14
-4.46
-2.99
0.47
3.97
5.54
4.29
1.01
-2.38
-3.90
-2.63
0.67
4.08
5.63
4.47
1.33
-1.88
-3.24
-1.93
1.23
4.30
5.37
3.67
0.12
-3.29
-4.64
-3.23
-0.02
2.98
3.88
2.08
-1.41
-4.53
-5.42
-3.54
0.02
3.13
3.90
1.79
-2.05
-5.41
-6.39
-4.42
-0.69
2.65
3.73
2.10
-1.01
-3.52
-3.79
-1.61
1.61
3.80
3.52
0.91
-2.40
-4.27
-3.36
-0.00
3.96
6.29
5.65
2.43
-1.50
-3.90
-3.41
-0.40
3.32
5.56
4.98
1.90
-2.00
-4.56
-4.46
-1.88
1.62
3.99
3.90
1.47
-1.83
-4.00
-3.71
-1.06
2.47
4.86
4.72
2.12
-1.44
-3.91
-3.91
-1.52
1.71
3.69
3.09
0.11
-3.56
-5.76
-5.10
-1.82
2.31
5.06
4.99
2.28
-1.45
-4.06
-4.17
-1.97
1.02
2.82
2.25
-0.43
-3.66
-5.56
-4.97
-2.16
1.35
3.67
3.63
1.46
-1.35
-2.94
-2.16
0.67
3.97
5.77
4.92
1.84
-1.67
-3.48
-2.35
1.21
5.17
7.22
6.06
2.30
-1.95
-4.26
-3.31
0.30
4.38
6.50
5.40
1.74
-2.34
-4.49
-3.64
-0.58
2.51
3.45
1.39
-2.59
-6.16
-7.16
-4.92
-0.65
3.26
4.72
3.11
-0.32
-3.30
-3.92
-1.74
1.91
4.76
4.94
2.07
-2.46
-6.28
-7.43
-5.40
-1.45
2.13
3.36
1.71
-1.63
-4.43
-4.78
-2.22
1.94
5.38
6.12
3.73
-0.50
-4.25
-5.57
-3.99
-0.75
2.05
2.69
0.92
-1.92
-3.75
-3.05
0.17
4.29
6.98
6.60
3.19
-1.57
-5.23
-6.00
-3.75
-0.02
2.91
3.38
1.31
-1.81
-3.86
-3.37
-0.43
3.35
5.73
5.16
1.75
-2.81
-6.13
-6.49
-3.80
0.37
3.69
4.48
2.58
-0.58
-2.92
-3.02
-0.97
1.70
3.00
1.76
-1.54
-5.04
-6.53
-4.81
-0.46
4.43
7.36
6.87
3.30
-1.40
-4.76
-5.23
-2.97
0.34
2.55
2.39
0.18
-2.41
-3.41
-1.81
1.79
5.46
7.06
5.51
1.44
-3.14
-5.96
-5.74
-2.92
0.71
3.04
2.92
0.77
-1.73
-2.73
-1.34
1.78
4.76
5.69
3.71
-0.38
-4.60
-6.80
-5.93
-2.58
1.35
3.76
3.54
1.19
-1.51
-2.63
-1.24
2.00
5.18
6.30
4.45
0.43
-3.74
-5.94
-5.17
-2.12
1.26
2.97
2.09
-0.62
-3.26
-3.97
-2.04
1.62
4.93
5.91
3.84
-0.30
-4.32
-6.12
-4.83
-1.33
2.29
4.03
3.06
0.21
-2.56
-3.43
-1.75
1.48
4.26
4.73
2.37
-1.69
-5.25
-6.32
-4.29
-0.33
3.34
4.66
2.99
-0.54
-3.69
-4.46
-2.28
1.66
5.08
6.01
3.91
0.00
-3.48
-4.62
-2.88
0.57
3.59
4.37
2.49
-0.83
-3.43
-3.57
-0.98
2.93
5.92
6.18
3.48
-0.75
-4.23
-5.15
-3.14
0.45
3.43
4.01
1.87
-1.70
-4.58
-5.08
-2.95
0.48
3.15
3.45
1.24
-2.08
-4.38
-4.08
-1.14
2.87
5.63
5.47
2.32
-2.21
-5.74
-6.49
-4.27
-0.53
2.52
3.22
1.42
-1.45
-3.33
-2.77
0.17
3.89
6.20
5.65
2.37
-1.98
-5.13
-5.49
-3.06
0.62
3.38
3.73
1.70
-1.17
-2.80
-1.89
1.24
4.79
6.57
5.29
1.37
-3.24
-6.19
-6.04
-3.08
0.81
3.30
2.92
-0.06
-3.80
-6.04
-5.40
-2.20
1.68
3.97
3.34
0.25
-3.30
-4.93
-3.35
0.81
5.33
7.65
6.39
2.10
-3.00
-6.28
-6.15
-2.89
1.57
4.76
5.10
2.69
-0.79
-3.10
-2.74
0.36
4.99
9.54
13.10
15.87
18.77
22.45
26.33
28.44
26.37
18.70
6.22
-8.06
-20.02
-26.28
-25.74
-19.99
-12.41
-6.44
-3.98
-4.72
-6.68
-7.66
-6.61
-4.10
-1.89
-1.67
-4.01
-7.99
-11.79
-13.87
-13.90
-12.98
-12.96
-15.17
-19.46
-24.07
-26.49
-24.74
-18.55
-9.51
-0.36
6.41
9.68
10.13
9.63
10.04
12.10
15.05
17.13
16.75
13.40
8.05
2.59
-1.07
-2.05
-0.82
1.17
2.35
1.95
0.36
-1.13
-1.23
0.52
3.38
5.81
6.28
4.28
0.57
-3.15
-5.22
-4.95
-3.01
-1.00
-0.47
-1.99
-4.81
-7.37
-8.33
-7.39
-5.57
-4.49
-5.43
-8.44
-12.32
-15.35
-16.32
-15.37
-13.85
-13.57
-15.54
-19.35
-23.26
-25.30
-24.49
-21.55
-18.62
-18.02
-20.80
-25.94
-30.69
-31.89
-27.59
-18.10
-5.73
6.46
16.24
23.14
28.26
33.21
38.76
44.24
47.82
47.76
43.57
36.78
30.51
28.21
32.01
41.58
54.26
66.00
72.97
72.90
65.29
51.04
31.65
9.01
-14.43
-35.70
-52.33
-63.71
-71.98
-81.17
-94.66
-112.45
-129.61
-137.95
-129.52
-100.72
-54.63
-0.40
50.13
86.75
104.09
102.54
86.83
63.61
38.97
17.07
-0.25
-13.04
-22.14
-28.34
-31.93
-32.71
-30.33
-24.63
-15.77
-4.56
7.80
19.71
29.39
35.56
37.76
36.57
33.04
28.08
21.96
14.50
5.85
-2.86
-9.56
-12.14
-9.75
-3.62
3.36
7.97
8.37
4.98
0.16
-3.16
-3.11
0.15
4.59
7.64
7.57
4.50
0.16
-3.11
-3.73
-1.72
1.49
3.97
4.49
3.20
1.42
0.71
1.81
4.18
6.23
6.40
4.12
0.27
-3.28
-4.68
-3.24
0.15
3.55
5.10
4.06
1.31
-1.20
-1.64
0.55
4.33
7.57
8.37
6.12
1.88
-2.20
-4.13
-3.19
-0.29
2.65
3.82
2.61
-0.07
-2.34
-2.54
-0.24
3.44
6.48
7.10
4.83
0.79
-2.95
-4.50
-3.23
-0.09
2.95
4.10
2.75
-0.15
-2.65
-3.03
-0.79
3.01
6.31
7.27
5.33
1.53
-2.10
-3.70
-2.69
0.02
2.53
3.19
1.58
-1.28
-3.51
-3.56
-1.12
2.61
5.61
6.19
3.95
0.01
-3.58
-5.05
-3.86
-0.99
1.69
2.53
1.13
-1.46
-3.38
-3.11
-0.48
3.22
5.88
5.90
3.08
-1.17
-4.65
-5.58
-3.65
-0.15
2.82
3.57
1.84
-1.06
-3.08
-2.68
0.24
4.22
7.04
7.09
4.21
-0.17
-3.85
-5.15
-3.79
-1.02
1.24
1.53
-0.24
-2.76
-4.18
-3.24
-0.08
3.76
6.22
5.92
2.93
-1.20
-4.34
-4.91
-2.83
0.53
3.13
3.47
1.45
-1.56
-3.56
-3.12
-0.26
3.49
5.97
5.66
2.58
-1.64
-4.74
-5.10
-2.73
0.83
3.42
3.61
1.45
-1.60
-3.62
-3.42
-1.24
1.46
2.89
2.07
-0.56
-3.34
-4.40
-2.72
1.14
5.27
7.39
6.19
2.12
-2.75
-5.85
-5.56
-2.16
2.33
5.34
5.23
2.21
-1.85
-4.61
-4.64
-2.21
1.00
2.94
2.51
0.11
-2.66
-4.02
-3.08
-0.37
2.50
3.86
2.89
0.18
-2.64
-3.83
-2.54
0.63
3.93
5.42
4.16
0.75
-2.87
-4.56
-3.19
0.58
4.69
6.78
5.60
1.74
-2.69
-5.30
-4.79
-1.65
2.14
4.40
3.97
1.34
-1.75
-3.43
-2.79
-0.41
2.07
3.04
1.83
-0.87
-3.48
-4.45
-3.20
-0.45
2.22
3.24
2.03
-0.72
-3.41
-4.43
-3.13
-0.23
2.59
3.60
2.13
-1.08
-4.18
-5.29
-3.60
0.07
3.74
5.39
4.14
0.76
-2.76
-4.38
-3.21
-0.05
3.13
4.41
3.02
-0.16
-3.16
-4.14
-2.46
0.93
4.11
5.31
3.96
0.98
-1.81
-2.83
-1.61
0.90
3.01
3.28
1.45
-1.48
-3.79
-4.13
-2.26
0.79
3.29
3.85
2.18
-0.75
-3.30
-4.10
-2.85
-0.41
1.67
2.12
0.65
-1.86
-3.91
-4.27
-2.67
0.02
2.32
3.05
1.92
-0.30
-2.22
-2.72
-1.51
0.65
2.45
2.80
1.46
-0.75
-2.48
-2.56
-0.77
1.98
4.18
4.53
2.74
-0.22
-2.70
-3.28
-1.61
1.35
3.89
4.51
2.86
-0.12
-2.69
-3.40
-1.86
0.96
3.34
3.81
2.04
-0.99
-3.53
-4.08
-2.30
0.79
3.35
3.79
1.77
-1.60
-4.32
-4.68
-2.25
1.73
5.05
5.74
3.33
-0.90
-4.51
-5.40
-3.02
1.28
4.96
5.82
3.31
-1.14
-4.94
-5.89
-3.50
0.76
4.30
5.00
2.43
-1.90
-5.53
-6.45
-4.32
-0.51
2.71
3.64
2.06
-0.73
-2.76
-2.63
-0.36
2.66
4.56
4.09
1.42
-1.96
-4.09
-3.65
-0.80
2.92
5.37
5.03
1.91
-2.39
-5.52
-5.69
-2.72
1.82
5.46
6.27
3.93
-0.11
-3.56
-4.59
-2.95
0.02
2.27
2.35
0.26
-2.59
-4.31
-3.72
-1.06
2.11
3.89
3.12
0.17
-3.29
-5.16
-4.15
-0.57
3.76
6.50
6.09
2.67
-1.92
-5.19
-5.40
-2.53
1.67
4.80
5.19
2.82
-0.70
-3.26
-3.45
-1.42
1.29
2.78
1.94
-0.81
-3.78
-5.01
-3.44
0.39
4.61
6.97
6.15
2.54
-2.00
-5.14
-5.35
-2.80
0.87
3.48
3.68
1.63
-1.13
-2.71
-2.02
0.54
3.32
4.45
2.99
-0.45
-4.02
-5.68
-4.34
-0.60
3.59
5.96
5.22
1.75
-2.59
-5.52
-5.65
-3.21
0.15
2.39
2.30
0.15
-2.51
-3.86
-2.91
-0.08
3.03
4.58
3.57
0.49
-2.96
-4.80
-3.95
-0.83
2.86
5.08
4.66
1.96
-1.41
-3.53
-3.29
-1.06
1.61
2.95
2.09
-0.42
-2.95
-3.75
-2.06
1.39
4.78
6.16
4.65
0.98
-2.87
-4.81
-3.79
-0.49
3.11
4.89
3.81
0.50
-3.17
-5.19
-4.62
-2.02
0.89
2.33
1.50
-0.97
-3.48
-4.40
-3.05
-0.08
2.88
4.13
2.91
-0.10
-3.14
-4.36
-2.85
0.68
4.28
5.84
4.34
0.48
-3.60
-5.61
-4.45
-0.85
3.05
4.97
3.86
0.56
-2.77
-4.02
-2.34
1.30
4.73
5.91
4.13
0.42
-3.08
-4.43
-2.95
0.37
3.53
4.66
3.12
-0.18
-3.31
-4.49
-3.06
0.07
3.04
4.03
2.39
-1.01
-4.21
-5.36
-3.73
-0.20
3.26
4.70
3.30
-0.07
-3.43
-4.82
-3.45
-0.17
3.03
4.20
2.64
-0.73
-3.88
-4.87
-3.07
0.54
3.86
4.99
3.29
-0.22
-3.50
-4.69
-3.19
-0.02
2.93
3.94
2.56
-0.25
-2.69
-3.23
-1.54
1.31
3.56
3.75
1.66
-1.56
-4.02
-4.14
-1.65
2.23
5.39
6.01
3.62
-0.58
-4.38
-5.80
-4.19
-0.64
2.70
3.95
2.52
-0.56
-3.31
-4.07
-2.46
0.43
2.73
2.96
0.97
-2.01
-4.03
-3.65
-0.79
3.12
5.93
5.98
3.05
-1.43
-5.16
-6.29
-4.38
-0.68
2.70
3.96
2.67
-0.09
-2.40
-2.72
-0.77
2.27
4.48
4.35
1.68
-2.22
-5.25
-5.71
-3.29
0.74
4.21
5.28
3.50
-0.01
-3.17
-4.22
-2.71
0.27
2.78
3.24
1.40
-1.53
-3.57
-3.20
-0.33
3.61
6.44
6.46
3.49
-1.04
-4.81
-5.97
-4.16
-0.67
2.38
3.29
1.74
-1.11
-3.34
-3.46
-1.36
1.72
3.85
3.60
0.94
-2.70
-5.22
-5.07
-2.16
2.03
5.28
5.88
3.60
-0.21
-3.42
-4.38
-2.80
0.09
2.37
2.59
0.63
-2.20
-4.01
-3.46
-0.58
3.17
5.76
5.72
3.04
-0.84
-3.85
-4.45
-2.53
0.56
2.87
3.03
1.03
-1.73
-3.33
-2.52
0.52
4.21
6.47
5.92
2.69
-1.62
-4.85
-5.43
-3.34
-0.02
2.47
2.70
0.67
-2.19
-3.93
-3.23
-0.26
3.38
5.58
4.94
1.62
-2.75
-5.95
-6.43
-4.16
-0.57
2.27
2.90
1.23
-1.45
-3.25
-2.86
-0.31
2.99
5.07
4.55
1.49
-2.60
-5.54
-5.74
-3.12
0.86
4.00
4.63
2.61
-0.65
-3.01
-2.93
-0.36
3.18
5.52
5.16
2.13
-1.99
-5.03
-5.49
-3.38
-0.15
2.21
2.40
0.53
-1.97
-3.24
-2.17
0.90
4.34
6.08
4.92
1.20
-3.33
-6.39
-6.50
-3.74
0.31
3.47
4.22
2.52
-0.27
-2.26
-2.14
-0.03
2.69
4.17
3.32
0.46
-2.78
-4.38
-3.13
0.57
4.89
7.50
6.91
3.32
-1.45
-4.95
-5.51
-3.15
0.49
3.14
3.26
0.91
-2.39
-4.61
-4.48
-2.15
0.90
2.83
2.56
0.38
-2.29
-3.75
-3.03
-0.48
2.42
3.93
3.05
0.13
-3.25
-5.13
-4.29
-0.95
3.25
6.08
6.01
3.05
-1.16
-4.24
-4.46
-1.72
2.35
5.34
5.47
2.67
-1.40
-4.43
-4.80
-2.58
0.61
2.64
2.21
-0.41
-3.58
-5.40
-4.80
-2.18
0.92
2.72
2.31
0.11
-2.43
-3.67
-2.74
-0.06
2.94
4.55
3.82
1.06
-2.23
-4.21
-3.70
-0.91
2.60
4.82
4.41
1.56
-2.05
-4.25
-3.60
-0.33
3.75
6.29
5.78
2.47
-1.74
-4.43
-4.11
-1.07
2.76
5.05
4.42
1.26
-2.53
-4.74
-4.18
-1.31
2.06
3.86
3.06
0.19
-3.02
-4.69
-3.90
-1.17
1.83
3.33
2.42
-0.40
-3.52
-5.12
-4.21
-1.19
2.36
4.54
4.23
1.74
-1.37
-3.17
-2.49
0.33
3.62
5.35
4.32
0.95
-2.93
-5.11
-4.29
-0.86
3.27
5.77
5.24
2.04
-1.94
-4.35
-3.75
-0.48
3.52
5.84
5.04
1.49
-2.84
-5.55
-5.17
-2.06
1.88
4.31
3.88
0.92
-2.78
-5.07
-4.75
-2.15
1.07
3.01
2.61
0.25
-2.54
-4.00
-3.16
-0.43
2.68
4.33
3.53
0.65
-2.67
-4.42
-3.43
-0.05
3.90
6.17
5.32
1.67
-2.86
-5.81
-5.60
-2.49
1.61
4.29
4.08
1.25
-2.40
-4.70
-4.42
-1.93
1.08
2.73
2.07
-0.37
-2.97
-4.02
-2.73
0.28
3.39
4.83
3.77
0.70
-2.74
-4.71
-4.14
-1.37
2.02
4.11
3.72
1.09
-2.23
-4.25
-3.72
-0.87
2.66
4.79
4.23
1.27
-2.35
-4.43
-3.61
-0.23
3.82
6.18
5.42
1.94
-2.26
-4.68
-3.82
-0.13
4.28
6.77
5.82
1.89
-2.75
-5.41
-4.52
-0.59
4.06
6.67
5.64
1.45
-3.59
-6.70
-6.25
-2.67
1.86
4.67
4.19
0.78
-3.48
-6.14
-5.75
-2.71
1.04
3.23
2.64
-0.26
-3.62
-5.38
-4.50
-1.54
1.72
3.40
2.63
-0.01
-2.82
-4.05
-2.89
0.05
3.13
4.64
3.80
1.17
-1.67
-3.04
-2.17
0.38
3.05
4.18
3.01
0.17
-2.68
-3.75
-2.26
1.14
4.60
6.13
4.74
1.03
-3.05
-5.33
-4.55
-1.19
2.83
5.22
4.63
1.41
-2.54
-4.97
-4.57
-1.72
1.76
3.71
3.01
0.16
-3.01
-4.49
-3.31
-0.12
3.17
4.54
3.05
-0.51
-4.14
-5.67
-4.09
-0.14
4.13
6.44
5.62
2.20
-1.90
-4.47
-4.29
-1.75
1.38
3.07
2.21
-0.71
-3.94
-5.53
-4.46
-1.29
2.23
4.17
3.58
1.08
-1.51
-2.30
-0.47
3.16
6.54
7.63
5.57
1.24
-3.25
-5.74
-5.24
-2.45
0.74
2.38
1.57
-1.00
-3.55
-4.24
-2.29
1.50
5.18
6.73
5.22
1.40
-2.67
-4.77
-3.76
-0.29
3.59
5.58
4.48
0.89
-3.14
-5.35
-4.60
-1.51
1.99
3.79
2.93
0.09
-2.90
-4.21
-3.07
-0.23
2.55
3.59
2.28
-0.65
-3.51
-4.74
-3.69
-1.04
1.65
2.91
2.10
-0.19
-2.56
-3.62
-2.78
-0.58
1.65
2.57
1.60
-0.69
-2.97
-3.86
-2.75
-0.22
2.34
3.45
2.45
-0.09
-2.67
-3.68
-2.38
0.64
3.69
4.98
3.62
0.24
-3.33
-5.09
-3.97
-0.56
3.19
5.11
4.06
0.63
-3.17
-5.07
-3.87
-0.20
3.85
5.91
4.77
1.09
-2.95
-4.95
-3.68
0.12
4.19
6.12
4.77
0.97
-3.02
-4.80
-3.30
0.63
4.73
6.67
5.36
1.56
-2.62
-4.93
-4.28
-1.27
2.24
4.24
3.69
1.12
-1.81
-3.32
-2.58
-0.15
2.34
3.20
1.74
-1.37
-4.41
-5.68
-4.46
-1.43
1.69
3.15
2.17
-0.64
-3.62
-5.04
-4.06
-1.24
1.82
3.37
2.55
-0.12
-2.99
-4.26
-3.05
0.03
3.22
4.60
3.24
-0.17
-3.67
-5.14
-3.58
0.20
4.05
5.65
3.98
-0.08
-4.18
-5.88
-4.08
0.25
4.65
6.55
4.83
0.45
-4.03
-5.96
-4.16
0.39
5.14
7.40
5.95
1.69
-2.92
-5.32
-4.32
-0.76
3.05
4.76
3.38
-0.24
-3.92
-5.55
-4.25
-0.89
2.48
3.91
2.65
-0.49
-3.62
-4.94
-3.72
-0.73
2.26
3.56
2.50
-0.12
-2.54
-3.07
-1.09
2.49
5.73
6.73
4.78
0.83
-2.97
-4.50
-2.89
0.95
4.79
6.41
4.82
0.93
-3.09
-5.06
-4.04
-0.83
2.54
4.10
3.07
0.20
-2.72
-4.04
-3.19
-0.97
1.02
1.36
-0.24
-2.84
-4.77
-4.65
-2.18
1.52
4.56
5.28
3.20
-0.60
-4.03
-5.11
-3.17
0.76
4.47
5.82
4.03
0.14
-3.54
-4.86
-3.03
0.86
4.47
5.67
3.71
-0.30
-4.10
-5.63
-4.18
-0.77
2.49
3.74
2.37
-0.63
-3.34
-4.08
-2.38
0.76
3.51
4.27
2.63
-0.46
-3.23
-4.16
-2.83
-0.12
2.29
2.97
1.55
-1.07
-3.22
-3.43
-1.34
2.08
4.98
5.73
3.82
0.28
-2.89
-3.84
-1.96
1.72
5.07
6.05
3.95
-0.22
-4.27
-6.14
-5.03
-1.85
1.37
2.78
1.73
-0.91
-3.35
-4.04
-2.55
0.15
2.39
2.77
1.05
-1.73
-3.86
-3.91
-1.63
1.86
4.68
5.16
2.87
-1.08
-4.55
-5.55
-3.39
0.90
5.07
6.93
5.59
1.95
-1.83
-3.66
-2.70
0.18
3.01
3.93
2.35
-0.78
-3.60
-4.48
-2.96
-0.05
2.44
2.98
1.21
-1.83
-4.30
-4.60
-2.31
1.47
4.73
5.63
3.54
-0.46
-4.20
-5.58
-3.80
0.15
4.03
5.63
4.08
0.33
-3.44
-5.13
-3.92
-0.74
2.38
3.58
2.23
-0.71
-3.36
-4.10
-2.48
0.49
3.03
3.61
1.88
-1.15
-3.70
-4.22
-2.33
0.96
3.80
4.52
2.65
-0.79
-3.77
-4.43
-2.18
1.91
5.66
7.00
5.20
1.25
-2.64
-4.39
-3.23
-0.08
3.03
4.23
2.90
-0.04
-2.78
-3.76
-2.61
-0.29
1.53
1.55
-0.35
-3.05
-4.80
-4.28
-1.40
2.56
5.57
5.94
3.31
-1.05
-4.90
-6.17
-4.18
0.00
4.07
5.81
4.32
0.54
-3.36
-5.27
-4.32
-1.35
1.66
2.87
1.65
-1.13
-3.68
-4.39
-2.80
0.17
2.83
3.70
2.39
-0.19
-2.35
-2.64
-0.71
2.45
5.00
5.35
3.07
-0.71
-3.91
-4.65
-2.37
1.78
5.50
6.66
4.54
0.32
-3.60
-5.01
-3.16
0.77
4.34
5.37
3.18
-0.98
-4.69
-5.80
-3.72
0.28
3.85
4.93
2.98
-0.79
-4.23
-5.47
-4.05
-1.07
1.56
2.27
0.77
-1.85
-3.85
-3.87
-1.79
1.28
3.63
3.97
2.14
-0.78
-3.11
-3.51
-1.74
1.21
3.67
4.26
2.64
-0.31
-2.92
-3.73
-2.30
0.53
3.05
3.70
1.97
-1.28
-4.32
-5.46
-4.08
-1.00
2.02
3.31
2.25
-0.36
-2.78
-3.36
-1.56
1.71
4.60
5.43
3.68
0.36
-2.60
-3.40
-1.52
1.99
5.03
5.71
3.44
-0.62
-4.23
-5.28
-3.08
1.17
5.08
6.35
4.17
-0.30
-4.58
-6.33
-4.65
-0.62
3.39
5.12
3.72
0.21
-3.28
-4.74
-3.52
-0.62
2.01
2.66
0.93
-2.13
-4.63
-5.01
-2.92
0.52
3.44
4.24
2.51
-0.69
-3.46
-4.09
-2.10
1.45
4.56
5.39
3.36
-0.50
-4.04
-5.25
-3.42
0.44
4.14
5.62
4.09
0.53
-2.92
-4.21
-2.61
0.90
4.19
5.30
3.58
0.08
-3.09
-4.03
-2.20
1.28
4.27
4.85
2.53
-1.53
-5.12
-6.28
-4.44
-0.69
2.81
4.13
2.62
-0.69
-3.79
-4.84
-3.28
-0.07
2.85
3.80
2.26
-0.79
-3.52
-4.31
-2.72
0.33
3.10
4.09
2.87
0.28
-2.08
-2.83
-1.62
0.69
2.61
2.83
1.10
-1.67
-3.90
-4.28
-2.49
0.56
3.22
4.08
2.72
-0.04
-2.59
-3.47
-2.23
0.36
2.71
3.34
1.77
-1.16
-3.78
-4.52
-2.86
0.30
3.16
4.02
2.32
-0.99
-3.93
-4.61
-2.36
1.81
5.74
7.29
5.61
1.61
-2.50
-4.47
-3.31
0.17
3.85
5.55
4.30
0.87
-2.73
-4.48
-3.56
-0.72
2.16
3.28
1.95
-0.98
-3.71
-4.57
-3.00
0.05
2.74
3.32
1.27
-2.38
-5.56
-6.29
-3.85
0.77
5.32
7.55
6.43
2.75
-1.35
-3.68
-3.15
-0.43
2.63
4.09
3.12
0.43
-2.24
-3.22
-1.92
0.79
3.16
3.54
1.44
-2.14
-5.27
-6.09
-3.95
0.18
4.18
5.97
4.65
1.08
-2.70
-4.57
-3.62
-0.57
2.65
4.11
3.04
0.20
-2.58
-3.57
-2.15
0.76
3.33
3.84
1.73
-2.00
-5.38
-6.49
-4.57
-0.53
3.58
5.67
4.80
1.67
-1.84
-3.74
-3.12
-0.61
2.06
3.13
1.88
-0.95
-3.61
-4.38
-2.62
0.83
4.11
5.38
3.92
0.54
-2.90
-4.56
-3.65
-0.90
1.96
3.18
2.08
-0.59
-3.10
-3.82
-2.17
0.97
3.77
4.49
2.55
-1.13
-4.52
-5.67
-3.76
0.35
4.59
6.78
5.90
2.63
-1.09
-3.22
-2.77
-0.39
2.18
3.14
1.77
-1.14
-3.79
-4.46
-2.54
1.01
4.20
5.14
3.11
-0.96
-4.97
-6.80
-5.50
-1.78
2.33
4.69
4.22
1.53
-1.58
-3.16
-2.36
0.16
2.62
3.27
1.45
-1.98
-5.09
-6.01
-4.00
0.07
4.20
6.30
5.40
2.17
-1.53
-3.68
-3.27
-0.85
1.83
2.94
1.62
-1.40
-4.28
-5.14
-3.16
0.80
4.74
6.56
5.32
1.74
-2.25
-4.59
-4.22
-1.71
1.22
2.66
1.68
-1.12
-4.00
-5.08
-3.50
0.06
3.72
5.50
4.45
1.21
-2.32
-4.11
-3.14
-0.01
3.45
5.20
4.30
1.37
-1.76
-3.16
-1.97
1.05
4.01
4.94
2.98
-1.07
-5.20
-7.28
-6.26
-2.71
1.48
4.20
4.28
2.09
-0.70
-2.21
-1.46
1.09
3.75
4.71
3.10
-0.39
-3.93
-5.56
-4.32
-0.84
3.01
5.14
4.49
1.52
-1.95
-3.91
-3.25
-0.45
2.72
4.27
3.16
-0.02
-3.44
-5.09
-4.02
-0.86
2.48
3.97
2.62
-0.87
-4.58
-6.43
-5.42
-2.15
1.56
3.67
3.12
0.34
-3.00
-4.96
-4.41
-1.66
1.72
3.83
3.54
1.14
-1.79
-3.37
-2.48
0.55
4.11
6.23
5.75
3.03
-0.27
-2.15
-1.45
1.43
4.75
6.46
5.41
2.06
-1.80
-4.05
-3.53
-0.72
2.58
4.28
3.31
0.25
-3.06
-4.60
-3.40
-0.14
3.25
4.74
3.38
-0.11
-3.82
-5.69
-4.76
-1.68
1.67
3.27
2.10
-1.21
-4.82
-6.71
-5.86
-2.80
0.69
2.61
1.91
-0.94
-4.19
-5.86
-4.84
-1.53
2.39
4.90
4.76
2.22
-1.12
-3.25
-2.83
-0.04
3.60
6.04
5.94
3.44
0.12
-1.97
-1.50
1.29
4.71
6.64
5.72
2.28
-1.92
-4.69
-4.68
-2.16
1.15
3.17
2.62
-0.22
-3.72
-5.84
-5.36
-2.52
1.14
3.63
3.72
1.55
-1.45
-3.42
-3.14
-0.76
2.30
4.16
3.63
0.91
-2.49
-4.65
-4.36
-1.80
1.53
3.71
3.51
1.13
-1.96
-3.81
-3.21
-0.37
3.12
5.20
4.56
1.41
-2.59
-5.22
-5.01
-2.06
1.98
4.88
5.09
2.64
-0.93
-3.51
-3.70
-1.55
1.52
3.61
3.53
1.39
-1.45
-3.29
-3.13
-1.20
1.17
2.35
1.47
-1.09
-3.85
-5.08
-3.83
-0.52
3.20
5.34
4.72
1.64
-2.25
-4.80
-4.65
-1.92
1.84
4.50
4.61
2.20
-1.27
-3.76
-3.90
-1.71
1.38
3.48
3.28
0.90
-2.24
-4.27
-4.00
-1.60
1.50
3.44
3.09
0.67
-2.39
-4.28
-3.87
-1.41
1.69
3.62
3.27
0.81
-2.38
-4.53
-4.49
-2.35
0.64
2.80
3.00
1.27
-1.24
-2.95
-2.81
-0.87
1.73
3.41
3.12
0.96
-1.86
-3.69
-3.37
-0.97
2.27
4.59
4.74
2.71
-0.26
-2.38
-2.36
-0.16
2.94
5.08
4.94
2.54
-0.80
-3.18
-3.23
-0.92
2.36
4.62
4.45
1.82
-1.85
-4.56
-4.84
-2.59
0.85
3.53
4.00
2.13
-0.87
-3.17
-3.44
-1.55
1.33
3.49
3.70
1.87
-0.85
-2.83
-2.90
-1.03
1.64
3.43
3.17
0.87
-2.29
-4.62
-4.93
-3.19
-0.53
1.40
1.44
-0.39
-2.94
-4.56
-4.13
-1.68
1.54
3.77
3.75
1.49
-1.72
-3.93
-3.67
-0.81
3.23
6.25
6.48
3.63
-0.86
-4.57
-5.46
-3.07
1.23
5.00
6.19
4.26
0.52
-2.75
-3.70
-1.97
1.17
3.63
3.80
1.55
-1.77
-4.17
-4.21
-1.88
1.38
3.54
3.14
0.18
-3.80
-6.60
-6.53
-3.41
1.29
5.23
6.48
4.60
0.86
-2.56
-3.81
-2.43
0.46
2.87
3.16
0.97
-2.49
-5.27
-5.72
-3.52
0.20
3.50
4.71
3.40
0.54
-2.04
-2.80
-1.33
1.37
3.48
3.51
1.15
-2.42
-5.20
-5.49
-2.96
1.20
4.84
6.14
4.57
1.25
-1.79
-2.79
-1.27
1.66
3.96
3.95
1.28
-2.81
-6.11
-6.79
-4.38
-0.10
3.88
5.60
4.47
1.49
-1.36
-2.35
-0.98
1.70
3.74
3.60
1.01
-2.75
-5.58
-5.78
-3.08
1.18
4.84
6.07
4.45
1.11
-1.98
-3.16
-1.98
0.48
2.41
2.31
-0.08
-3.57
-6.22
-6.44
-3.93
0.13
3.74
5.15
3.86
0.88
-1.87
-2.72
-1.19
1.72
4.09
4.27
1.82
-2.12
-5.50
-6.49
-4.53
-0.64
3.16
4.98
4.15
1.51
-1.15
-2.15
-0.96
1.54
3.54
3.49
1.05
-2.68
-5.71
-6.32
-4.06
-0.06
3.59
5.03
3.66
0.45
-2.65
-3.87
-2.64
0.12
2.60
3.21
1.55
-1.33
-3.57
-3.61
-1.17
2.51
5.38
5.68
3.04
-1.25
-4.90
-5.87
-3.51
1.00
5.27
7.05
5.45
1.45
-2.68
-4.73
-3.79
-0.70
2.53
3.95
2.83
0.02
-2.68
-3.66
-2.44
0.03
2.07
2.24
0.27
-2.79
-5.20
-5.50
-3.43
-0.06
2.73
3.36
1.41
-2.04
-5.01
-5.70
-3.52
0.49
4.22
5.67
4.13
0.63
-2.69
-3.79
-1.95
1.76
5.17
6.27
4.42
0.72
-2.64
-3.70
-1.89
1.66
4.82
5.70
3.75
0.07
-3.27
-4.45
-2.91
0.36
3.42
4.55
3.17
0.18
-2.68
-3.86
-2.85
-0.47
1.71
2.32
0.98
-1.50
-3.62
-4.10
-2.63
-0.07
2.04
2.37
0.60
-2.39
-4.93
-5.52
-3.64
-0.18
3.05
4.25
2.75
-0.64
-3.97
-5.28
-3.71
-0.06
3.64
5.36
4.21
0.99
-2.33
-3.78
-2.57
0.48
3.50
4.71
3.44
0.55
-2.15
-3.01
-1.54
1.31
3.70
3.96
1.65
-2.16
-5.44
-6.35
-4.25
-0.15
3.89
5.84
4.89
1.87
-1.28
-2.65
-1.44
1.53
4.37
5.26
3.50
-0.04
-3.40
-4.74
-3.35
-0.10
3.11
4.42
3.16
0.21
-2.53
-3.32
-1.59
1.64
4.35
4.72
2.23
-2.00
-5.78
-7.05
-5.08
-0.89
3.35
5.48
4.60
1.48
-1.93
-3.67
-2.91
-0.39
2.10
2.81
1.09
-2.21
-5.20
-6.05
-4.08
-0.17
3.65
5.41
4.22
0.89
-2.65
-4.40
-3.47
-0.60
2.30
3.33
1.75
-1.57
-4.61
-5.41
-3.31
0.71
4.52
6.10
4.74
1.40
-1.85
-3.09
-1.67
1.41
4.12
4.61
2.32
-1.62
-5.09
-6.16
-4.21
-0.28
3.52
5.24
4.15
1.10
-1.96
-3.16
-1.80
1.27
4.11
4.88
2.98
-0.62
-3.89
-4.98
-3.32
0.02
2.97
3.72
1.74
-1.86
-4.98
-5.77
-3.66
0.24
3.86
5.32
4.02
0.91
-2.03
-3.02
-1.49
1.60
4.25
4.68
2.35
-1.68
-5.29
-6.55
-4.80
-1.04
2.69
4.46
3.55
0.80
-1.94
-2.95
-1.68
0.96
3.16
3.34
1.13
-2.39
-5.28
-5.90
-3.83
-0.12
3.26
4.60
3.37
0.53
-2.02
-2.60
-0.72
2.54
5.18
5.47
2.98
-1.08
-4.58
-5.64
-3.78
-0.15
3.08
4.03
2.21
-1.26
-4.29
-5.11
-3.25
0.20
3.25
4.18
2.56
-0.55
-3.17
-3.60
-1.41
2.26
5.34
6.03
3.86
0.02
-3.37
-4.47
-2.76
0.58
3.43
3.97
1.73
-2.09
-5.34
-6.17
-4.05
-0.13
3.47
4.90
3.56
0.47
-2.42
-3.36
-1.85
1.09
3.52
3.79
1.50
-2.20
-5.25
-5.88
-3.62
0.42
4.16
5.77
4.66
1.78
-1.00
-2.02
-0.80
1.66
3.54
3.30
0.69
-3.09
-5.96
-6.23
-3.55
0.78
4.59
6.03
4.58
1.38
-1.56
-2.50
-1.05
1.64
3.59
3.18
0.24
-3.87
-6.98
-7.35
-4.71
-0.40
3.40
4.86
3.52
0.45
-2.40
-3.34
-1.94
0.78
2.92
2.91
0.47
-3.22
-6.12
-6.55
-4.13
-0.04
3.67
5.22
4.08
1.24
-1.40
-2.17
-0.61
2.30
4.72
5.10
3.13
-0.07
-2.59
-2.94
-0.92
2.18
4.37
4.12
1.34
-2.60
-5.60
-6.08
-3.90
-0.37
2.49
3.16
1.42
-1.50
-3.71
-3.74
-1.40
2.05
4.70
5.05
2.94
-0.35
-2.88
-3.16
-1.08
2.08
4.32
4.17
1.54
-2.15
-4.80
-4.84
-2.16
1.79
4.84
5.35
3.13
-0.44
-3.27
-3.78
-1.81
1.25
3.36
3.06
0.31
-3.41
-6.00
-5.92
-3.15
0.85
4.03
4.82
3.08
0.12
-2.14
-2.30
-0.27
2.63
4.46
3.85
0.84
-3.11
-5.86
-5.88
-3.10
1.03
4.36
5.26
3.51
0.37
-2.22
-2.80
-1.24
1.23
2.75
2.06
-0.74
-4.14
-6.11
-5.25
-1.71
2.86
6.18
6.58
3.99
-0.11
-3.50
-4.52
-2.96
-0.08
2.18
2.42
0.59
-2.03
-3.66
-3.11
-0.58
2.47
4.11
3.14
-0.18
-4.14
-6.51
-5.79
-2.12
2.69
6.14
6.48
3.69
-0.54
-3.78
-4.34
-2.18
1.16
3.54
3.57
1.41
-1.41
-2.99
-2.29
0.25
2.94
3.89
2.13
-1.70
-5.68
-7.60
-6.22
-2.03
2.98
6.32
6.41
3.40
-0.87
-3.99
-4.29
-1.77
1.97
4.74
5.06
2.98
-0.03
-2.05
-1.90
0.12
2.48
3.37
1.84
-1.51
-4.89
-6.25
-4.57
-0.51
3.92
6.41
5.69
2.22
-2.05
-4.85
-4.81
-2.25
1.16
3.38
3.22
1.03
-1.63
-2.91
-1.86
0.98
3.89
5.00
3.36
-0.38
-4.35
-6.50
-5.71
-2.46
1.45
3.92
3.78
1.42
-1.47
-2.94
-1.96
0.94
3.96
5.14
3.53
-0.21
-4.14
-6.17
-5.28
-2.08
1.54
3.52
2.83
0.08
-2.86
-4.02
-2.47
1.04
4.50
5.88
4.28
0.55
-3.22
-4.92
-3.65
-0.24
3.20
4.59
3.03
-0.62
-4.29
-5.88
-4.51
-0.95
2.83
4.85
4.20
1.57
-1.23
-2.32
-0.92
2.21
5.21
6.17
4.35
0.66
-2.90
-4.38
-3.06
0.12
3.09
3.95
2.07
-1.49
-4.67
-5.65
-3.87
-0.43
2.62
3.50
1.68
-1.77
-4.88
-5.87
-4.17
-0.73
2.53
3.87
2.63
-0.34
-3.17
-4.11
-2.47
0.94
4.26
5.63
4.30
1.07
-2.17
-3.51
-2.15
1.11
4.38
5.76
4.42
1.17
-2.10
-3.51
-2.27
0.86
4.05
5.47
4.33
1.35
-1.73
-3.17
-2.26
0.26
2.66
3.26
1.46
-1.90
-4.95
-5.98
-4.37
-1.05
2.07
3.18
1.64
-1.64
-4.75
-5.91
-4.51
-1.45
1.39
2.33
0.83
-2.11
-4.65
-5.19
-3.39
-0.37
1.99
2.19
0.05
-3.10
-5.22
-4.78
-1.68
2.65
6.00
6.68
4.48
0.79
-2.18
-2.67
-0.43
3.23
6.12
6.49
4.09
0.29
-2.72
-3.22
-0.98
2.60
5.33
5.58
3.25
-0.25
-2.79
-2.89
-0.62
2.47
4.25
3.37
0.08
-3.89
-6.37
-6.00
-3.02
0.81
3.29
3.00
0.10
-3.78
-6.48
-6.49
-3.83
0.06
3.09
3.78
2.00
-0.94
-3.10
-3.02
-0.61
2.81
5.23
5.19
2.66
-0.93
-3.52
-3.69
-1.48
1.60
3.49
2.86
-0.10
-3.68
-5.72
-4.81
-1.20
3.35
6.58
6.96
4.54
0.88
-1.93
-2.47
-0.77
1.71
3.00
1.85
-1.50
-5.40
-7.66
-6.87
-3.23
1.52
5.03
5.68
3.44
-0.18
-3.01
-3.52
-1.67
1.15
3.01
2.64
0.20
-2.79
-4.40
-3.45
-0.27
3.46
5.64
5.04
1.95
-1.92
-4.44
-4.30
-1.72
1.70
3.87
3.52
0.91
-2.35
-4.20
-3.41
-0.31
3.38
5.56
4.96
1.89
-1.92
-4.36
-4.14
-1.52
1.84
3.83
3.22
0.32
-3.17
-5.13
-4.35
-1.23
2.45
4.52
3.74
0.52
-3.29
-5.51
-4.85
-1.68
2.21
4.66
4.46
2.01
-0.93
-2.37
-1.27
1.74
4.80
5.88
4.04
0.00
-4.21
-6.41
-5.49
-2.03
2.08
4.66
4.51
2.03
-1.11
-2.96
-2.46
-0.04
2.63
3.72
2.32
-1.01
-4.48
-6.15
-5.00
-1.56
2.36
4.73
4.43
1.90
-1.17
-2.86
-2.16
0.36
2.94
3.72
1.90
-1.71
-5.12
-6.39
-4.76
-1.11
2.51
4.09
2.77
-0.65
-4.21
-5.88
-4.73
-1.38
2.38
4.66
4.50
2.40
-0.02
-1.05
0.13
2.89
5.51
6.21
4.25
0.46
-3.22
-4.84
-3.61
-0.35
2.90
4.16
2.57
-0.99
-4.53
-6.04
-4.69
-1.29
2.17
3.72
2.54
-0.57
-3.65
-4.74
-3.03
0.67
4.38
6.08
4.94
1.77
-1.47
-2.82
-1.49
1.63
4.55
5.37
3.45
-0.21
-3.55
-4.74
-3.25
-0.21
2.34
2.66
0.36
-3.33
-6.31
-6.83
-4.53
-0.64
2.74
3.81
2.10
-1.29
-4.31
-5.17
-3.33
0.20
3.44
4.59
3.03
-0.30
-3.47
-4.68
-3.27
-0.09
2.99
4.16
2.73
-0.45
-3.51
-4.64
-3.12
0.21
3.47
4.82
3.54
0.47
-2.48
-3.42
-1.63
2.00
5.44
6.76
5.23
1.77
-1.55
-2.83
-1.42
1.69
4.47
5.13
3.16
-0.29
-3.18
-3.81
-1.84
1.51
4.17
4.53
2.31
-1.17
-3.90
-4.27
-2.10
1.26
3.75
3.85
1.49
-1.90
-4.27
-4.18
-1.68
1.68
3.79
3.27
0.31
-3.44
-5.82
-5.44
-2.48
1.40
4.05
3.98
1.30
-2.49
-5.29
-5.62
-3.41
-0.01
2.57
2.85
0.66
-2.70
-5.28
-5.56
-3.31
0.25
3.15
3.81
1.97
-1.17
-3.63
-3.79
-1.40
2.28
5.18
5.66
3.43
-0.20
-3.14
-3.75
-1.76
1.54
4.14
4.49
2.47
-0.58
-2.67
-2.43
0.05
3.22
5.02
4.12
0.76
-3.35
-6.03
-5.84
-2.95
0.99
3.81
4.05
1.74
-1.63
-4.01
-3.95
-1.40
2.25
5.02
5.48
3.54
0.49
-1.77
-1.87
0.20
3.04
4.69
3.81
0.54
-3.57
-6.35
-6.38
-3.71
0.07
2.81
3.01
0.67
-2.74
-5.10
-4.93
-2.21
1.61
4.44
4.79
2.63
-0.61
-2.81
-2.52
0.26
3.96
6.42
6.19
3.39
-0.33
-2.79
-2.54
0.21
3.75
5.85
5.15
1.91
-2.11
-4.73
-4.60
-2.01
1.28
3.11
2.27
-0.82
-4.35
-6.17
-5.14
-1.82
1.85
3.70
2.60
-0.83
-4.62
-6.58
-5.54
-2.06
1.96
4.37
3.97
1.24
-2.10
-4.01
-3.40
-0.67
2.54
4.28
3.53
0.74
-2.39
-3.96
-2.96
0.09
3.42
5.04
3.91
0.59
-3.08
-5.03
-4.16
-0.98
2.71
4.81
4.16
1.23
-2.23
-4.21
-3.58
-0.74
2.62
4.53
3.87
1.06
-2.23
-4.06
-3.33
-0.44
2.92
4.81
4.11
1.23
-2.13
-4.04
-3.41
-0.67
2.47
4.07
3.07
-0.04
-3.50
-5.35
-4.50
-1.41
2.20
4.30
3.75
0.95
-2.41
-4.38
-3.84
-1.16
2.02
3.80
3.15
0.49
-2.55
-4.11
-3.19
-0.25
3.05
4.80
3.98
1.04
-2.37
-4.34
-3.79
-1.15
1.93
3.55
2.67
-0.21
-3.38
-4.92
-3.86
-0.77
2.56
4.16
3.10
-0.01
-3.33
-4.94
-3.97
-1.12
1.82
2.99
1.60
-1.61
-4.77
-6.00
-4.50
-0.98
2.70
4.60
3.75
0.74
-2.64
-4.40
-3.49
-0.34
3.34
5.58
5.26
2.76
-0.26
-1.86
-1.03
1.73
4.69
5.92
4.46
1.00
-2.61
-4.42
-3.54
-0.71
2.18
3.25
1.72
-1.57
-4.68
-5.68
-3.79
0.14
4.08
6.01
5.05
1.91
-1.48
-3.15
-2.21
0.63
3.53
4.58
3.00
-0.45
-3.85
-5.30
-4.01
-0.74
2.70
4.43
3.66
1.07
-1.59
-2.58
-1.20
1.75
4.41
4.96
2.73
-1.34
-5.20
-6.80
-5.31
-1.54
2.47
4.65
4.06
1.35
-1.63
-3.00
-1.98
0.67
3.11
3.59
1.50
-2.19
-5.44
-6.31
-4.11
0.12
4.20
6.00
4.69
1.16
-2.47
-4.16
-3.09
-0.09
2.88
4.02
2.69
-0.22
-2.89
-3.69
-2.20
0.61
2.97
3.36
1.45
-1.73
-4.33
-4.77
-2.63
1.03
4.19
5.03
2.94
-1.02
-4.70
-6.05
-4.27
-0.36
3.55
5.34
4.17
0.93
-2.37
-3.83
-2.74
0.02
2.59
3.32
1.74
-1.20
-3.70
-4.24
-2.48
0.53
2.97
3.28
1.18
-2.22
-4.93
-5.27
-2.81
1.24
4.73
5.71
3.60
-0.45
-4.17
-5.44
-3.55
0.39
4.08
5.41
3.66
-0.04
-3.36
-4.23
-2.06
1.84
5.08
5.61
2.96
-1.44
-5.04
-5.71
-2.97
1.68
5.64
6.73
4.39
0.02
-3.88
-5.16
-3.22
0.64
4.04
4.99
2.97
-0.75
-3.92
-4.65
-2.50
1.28
4.57
5.56
3.83
0.50
-2.50
-3.57
-2.36
0.13
2.17
2.39
0.58
-2.21
-4.29
-4.36
-2.28
0.84
3.23
3.57
1.68
-1.29
-3.60
-3.91
-2.08
0.74
2.77
2.67
0.34
-2.94
-5.30
-5.29
-2.79
0.93
3.91
4.64
2.87
-0.21
-2.66
-2.96
-0.81
2.62
5.39
5.87
3.77
0.27
-2.65
-3.29
-1.30
2.14
5.03
5.65
3.60
0.02
-3.06
-3.95
-2.26
0.87
3.41
3.73
1.49
-2.09
-4.96
-5.51
-3.49
-0.23
2.20
2.23
-0.22
-3.68
-5.99
-5.62
-2.65
1.31
4.04
4.05
1.48
-2.00
-4.21
-3.74
-0.81
2.88
5.17
4.69
1.71
-2.06
-4.47
-4.12
-1.19
2.64
5.21
5.05
2.25
-1.63
-4.43
-4.69
-2.42
0.84
3.00
2.64
-0.14
-3.72
-5.94
-5.30
-1.89
2.65
6.05
6.70
4.50
0.96
-1.77
-2.13
-0.08
2.96
4.90
4.34
1.33
-2.53
-5.14
-5.03
-2.33
1.36
3.88
3.76
1.10
-2.49
-4.83
-4.45
-1.41
2.70
5.66
5.94
3.51
-0.13
-2.88
-3.30
-1.44
1.23
2.72
1.80
-1.23
-4.67
-6.44
-5.34
-1.81
2.29
4.75
4.27
1.20
-2.64
-5.03
-4.58
-1.52
2.48
5.24
5.33
2.83
-0.73
-3.33
-3.61
-1.67
1.00
2.50
1.66
-1.19
-4.36
-5.83
-4.45
-0.71
3.53
6.04
5.53
2.39
-1.53
-3.98
-3.60
-0.64
3.20
5.78
5.73
3.22
-0.21
-2.55
-2.58
-0.51
2.11
3.39
2.26
-0.88
-4.32
-6.07
-5.00
-1.52
2.58
5.21
5.13
2.62
-0.68
-2.78
-2.55
-0.36
2.18
3.17
1.61
-1.94
-5.66
-7.50
-6.32
-2.63
1.76
4.67
4.87
2.66
-0.35
-2.20
-1.77
0.57
3.22
4.31
2.90
-0.46
-4.03
-5.81
-4.72
-1.22
2.91
5.62
5.70
3.46
0.48
-1.39
-1.08
0.97
3.19
3.78
1.91
-1.78
-5.40
-6.97
-5.50
-1.68
2.50
4.79
3.99
0.54
-3.67
-6.38
-6.20
-3.38
0.46
3.22
3.57
1.66
-1.03
-2.63
-2.06
0.34
3.01
4.19
3.00
0.06
-2.90
-4.06
-2.63
0.60
3.72
4.80
3.05
-0.67
-4.31
-5.79
-4.24
-0.46
3.46
5.33
4.12
0.52
-3.47
-5.63
-4.82
-1.56
2.27
4.60
4.27
1.75
-1.24
-2.80
-1.97
0.74
3.60
4.83
3.61
0.66
-2.22
-3.20
-1.60
1.65
4.55
5.15
2.83
-1.29
-4.96
-6.06
-3.89
0.42
4.51
6.08
4.26
0.00
-4.41
-6.69
-5.74
-2.28
1.70
4.04
3.65
1.00
-2.15
-3.90
-3.23
-0.59
2.39
3.96
3.22
0.69
-2.00
-3.16
-2.01
0.76
3.46
4.39
2.87
-0.26
-3.18
-4.12
-2.50
0.75
3.71
4.61
2.89
-0.44
-3.42
-4.29
-2.54
0.78
3.67
4.35
2.36
-1.20
-4.26
-5.03
-3.04
0.54
3.59
4.24
2.00
-1.90
-5.26
-6.13
-3.96
0.06
3.68
4.90
3.06
-0.77
-4.44
-5.93
-4.47
-0.94
2.66
4.36
3.36
0.39
-2.71
-4.12
-3.06
-0.24
2.62
3.84
2.78
0.20
-2.23
-2.95
-1.49
1.21
3.43
3.68
1.71
-1.35
-3.59
-3.51
-0.94
2.78
5.53
5.65
2.91
-1.31
-4.76
-5.59
-3.38
0.63
4.26
5.56
3.92
0.34
-3.15
-4.63
-3.39
-0.30
2.79
4.07
2.84
-0.05
-2.81
-3.77
-2.36
0.53
3.09
3.73
2.04
-0.96
-3.39
-3.74
-1.74
1.41
3.73
3.69
1.10
-2.70
-5.60
-5.93
-3.43
0.63
4.12
5.33
3.84
0.81
-1.78
-2.29
-0.40
2.72
5.07
5.07
2.52
-1.27
-4.23
-4.75
-2.62
0.84
3.51
3.79
1.45
-2.21
-5.09
-5.58
-3.40
0.20
3.23
4.09
2.46
-0.49
-2.86
-3.09
-0.96
2.32
4.77
4.85
2.40
-1.27
-4.14
-4.67
-2.71
0.43
2.81
2.98
0.90
-2.08
-4.02
-3.56
-0.76
2.88
5.26
4.94
1.97
-2.11
-5.12
-5.46
-3.07
0.61
3.40
3.68
1.31
-2.31
-5.02
-5.22
-2.75
1.01
3.95
4.49
2.49
-0.71
-3.04
-2.99
-0.48
3.02
5.38
5.08
2.13
-1.88
-4.72
-4.81
-2.17
1.63
4.37
4.47
1.89
-1.84
-4.52
-4.56
-1.89
2.00
4.91
5.23
2.89
-0.66
-3.31
-3.51
-1.26
1.95
4.01
3.46
0.45
-3.36
-5.71
-5.10
-1.72
2.63
5.61
5.66
2.93
-0.87
-3.48
-3.44
-0.96
2.23
3.97
2.93
-0.52
-4.54
-6.93
-6.38
-3.28
0.56
2.98
2.65
-0.17
-3.78
-6.05
-5.63
-2.67
1.26
4.10
4.48
2.45
-0.51
-2.42
-1.97
0.70
4.08
6.17
5.65
2.74
-0.94
-3.29
-2.96
-0.11
3.62
6.11
6.02
3.51
0.16
-2.03
-1.86
0.32
2.86
3.75
1.98
-1.90
-5.96
-7.98
-6.76
-2.81
1.89
5.03
5.22
2.71
-0.81
-3.24
-3.33
-1.30
1.35
2.77
1.97
-0.65
-3.47
-4.68
-3.36
-0.06
3.48
5.31
4.42
1.32
-2.23
-4.32
-3.89
-1.43
1.44
2.85
1.92
-0.78
-3.57
-4.66
-3.22
0.07
3.45
5.06
4.02
0.94
-2.40
-4.14
-3.41
-0.82
1.92
2.97
1.57
-1.57
-4.59
-5.61
-3.83
-0.05
3.78
5.71
4.85
1.92
-1.22
-2.71
-1.79
0.75
3.08
3.44
1.26
-2.48
-5.77
-6.71
-4.63
-0.52
3.51
5.40
4.32
1.07
-2.36
-3.97
-2.95
-0.06
2.80
3.79
2.24
-0.95
-3.84
-4.65
-2.85
0.56
3.61
4.57
2.96
-0.16
-2.81
-3.33
-1.26
2.30
5.40
6.32
4.56
1.13
-2.08
-3.35
-2.15
0.59
3.04
3.58
1.75
-1.42
-4.08
-4.64
-2.79
0.29
2.64
2.69
0.22
-3.43
-6.13
-6.17
-3.28
1.19
5.02
6.35
4.70
1.25
-1.89
-2.93
-1.42
1.50
3.82
3.86
1.35
-2.43
-5.37
-5.74
-3.27
0.71
4.05
5.05
3.41
0.38
-2.02
-2.27
-0.29
2.54
4.23
3.36
0.07
-4.02
-6.70
-6.43
-3.24
1.26
4.77
5.66
3.80
0.60
-1.85
-2.07
-0.10
2.62
4.10
3.03
-0.34
-4.33
-6.76
-6.22
-2.89
1.52
4.79
5.37
3.30
0.04
-2.36
-2.59
-0.77
1.65
2.80
1.59
-1.61
-5.08
-6.79
-5.54
-1.75
2.75
5.72
5.72
2.95
-0.89
-3.65
-3.86
-1.65
1.49
3.57
3.37
1.11
-1.65
-3.03
-2.01
0.96
4.11
5.48
4.04
0.38
-3.64
-5.89
-5.21
-2.05
1.84
4.37
4.33
2.05
-0.86
-2.53
-1.92
0.47
2.96
3.70
1.84
-1.88
-5.48
-6.91
-5.18
-1.04
3.43
5.96
5.35
2.14
-1.79
-4.28
-4.16
-1.83
1.03
2.56
1.81
-0.67
-3.24
-4.15
-2.66
0.53
3.64
4.87
3.47
0.19
-3.14
-4.65
-3.53
-0.47
2.72
4.15
3.02
0.01
-3.05
-4.26
-2.78
0.63
4.08
5.63
4.39
1.14
-2.22
-3.72
-2.56
0.49
3.48
4.52
2.90
-0.47
-3.59
-4.54
-2.67
1.04
4.49
5.71
3.96
0.18
-3.58
-5.32
-4.22
-1.06
2.26
3.80
2.76
-0.13
-3.04
-4.19
-2.93
-0.11
2.42
2.96
1.04
-2.31
-5.08
-5.53
-3.23
0.70
4.15
5.31
3.68
0.35
-2.63
-3.51
-1.85
1.24
3.82
4.20
2.04
-1.45
-4.24
-4.65
-2.35
1.40
4.47
5.18
3.17
-0.29
-3.14
-3.74
-1.87
1.16
3.32
3.07
0.39
-3.27
-5.75
-5.48
-2.42
1.90
5.29
6.12
4.19
0.86
-1.85
-2.44
-0.83
1.65
3.10
2.19
-0.93
-4.74
-7.12
-6.64
-3.36
1.14
4.65
5.56
3.75
0.59
-1.85
-2.12
-0.16
2.63
4.29
3.49
0.40
-3.38
-5.73
-5.22
-1.98
2.34
5.52
6.02
3.86
0.51
-1.98
-2.25
-0.43
2.01
3.16
1.87
-1.46
-5.13
-7.06
-6.01
-2.36
2.08
5.09
5.26
2.79
-0.73
-3.24
-3.43
-1.47
1.14
2.49
1.52
-1.36
-4.48
-5.84
-4.39
-0.64
3.54
5.98
5.49
2.51
-1.16
-3.43
-3.09
-0.54
2.51
4.08
3.11
0.11
-3.16
-4.73
-3.61
-0.45
2.88
4.35
2.97
-0.59
-4.36
-6.20
-5.01
-1.37
2.81
5.37
5.19
2.72
-0.29
-1.92
-1.21
1.19
3.55
4.04
1.97
-1.81
-5.29
-6.52
-4.71
-0.71
3.43
5.65
5.02
2.22
-0.90
-2.48
-1.72
0.65
2.84
3.16
1.02
-2.58
-5.65
-6.33
-4.01
0.26
4.33
6.13
4.86
1.37
-2.31
-4.17
-3.31
-0.46
2.60
4.06
3.17
0.66
-1.76
-2.46
-0.95
1.79
3.91
3.83
1.24
-2.61
-5.58
-5.93
-3.33
0.85
4.31
5.11
2.81
-1.33
-5.00
-6.17
-4.24
-0.31
3.45
5.03
3.72
0.46
-2.81
-4.23
-3.14
-0.38
2.26
3.18
1.96
-0.42
-2.20
-2.01
0.29
3.39
5.35
4.76
1.65
-2.42
-5.25
-5.24
-2.36
1.78
4.84
5.05
2.28
-1.93
-5.21
-5.71
-3.16
0.99
4.44
5.28
3.15
-0.68
-4.03
-5.11
-3.49
-0.35
2.36
3.02
1.40
-1.33
-3.29
-3.11
-0.81
2.22
4.04
3.39
0.48
-3.04
-5.05
-4.22
-0.87
3.21
5.70
5.16
1.84
-2.45
-5.35
-5.28
-2.32
1.83
4.89
5.24
2.86
-0.77
-3.49
-3.79
-1.63
1.56
3.75
3.54
1.00
-2.39
-4.63
-4.36
-1.73
1.73
4.01
3.82
1.40
-1.68
-3.43
-2.71
0.11
3.35
5.02
4.05
0.92
-2.56
-4.35
-3.40
-0.25
3.23
4.99
3.96
0.72
-2.82
-4.59
-3.53
-0.28
3.21
4.83
3.56
0.06
-3.68
-5.53
-4.46
-1.16
2.35
3.97
2.75
-0.58
-3.95
-5.24
-3.54
0.34
4.25
5.98
4.54
0.72
-3.34
-5.37
-4.31
-0.85
2.91
4.74
3.57
0.06
-3.76
-5.72
-4.70
-1.33
2.43
4.47
3.69
0.68
-2.68
-4.31
-3.19
0.07
3.55
5.21
4.00
0.60
-3.03
-4.76
-3.54
-0.01
3.83
5.80
4.79
1.40
-2.43
-4.56
-3.88
-0.96
2.33
3.95
2.90
-0.15
-3.31
-4.60
-3.18
0.13
3.27
4.26
2.34
-1.48
-4.99
-6.08
-4.02
0.09
3.93
5.34
3.59
-0.23
-3.83
-5.11
-3.43
0.11
3.28
4.19
2.37
-0.96
-3.62
-3.89
-1.51
2.07
4.67
4.65
1.98
-1.77
-4.36
-4.23
-1.43
2.42
5.08
5.07
2.45
-1.19
-3.70
-3.65
-1.12
2.38
4.82
4.83
2.44
-0.94
-3.35
-3.42
-1.15
2.08
4.33
4.18
1.60
-2.03
-4.65
-4.77
-2.26
1.45
4.19
4.33
1.69
-2.24
-5.24
-5.62
-3.25
0.35
2.91
2.79
0.01
-3.73
-6.07
-5.40
-1.89
2.62
5.61
5.48
2.43
-1.65
-4.30
-4.00
-1.02
2.73
4.88
4.10
0.81
-3.00
-5.05
-4.12
-0.76
3.02
5.02
4.10
0.91
-2.54
-4.11
-2.82
0.57
3.99
5.32
3.63
-0.19
-3.97
-5.54
-3.97
-0.19
3.59
5.17
3.69
0.10
-3.39
-4.66
-2.97
0.65
4.00
5.05
3.18
-0.49
-3.75
-4.64
-2.61
1.15
4.41
5.26
3.17
-0.69
-4.13
-5.26
-3.56
-0.13
2.96
3.90
2.20
-1.01
-3.77
-4.34
-2.30
1.25
4.31
5.14
3.27
-0.22
-3.37
-4.41
-2.80
0.46
3.48
4.49
2.95
-0.22
-3.13
-4.10
-2.55
0.58
3.44
4.36
2.79
-0.35
-3.24
-4.27
-2.94
-0.18
2.26
2.86
1.32
-1.28
-3.16
-2.89
-0.41
2.94
5.15
4.71
1.61
-2.62
-5.74
-6.05
-3.42
0.68
3.92
4.51
2.16
-1.75
-4.93
-5.53
-3.15
0.88
4.37
5.38
3.45
-0.29
-3.70
-4.91
-3.37
-0.12
2.86
3.90
2.53
-0.13
-2.17
-2.08
0.32
3.65
5.80
5.23
1.90
-2.58
-5.88
-6.24
-3.53
0.70
4.12
4.96
2.98
-0.49
-3.35
-4.02
-2.31
0.50
2.57
2.53
0.42
-2.42
-4.15
-3.52
-0.69
2.84
5.09
4.76
2.01
-1.58
-3.93
-3.68
-0.99
2.53
4.77
4.34
1.44
-2.34
-4.82
-4.58
-1.71
2.23
5.09
5.39
3.09
-0.38
-3.03
-3.46
-1.68
0.97
2.63
2.11
-0.36
-3.26
-4.69
-3.55
-0.29
3.31
5.17
4.19
0.91
-2.73
-4.58
-3.52
-0.16
3.51
5.28
4.04
0.40
-3.65
-5.87
-5.10
-1.87
1.90
4.03
3.28
0.13
-3.59
-5.71
-5.01
-1.90
1.80
3.90
3.19
0.05
-3.66
-5.72
-4.83
-1.37
2.80
5.40
5.04
1.98
-2.04
-4.79
-4.83
-2.29
1.30
3.87
4.09
2.06
-0.79
-2.63
-2.30
-0.02
2.74
4.24
3.48
0.93
-1.84
-3.05
-1.86
1.12
4.11
5.28
3.83
0.58
-2.57
-3.73
-2.19
1.14
4.23
5.15
3.23
-0.50
-3.95
-5.15
-3.45
0.11
3.38
4.38
2.44
-1.36
-4.83
-5.95
-4.02
-0.13
3.48
4.76
2.98
-0.78
-4.24
-5.32
-3.33
0.61
4.20
5.33
3.34
-0.61
-4.19
-5.30
-3.33
0.52
3.90
4.75
2.53
-1.47
-4.88
-5.68
-3.39
0.62
3.97
4.71
2.44
-1.41
-4.48
-4.86
-2.27
1.78
4.94
5.35
2.80
-1.16
-4.20
-4.55
-2.05
1.77
4.63
4.86
2.34
-1.44
-4.28
-4.56
-2.17
1.47
4.26
4.61
2.40
-1.08
-3.81
-4.26
-2.24
1.03
3.64
4.09
2.15
-1.00
-3.47
-3.73
-1.50
2.01
4.84
5.31
3.05
-0.78
-4.07
-5.01
-3.11
0.44
3.49
4.17
2.06
-1.59
-4.57
-5.09
-2.87
0.69
3.36
3.53
1.16
-2.15
-4.19
-3.53
-0.37
3.54
5.98
5.59
2.63
-1.19
-3.75
-3.75
-1.40
1.75
3.72
3.33
0.78
-2.45
-4.48
-4.11
-1.54
1.78
4.00
3.85
1.46
-1.79
-4.01
-3.94
-1.62
1.57
3.74
3.58
1.16
-2.11
-4.29
-4.04
-1.40
2.20
4.71
4.73
2.23
-1.33
-3.87
-3.90
-1.39
2.21
4.81
4.94
2.54
-0.95
-3.48
-3.62
-1.37
1.84
3.97
3.66
0.97
-2.61
-5.02
-4.86
-2.22
1.41
3.93
3.95
1.53
-1.87
-4.22
-4.18
-1.82
1.38
3.48
3.23
0.77
-2.40
-4.37
-3.93
-1.31
1.98
4.00
3.54
0.87
-2.47
-4.50
-4.02
-1.28
2.14
4.25
3.85
1.21
-2.10
-4.08
-3.55
-0.81
2.53
4.47
3.86
1.03
-2.36
-4.30
-3.60
-0.61
2.97
5.07
4.48
1.53
-2.07
-4.26
-3.78
-0.97
2.48
4.52
3.95
1.13
-2.22
-4.10
-3.37
-0.47
2.84
4.54
3.55
0.33
-3.32
-5.38
-4.78
-1.98
1.27
3.02
2.30
-0.38
-3.28
-4.58
-3.42
-0.44
2.61
3.91
2.69
-0.31
-3.33
-4.58
-3.31
-0.26
2.79
4.06
2.85
-0.07
-2.93
-3.97
-2.48
0.77
3.98
5.37
4.21
1.21
-1.88
-3.32
-2.39
0.25
2.94
4.04
2.90
0.22
-2.40
-3.42
-2.25
0.38
2.90
3.81
2.59
-0.01
-2.42
-3.17
-1.81
0.85
3.19
3.74
2.09
-0.89
-3.46
-4.12
-2.44
0.66
3.37
4.11
2.45
-0.67
-3.40
-4.14
-2.44
0.68
3.34
3.88
1.88
-1.59
-4.55
-5.29
-3.33
0.23
3.41
4.45
2.85
-0.34
-3.20
-4.04
-2.44
0.57
3.13
3.69
1.99
-0.83
-2.96
-2.99
-0.87
2.09
4.00
3.57
0.88
-2.55
-4.74
-4.36
-1.63
1.85
3.97
3.40
0.38
-3.43
-5.85
-5.46
-2.41
1.70
4.74
5.26
3.32
0.35
-1.70
-1.60
0.45
2.95
4.03
2.68
-0.63
-4.09
-5.69
-4.35
-0.68
3.36
5.52
4.57
1.04
-3.12
-5.60
-5.07
-1.89
2.13
4.77
4.69
2.18
-1.10
-3.11
-2.68
-0.16
2.76
4.12
2.90
-0.35
-3.79
-5.42
-4.25
-0.96
2.53
4.18
3.06
-0.10
-3.36
-4.75
-3.46
-0.29
2.81
3.97
2.55
-0.52
-3.27
-3.93
-1.99
1.45
4.36
4.98
2.90
-0.69
-3.74
-4.48
-2.52
1.00
4.05
4.92
3.21
-0.02
-2.88
-3.72
-2.14
0.89
3.58
4.36
2.79
-0.24
-3.03
-4.03
-2.71
0.16
2.95
4.11
3.04
0.43
-2.15
-3.15
-1.96
0.75
3.37
4.32
2.94
-0.10
-3.15
-4.50
-3.40
-0.48
2.59
4.00
2.91
-0.12
-3.37
-4.97
-3.96
-0.85
2.62
4.50
3.69
0.64
-2.99
-5.20
-4.84
-2.27
0.89
2.72
2.17
-0.31
-3.02
-4.08
-2.59
0.76
4.03
5.25
3.61
0.05
-3.30
-4.43
-2.64
0.96
4.15
4.94
2.83
-0.92
-4.05
-4.71
-2.51
1.22
4.29
4.96
2.93
-0.52
-3.36
-3.98
-2.11
1.07
3.62
4.03
2.04
-1.17
-3.70
-4.02
-1.88
1.44
3.93
3.99
1.43
-2.38
-5.27
-5.57
-3.11
0.67
3.58
3.98
1.77
-1.63
-4.09
-4.06
-1.49
2.22
5.00
5.33
3.11
-0.35
-3.07
-3.57
-1.68
1.30
3.49
3.43
1.10
-2.15
-4.36
-4.17
-1.68
1.59
3.60
3.02
0.06
-3.61
-5.85
-5.28
-2.09
2.05
5.00
5.33
3.15
-0.01
-2.13
-1.91
0.46
3.45
5.08
4.15
0.93
-2.92
-5.33
-4.98
-2.11
1.66
4.23
4.21
1.72
-1.71
-4.06
-4.01
-1.68
1.37
3.15
2.43
-0.50
-3.92
-5.76
-4.83
-1.58
2.12
4.15
3.38
0.41
-2.86
-4.36
-3.09
0.30
3.93
5.81
5.02
2.15
-1.08
-2.83
-2.24
0.21
2.95
4.31
3.40
0.68
-2.39
-4.13
-3.60
-1.18
1.66
3.20
2.47
-0.16
-3.14
-4.63
-3.62
-0.55
2.88
4.69
3.78
0.66
-2.85
-4.67
-3.72
-0.58
2.84
4.40
3.12
-0.28
-3.75
-5.16
-3.61
0.02
3.58
4.93
3.25
-0.46
-3.99
-5.22
-3.41
0.38
3.97
5.30
3.66
0.06
-3.35
-4.61
-3.00
0.52
3.95
5.40
4.17
1.14
-1.82
-2.97
-1.69
1.17
3.83
4.67
3.16
0.20
-2.45
-3.26
-1.85
0.80
2.94
3.10
1.02
-2.16
-4.56
-4.67
-2.28
1.33
4.11
4.39
1.93
-1.95
-5.09
-5.70
-3.46
0.34
3.51
4.21
2.06
-1.72
-4.96
-5.83
-3.88
-0.28
2.90
3.93
2.41
-0.47
-2.69
-2.68
-0.30
3.05
5.21
4.63
1.31
-3.09
-6.21
-6.28
-3.20
1.42
5.16
6.15
4.11
0.43
-2.69
-3.53
-1.84
1.05
3.09
2.78
0.10
-3.42
-5.63
-5.02
-1.72
2.59
5.54
5.49
2.47
-1.86
-5.13
-5.58
-3.03
1.06
4.48
5.49
3.79
0.62
-2.03
-2.61
-0.93
1.80
3.70
3.40
0.92
-2.31
-4.33
-3.82
-0.95
2.66
4.90
4.46
1.59
-1.97
-4.07
-3.41
-0.34
3.32
5.36
4.51
1.23
-2.56
-4.60
-3.64
-0.21
3.67
5.70
4.59
0.88
-3.38
-5.81
-5.11
-1.77
2.13
4.23
3.21
-0.42
-4.59
-6.90
-6.01
-2.43
1.76
4.14
3.38
-0.04
-4.04
-6.21
-5.23
-1.62
2.55
4.90
4.13
0.79
-3.07
-5.12
-4.14
-0.75
3.01
4.89
3.84
0.56
-2.89
-4.39
-2.99
0.46
3.89
5.24
3.71
0.21
-3.19
-4.50
-2.99
0.41
3.66
4.87
3.37
0.10
-2.97
-4.02
-2.43
0.86
3.91
4.98
3.51
0.41
-2.45
-3.38
-1.85
1.20
3.94
4.71
3.01
-0.24
-3.20
-4.17
-2.60
0.61
3.61
4.62
3.01
-0.38
-3.67
-5.01
-3.67
-0.43
2.85
4.31
3.16
0.12
-2.96
-4.26
-2.99
0.08
3.11
4.24
2.77
-0.49
-3.61
-4.76
-3.25
-0.05
2.85
3.58
1.60
-1.93
-4.88
-5.39
-3.08
0.69
3.62
3.89
1.27
-2.71
-5.69
-5.87
-3.09
1.09
4.33
4.98
2.92
-0.38
-2.80
-2.88
-0.64
2.52
4.67
4.55
2.26
-0.80
-2.82
-2.60
-0.27
2.78
4.75
4.43
1.93
-1.37
-3.59
-3.46
-1.01
2.37
4.68
4.48
1.70
-2.21
-5.11
-5.38
-2.82
1.10
4.18
4.73
2.58
-0.82
-3.36
-3.51
-1.31
1.69
3.42
2.66
-0.24
-3.51
-5.11
-3.98
-0.69
2.90
4.76
3.90
0.90
-2.47
-4.25
-3.42
-0.48
2.88
4.74
4.03
1.13
-2.33
-4.43
-4.04
-1.51
1.50
3.08
2.12
-0.87
-4.10
-5.60
-4.37
-1.09
2.32
3.82
2.52
-0.75
-3.98
-5.18
-3.57
-0.05
3.35
4.68
3.26
-0.01
-3.15
-4.31
-2.82
0.44
3.57
4.75
3.34
0.16
-2.93
-4.16
-2.86
0.19
3.19
4.45
3.32
0.56
-2.11
-3.09
-1.76
1.08
3.78
4.74
3.40
0.55
-2.16
-3.21
-2.04
0.56
2.95
3.60
2.04
-0.91
-3.52
-4.24
-2.57
0.61
3.52
4.53
3.11
0.15
-2.58
-3.49
-2.11
0.63
2.94
3.28
1.32
-1.87
-4.40
-4.71
-2.47
1.14
4.16
4.94
3.13
-0.11
-2.87
-3.55
-1.87
1.07
3.41
3.72
1.84
-1.04
-3.14
-3.17
-1.12
1.72
3.55
3.14
0.62
-2.63
-4.74
-4.45
-1.81
1.81
4.50
4.88
2.82
-0.45
-3.12
-3.76
-2.17
0.60
2.83
3.15
1.30
-1.67
-4.03
-4.38
-2.44
0.74
3.36
3.90
2.05
-1.07
-3.60
-3.97
-1.91
1.34
3.77
3.73
1.04
-2.89
-5.82
-6.05
-3.45
0.44
3.30
3.50
1.07
-2.30
-4.35
-3.64
-0.46
3.34
5.51
4.78
1.64
-1.98
-3.90
-3.02
0.05
3.41
5.01
3.87
0.68
-2.69
-4.26
-3.11
0.11
3.58
5.31
4.33
1.19
-2.33
-4.25
-3.58
-0.87
2.08
3.29
1.85
-1.53
-4.89
-6.18
-4.50
-0.68
3.19
4.96
3.70
0.21
-3.41
-5.05
-3.72
-0.15
3.66
5.63
4.77
1.71
-1.63
-3.26
-2.23
0.76
3.82
4.99
3.47
0.12
-3.08
-4.19
-2.54
0.89
4.04
4.99
3.13
-0.50
-3.83
-4.93
-3.16
0.48
3.95
5.27
3.71
0.14
-3.43
-5.00
-3.74
-0.52
2.65
3.79
2.13
-1.37
-4.63
-5.68
-3.87
-0.30
2.89
3.78
1.86
-1.70
-4.72
-5.29
-2.92
1.14
4.71
5.85
4.08
0.56
-2.54
-3.38
-1.52
1.82
4.50
4.77
2.32
-1.47
-4.42
-4.83
-2.47
1.23
4.12
4.56
2.40
-1.01
-3.60
-3.87
-1.69
1.55
3.85
3.76
1.19
-2.44
-5.10
-5.32
-3.04
0.35
2.84
2.98
0.76
-2.39
-4.45
-3.99
-1.08
2.76
5.40
5.36
2.69
-1.07
-3.74
-3.82
-1.31
2.24
4.68
4.49
1.72
-2.05
-4.63
-4.50
-1.74
2.06
4.67
4.58
1.91
-1.71
-4.08
-3.78
-1.01
2.49
4.54
3.80
0.61
-3.17
-5.34
-4.58
-1.30
2.69
5.17
4.87
2.18
-1.17
-3.13
-2.57
0.05
2.97
4.21
2.73
-0.86
-4.66
-6.53
-5.35
-1.71
2.42
4.81
4.24
1.21
-2.39
-4.47
-3.90
-1.14
2.05
3.73
2.93
0.23
-2.60
-3.71
-2.28
1.00
4.29
5.68
4.37
1.06
-2.42
-4.20
-3.45
-0.87
1.78
2.74
1.27
-1.81
-4.66
-5.49
-3.64
-0.03
3.37
4.65
3.12
-0.30
-3.57
-4.71
-3.04
0.50
3.82
4.97
3.30
-0.18
-3.33
-4.23
-2.32
1.23
4.25
4.82
2.50
-1.43
-4.66
-5.27
-2.83
1.27
4.69
5.47
3.19
-0.81
-4.18
-4.96
-2.67
1.39
4.93
5.94
3.92
0.03
-3.48
-4.65
-2.85
0.78
4.11
5.16
3.35
-0.25
-3.52
-4.59
-2.93
0.31
3.06
3.57
1.46
-1.99
-4.68
-4.94
-2.57
1.03
3.70
3.78
1.15
-2.72
-5.59
-5.80
-3.16
0.85
4.00
4.55
2.25
-1.54
-4.63
-5.27
-3.15
0.43
3.31
3.78
1.54
-2.11
-5.07
-5.70
-3.79
-0.63
1.74
1.82
-0.50
-3.82
-6.15
-6.10
-3.77
-0.71
1.03
0.09
-3.33
-7.57
-10.44
-10.50
-7.84
-4.05
-1.31
-1.20
-3.79
-7.68
-10.84
-11.82
-10.57
-8.36
-7.03
-7.85
-10.77
-14.50
-17.21
-17.54
-15.31
-11.47
-7.45
-4.41
-2.63
-1.53
-0.07
2.71
7.41
14.07
22.28
31.16
39.38
45.15
46.36
41.05
28.30
9.42
-11.30
-27.04
-30.62
-17.48
11.82
50.83
89.35
117.30
128.37
121.71
101.79
76.41
54.27
42.71
45.85
62.65
86.24
105.31
108.07
87.73
47.14
-0.82
-37.97
-49.09
-29.66
10.98
52.96
74.30
60.15
8.73
-68.67
-152.94
-224.69
-270.20
-284.15
-268.35
-228.83
-173.34
-110.22
-48.17
4.11
39.39
54.13
50.02
33.56
13.43
-3.25
-14.14
-22.51
-34.50
-54.73
-83.11
-113.35
-134.89
-136.63
-111.11
-57.48
17.78
102.49
182.60
246.03
285.90
301.80
298.85
284.98
267.30
250.75
236.18
221.91
205.49
185.30
161.05
132.90
100.80
64.46
23.98
-19.31
-62.22
-100.42
-129.67
-147.50
-153.93
-151.05
-142.07
-130.27
-118.75
-110.64
-109.68
-119.85
-143.53
-178.93
-218.44
-249.98
-261.44
-246.85
-210.62
-167.34
-135.86
-130.44
-153.79
-195.44
-236.83
-259.99
-255.07
-222.88
-171.93
-112.66
-53.14
1.59
47.75
80.98
97.14
95.08
79.47
60.72
51.19
59.59
86.75
125.48
164.54
193.96
209.08
211.18
205.02
195.55
185.58
175.52
164.63
152.27
138.42
123.22
105.79
83.51
52.59
9.95
-44.14
-104.28
-160.10
-199.01
-210.43
-190.13
-142.40
-78.97
-15.02
36.04
66.52
75.73
68.15
50.08
26.57
0.28
-27.69
-55.86
-81.00
-98.36
-103.31
-93.52
-70.41
-38.91
-5.77
22.63
41.95
50.66
49.71
41.95
31.07
20.92
14.81
14.93
21.83
34.17
48.82
61.61
68.44
66.59
55.71
38.02
17.67
-0.62
-13.11
-18.12
-16.23
-9.49
-0.24
9.84
20.00
29.89
38.89
45.76
49.04
47.92
42.98
36.26
30.42
27.41
27.23
27.88
26.18
19.65
8.08
-6.01
-18.33
-24.79
-23.59
-16.14
-6.68
-0.54
-1.90
-12.17
-29.55
-49.74
-67.65
-78.96
-81.10
-73.51
-57.31
-34.75
-8.86
16.87
38.93
54.35
61.35
59.88
51.53
39.26
26.65
17.22
13.78
18.02
29.93
47.62
67.33
84.06
92.88
90.59
77.13
55.97
33.23
15.69
8.63
14.15
30.72
53.71
76.62
92.62
96.27
85.22
61.79
33.29
10.30
3.08
17.10
49.98
91.69
128.06
145.76
136.60
99.10
37.54
-40.25
-124.83
-206.33
-275.37
-324.29
-348.85
-349.54
-331.45
-302.23
-269.26
-237.09
-206.34
-174.20
-136.31
-88.96
-31.05
34.97
103.38
166.69
217.79
252.19
269.23
271.78
264.90
254.01
243.32
235.15
229.98
226.96
224.58
221.17
215.35
206.08
192.78
175.05
152.48
124.65
91.14
51.44
4.66
-50.32
-113.88
-184.32
-256.63
-322.74
-373.39
-401.17
-403.14
-381.61
-342.38
-292.20
-236.22
-177.37
-117.81
-60.50
-10.07
28.48
52.38
62.80
64.32
62.19
59.32
54.89
45.61
28.22
2.30
-28.78
-58.73
-80.21
-86.94
-75.01
-43.85
3.29
59.06
113.15
154.10
172.36
163.07
127.78
74.19
13.77
-40.94
-79.77
-96.72
-90.54
-64.42
-24.33
22.49
68.91
108.75
137.13
150.44
147.36
129.95
104.36
79.55
63.91
61.80
71.28
85.06
93.16
86.66
60.47
14.33
-47.98
-120.41
-195.46
-265.00
-320.87
-357.21
-372.23
-369.32
-355.77
-337.91
-320.80
-305.69
-293.29
-280.76
-264.97
-242.58
-212.21
-173.48
-126.41
-72.21
-13.77
43.92
94.87
133.28
156.19
164.61
163.22
158.03
153.30
150.44
148.63
147.19
146.79
149.54
157.30
169.75
183.47
192.78
192.38
180.14
158.63
134.14
114.12
103.75
103.33
107.55
107.11
92.48
58.41
7.06
-51.86
-104.22
-136.54
-140.83
-117.25
-73.45
-21.13
28.02
65.47
86.82
91.06
79.33
54.16
19.58
-18.49
-52.55
-75.02
-80.69
-68.69
-43.06
-11.46
17.83
38.58
48.31
48.19
41.78
33.49
27.36
26.25
31.31
41.37
52.64
59.36
55.66
38.13
8.13
-27.65
-58.95
-75.80
-72.23
-48.72
-11.97
27.62
59.68
77.15
78.10
65.87
47.72
32.38
27.09
34.90
52.94
72.95
84.51
79.83
58.00
26.36
-2.19
-15.00
-5.62
23.18
60.64
93.03
109.20
104.22
79.68
41.30
-4.22
-51.11
-95.03
-132.93
-162.34
-181.53
-189.75
-187.23
-175.15
-155.20
-129.60
-101.09
-72.62
-46.65
-23.97
-3.10
19.39
46.83
80.02
115.56
145.89
161.34
153.45
118.19
58.30
-16.61
-92.24
-153.38
-188.35
-192.50
-169.40
-129.34
-85.59
-49.73
-27.85
-19.33
-17.84
-14.35
-0.93
26.42
66.39
112.94
157.32
190.46
205.62
200.13
176.37
141.00
103.15
71.51
51.67
44.58
46.89
52.98
57.64
57.70
52.15
40.66
21.89
-6.72
-47.02
-97.31
-150.18
-193.38
-213.91
-203.89
-165.20
-109.96
-56.23
-20.48
-10.60
-22.81
-44.22
-59.47
-58.26
-39.75
-11.85
13.71
27.71
27.88
19.21
10.48
9.29
18.05
32.74
44.75
44.54
26.02
-10.57
-57.68
-102.77
-132.52
-137.71
-116.89
-77.02
-30.90
8.07
31.28
37.80
33.53
26.93
24.27
26.76
31.56
35.09
36.56
38.70
45.81
60.34
80.58
101.17
115.65
119.53
111.68
93.77
68.76
39.97
11.28
-12.50
-25.96
-25.45
-11.64
9.05
26.18
29.78
15.24
-13.90
-47.14
-71.72
-78.70
-67.27
-45.06
-24.03
-14.14
-18.10
-30.16
-39.65
-37.27
-20.80
3.23
22.72
26.30
9.19
-24.30
-62.78
-93.03
-105.37
-96.83
-71.09
-35.76
0.75
31.57
52.13
59.81
53.44
33.10
0.55
-40.00
-81.71
-115.79
-133.43
-128.85
-102.04
-59.70
-13.48
24.40
46.10
50.98
44.95
36.38
31.34
30.93
32.36
32.90
33.26
38.30
53.98
82.51
119.42
154.21
174.30
170.13
138.72
84.40
17.31
-49.49
-103.19
-133.71
-136.00
-110.90
-65.13
-9.66
43.05
81.81
98.99
91.59
61.47
14.63
-39.92
-92.07
-133.05
-157.68
-165.47
-159.92
-146.34
-129.35
-111.65
-94.14
-77.39
-62.85
-52.81
-49.32
-52.63
-60.38
-68.13
-70.98
-65.12
-48.76
-22.45
11.22
47.98
82.54
109.71
125.84
129.88
123.89
112.09
99.06
88.07
80.27
75.21
71.99
70.12
69.57
69.91
69.77
67.23
61.13
52.23
43.20
37.20
35.61
36.54
35.37
27.42
11.38
-9.01
-26.27
-33.27
-27.73
-13.99
-0.75
4.31
-0.59
-9.91
-14.04
-5.54
16.20
44.23
68.03
79.50
77.14
66.01
53.92
46.39
44.19
44.23
42.89
39.32
36.15
37.32
44.61
55.25
62.34
57.92
37.32
2.10
-39.82
-77.34
-101.05
-107.46
-100.42
-89.22
-83.96
-90.70
-108.66
-130.76
-147.20
-149.89
-135.77
-107.38
-71.01
-33.91
-1.85
21.96
37.05
45.41
50.92
58.35
71.67
92.08
116.77
139.49
153.27
153.62
140.67
118.63
93.34
69.42
48.85
31.93
18.97
11.40
11.11
18.37
29.88
38.55
35.65
14.55
-25.64
-79.28
-135.78
-183.61
-214.39
-225.26
-218.22
-197.44
-166.32
-126.34
-78.58
-26.58
21.36
53.31
58.07
31.11
-21.43
-83.10
-132.26
-149.97
-126.93
-66.77
15.51
99.35
165.40
200.85
201.50
170.88
117.78
53.56
-9.74
-60.84
-90.36
-92.95
-69.16
-26.13
24.13
68.42
96.93
106.43
100.57
87.10
73.47
63.64
56.88
49.46
37.56
19.90
-1.49
-22.35
-38.41
-47.36
-49.36
-46.18
-39.80
-31.44
-21.40
-10.01
1.58
11.19
16.39
15.67
9.41
-0.15
-9.79
-16.71
-19.64
-19.17
-17.14
-15.55
-15.48
-16.75
-18.22
-18.61
-17.39
-15.03
-12.69
-11.44
-11.50
-12.18
-12.45
-11.80
-10.79
-10.83
-13.26
-18.23
-24.25
-28.68
-29.04
-24.63
-17.01
-9.51
-5.53
-6.73
-12.00
-17.95
-20.48
-16.83
-6.95
6.59
20.02
30.14
35.73
37.74
38.08
38.26
38.36
37.20
33.62
27.87
22.26
20.09
23.85
33.28
45.04
54.18
56.73
52.07
43.36
35.85
33.79
37.90
44.84
49.26
47.21
38.66
27.77
20.43
20.58
27.70
36.67
40.44
33.89
16.65
-6.54
-28.21
-41.93
-45.41
-41.16
-34.76
-31.63
-34.27
-41.34
-49.02
-53.48
-53.30
-50.05
-46.91
-46.26
-47.81
-48.41
-43.98
-32.29
-14.68
3.94
17.42
21.52
16.13
5.38
-4.40
-7.96
-3.57
6.45
17.26
24.20
25.13
21.06
15.10
10.50
8.81
9.46
10.53
10.35
8.60
6.59
6.30
9.11
14.89
21.91
27.74
30.50
29.75
26.55
22.86
20.47
20.15
21.48
23.28
24.30
24.00
22.69
21.39
21.25
22.90
26.07
29.77
32.79
34.59
35.77
37.78
41.86
47.58
52.27
51.79
42.52
23.40
-3.28
-32.89
-60.66
-83.76
-101.80
-115.73
-125.96
-131.40
-130.03
-120.68
-104.45
-84.76
-65.87
-50.70
-39.63
-30.77
-21.55
-10.42
2.19
14.21
23.01
26.78
25.48
21.06
16.83
16.34
21.92
33.63
49.12
64.64
76.97
85.13
90.61
96.05
102.79
109.15
110.79
103.29
85.51
61.30
38.41
24.90
25.00
36.90
53.50
65.55
65.43
49.71
19.75
-19.10
-59.16
-92.00
-110.33
-109.80
-90.79
-59.09
-24.96
-0.09
6.41
-8.68
-41.45
-82.41
-119.74
-143.14
-146.34
-128.13
-91.73
-43.15
10.73
63.80
111.65
151.82
182.95
204.37
215.52
216.26
207.30
190.25
167.27
140.13
109.89
76.99
41.86
5.24
-31.82
-68.23
-102.97
-134.30
-159.36
-173.92
-173.66
-156.41
-124.28
-83.87
-43.79
-11.28
10.80
24.03
31.98
36.42
35.65
25.49
2.77
-30.90
-68.41
-99.21
-114.30
-110.34
-90.94
-64.17
-37.82
-15.34
4.50
25.22
48.48
71.30
86.50
86.09
65.85
28.73
-15.54
-54.26
-77.32
-81.82
-73.80
-65.96
-72.15
-101.52
-154.44
-221.90
-289.23
-341.48
-368.21
-365.97
-337.88
-291.58
-236.72
-183.08
-138.81
-109.21
-95.05
-92.21
-93.18
-89.79
-76.96
-54.16
-24.77
6.69
37.08
65.59
92.47
117.14
137.51
150.92
156.57
156.91
157.11
162.25
174.67
192.29
209.72
221.24
223.38
216.17
202.34
185.62
169.03
154.01
140.35
126.92
112.70
97.27
81.10
65.31
51.16
39.49
30.43
23.42
17.56
12.08
6.56
1.03
-4.16
-8.60
-12.06
-14.56
-16.33
-17.70
-18.87
-19.94
-20.83
-21.44
-21.70
-21.66
-21.40
-21.06
-20.74
-20.41
-20.04
-19.53
-18.86
-18.05
-17.16
-16.26
-15.41
-14.64
-13.92
-13.21
-12.50
-11.79
-11.08
-10.39
-9.72
-9.09
-8.49
-7.93
-7.42
-6.89
-6.37
-5.89
-5.45
-5.04
-4.67
-4.33
-4.02
-3.74
-3.48
-3.24
-3.04
-2.85
-2.67
-2.51
-2.35
-2.21
-2.06
-1.92
-1.78
-1.65
-1.52
-1.38
-1.24
-1.09
-0.94
-0.78
-0.63
-0.47
-0.32
-0.17
-0.02
0.12
0.27
0.43
0.59
0.75
0.93
1.12
1.31
1.53
1.76
2.02
2.30
2.62
2.96
3.36
3.79
4.26
4.78
5.35
5.98
6.68
7.44
8.28
9.20
10.17
11.23
12.36
13.59
14.89
16.30
17.79
19.39
21.10
22.87
24.73
26.68
28.74
30.90
33.20
35.63
38.18
40.86
43.54
46.17
48.65
50.77
52.32
53.00
52.52
50.65
47.25
42.16
35.45
27.33
18.07
8.01
-2.48
-13.01
-23.19
-32.06
-39.64
-45.68
-50.03
-52.69
-53.85
-53.81
-52.92
-51.88
-50.64
-49.36
-47.98
-46.39
-44.59
-42.72
-41.04
-39.88
-39.45
-39.68
-40.41
-41.17
-41.45
-41.09
-40.31
-39.66
-39.80
-41.23
-43.88
-47.26
-50.42
-52.39
-52.70
-51.60
-49.98
-48.91
-49.14
-50.62
-52.46
-53.61
-52.45
-48.20
-41.14
-32.30
-23.01
-14.53
-7.95
-4.30
-4.14
-6.73
-9.77
-9.51
-2.22
13.78
36.63
61.06
80.30
89.00
85.32
71.77
53.35
34.87
19.01
5.97
-5.36
-16.00
-25.88
-34.09
-39.81
-43.05
-44.69
-46.03
-48.34
-52.10
-57.02
-62.31
-66.59
-68.58
-67.32
-62.29
-53.64
-42.15
-28.69
-14.43
-0.27
13.35
26.60
39.97
54.06
68.61
82.39
93.22
98.70
97.36
89.38
76.90
63.47
52.94
47.83
49.35
57.15
69.94
85.41
100.23
109.94
108.52
93.55
66.31
32.72
1.32
-19.62
-25.76
-17.86
-0.98
18.74
36.99
52.23
65.62
78.51
90.73
99.79
101.84
93.69
75.00
49.16
21.20
-1.44
-14.85
-20.09
-22.36
-27.88
-39.72
-55.80
-69.42
-73.24
-63.14
-41.37
-15.41
5.70
15.01
11.40
-0.85
-14.77
-24.83
-29.06
-29.33
-29.06
-30.63
-34.10
-37.43
-38.21
-35.24
-29.23
-22.15
-16.55
-13.97
-14.39
-16.45
-18.17
-17.98
-15.46
-11.34
-7.01
-3.90
-2.71
-3.22
-4.49
-5.37
-5.09
-3.67
-1.52
0.59
1.97
2.36
1.91
1.11
0.50
0.38
0.79
1.48
2.14
2.48
2.44
2.09
1.61
1.17
0.84
0.62
0.43
0.18
-0.21
-0.75
-1.44
-2.25
-3.16
-4.17
-5.30
-6.55
-7.92
-9.44
-11.11
-12.95
-14.94
-17.12
-19.49
-22.06
-24.85
-27.86
-31.12
-34.62
-38.39
-42.42
-46.73
-51.31
-56.19
-61.35
-66.72
-72.21
-77.70
-82.95
-87.68
-91.60
-94.37
-95.64
-95.03
-92.20
-86.87
-78.86
-68.32
-55.23
-39.72
-22.08
-2.74
17.71
38.61
59.23
78.81
96.59
111.95
124.36
133.47
139.16
141.57
141.04
138.13
133.53
127.99
122.28
117.07
112.81
109.69
107.65
106.30
105.09
103.17
99.65
93.65
84.45
71.53
54.65
33.95
9.58
-17.65
-46.74
-76.63
-106.30
-134.85
-161.54
-185.79
-207.05
-224.93
-239.05
-249.07
-254.66
-255.42
-251.03
-241.29
-226.69
-207.52
-184.26
-157.61
-128.46
-97.79
-66.62
-35.90
-6.55
20.58
44.85
65.70
82.87
96.36
106.49
113.80
118.88
122.17
123.87
123.97
122.25
118.59
113.15
106.42
99.22
92.39
86.56
81.90
78.23
75.09
72.21
69.65
67.90
67.81
70.33
76.29
86.12
99.59
115.54
131.93
146.15
155.58
158.36
153.77
142.21
124.83
102.97
77.46
49.13
18.79
-12.54
-43.45
-71.96
-95.44
-110.72
-114.79
-105.89
-84.78
-55.47
-24.57
0.67
14.78
15.75
5.23
-12.78
-33.80
-54.07
-70.73
-81.20
-82.84
-73.64
-53.73
-26.48
1.69
23.37
32.97
28.93
14.02
-6.28
-26.32
-42.30
-53.01
-58.85
-60.60
-58.49
-52.24
-41.63
-27.21
-10.41
6.84
22.71
36.07
46.53
54.27
59.70
63.10
64.58
64.04
61.44
56.96
51.07
44.53
38.12
32.44
27.74
23.94
20.74
17.80
14.93
12.15
9.69
7.84
6.75
6.44
6.72
7.32
8.01
8.66
9.22
9.83
10.62
11.60
12.67
13.55
13.82
13.03
10.73
6.43
-0.14
-9.10
-20.59
-34.62
-50.92
-68.95
-87.94
-106.85
-124.60
-139.83
-151.18
-157.49
-157.94
-152.15
-140.33
-123.23
-101.29
-76.52
-51.02
-26.64
-4.83
13.49
27.88
38.34
45.19
48.98
50.27
49.80
48.26
46.15
43.84
41.52
39.29
37.16
35.14
33.08
31.01
28.95
26.93
24.95
23.02
21.17
19.43
17.82
16.29
14.85
13.48
12.23
11.03
9.86
8.75
7.78
6.98
6.36
5.86
5.43
4.95
4.35
3.62
2.90
2.34
2.12
2.30
2.77
3.31
3.61
3.46
2.88
2.13
1.67
1.91
3.02
4.78
6.63
7.91
8.14
7.30
5.95
4.97
5.15
6.84
9.67
12.68
14.75
15.13
13.79
11.61
9.92
9.68
11.25
13.94
16.40
17.22
15.19
9.39
-0.64
-14.83
-31.87
-48.72
-61.05
-64.59
-57.16
-39.79
-17.77
2.35
15.32
19.31
16.06
9.31
2.59
-2.44
-5.90
-8.75
-11.36
-13.24
-13.49
-11.83
-8.98
-6.40
-5.42
-6.66
-9.52
-12.54
-14.29
-14.06
-12.27
-10.22
-9.35
-10.49
-13.40
-16.91
-19.50
-20.15
-18.86
-16.77
-15.31
-15.71
-18.15
-21.71
-24.79
-25.57
-22.38
-13.93
-0.00
18.12
37.05
51.81
57.33
50.82
33.48
10.29
-11.08
-24.35
-27.14
-21.47
-11.95
-3.03
3.07
6.71
9.40
12.26
15.01
16.38
15.22
11.42
6.10
0.97
-2.25
-2.84
-1.22
1.27
2.98
2.66
-0.11
-4.75
-9.94
-14.24
-16.60
-16.74
-15.31
-13.62
-13.09
-14.70
-18.61
-24.05
-29.63
-33.87
-35.98
-35.98
-34.76
-33.66
-33.80
-35.80
-39.95
-46.32
-54.65
-63.64
-70.52
-71.30
-62.23
-41.86
-12.43
20.36
49.51
69.56
78.69
78.91
74.31
68.66
63.80
59.59
55.09
49.89
44.64
40.58
38.55
38.33
38.81
38.61
36.72
33.12
28.60
24.36
21.36
19.96
19.86
20.29
20.51
20.01
18.81
17.23
15.68
14.43
13.55
13.02
12.81
13.03
13.81
15.19
16.94
18.54
19.41
19.17
18.02
16.71
16.32
17.72
21.13
25.83
30.41
33.50
34.18
32.63
29.95
27.77
27.67
30.74
37.41
46.88
56.84
63.43
62.21
49.93
26.44
-4.52
-36.51
-62.69
-78.85
-84.78
-83.89
-81.01
-80.25
-83.43
-89.77
-96.79
-101.18
-99.87
-90.88
-74.22
-51.94
-28.48
-8.42
5.30
12.05
13.46
12.01
9.67
6.98
3.78
0.03
-3.46
-5.28
-4.38
-0.84
4.01
8.19
10.08
9.07
5.93
2.30
-0.13
-0.39
1.45
4.40
7.07
8.33
7.75
5.76
3.34
1.60
1.20
2.18
3.98
5.73
6.67
6.48
5.36
3.99
3.12
3.27
4.49
6.36
8.17
9.27
9.32
8.58
7.72
7.55
8.65
11.05
14.18
17.10
18.94
19.28
18.52
17.60
17.68
19.57
23.30
28.02
32.38
35.29
36.12
35.32
33.95
33.17
33.97
36.98
42.54
50.41
59.15
65.65
65.81
55.67
33.60
1.75
-34.24
-67.17
-91.22
-104.04
-107.46
-104.81
-99.50
-93.27
-86.05
-77.05
-66.14
-54.37
-42.99
-33.85
-27.19
-22.09
-17.13
-11.12
-3.93
3.52
9.67
13.29
13.87
12.13
9.54
7.78
7.95
10.19
13.61
16.74
18.28
17.59
15.23
12.49
10.84
11.19
13.48
16.67
19.17
19.55
17.27
12.93
7.91
3.68
0.68
-1.41
-3.90
-8.39
-15.83
-26.23
-38.86
-52.88
-67.11
-80.73
-91.63
-96.53
-92.28
-77.39
-53.51
-25.26
1.53
22.67
37.01
45.69
50.26
50.18
42.23
22.55
-10.18
-52.46
-96.21
-131.71
-151.50
-152.45
-136.40
-108.43
-74.48
-39.29
-5.87
24.09
49.42
68.74
81.64
88.24
89.38
86.57
81.81
77.26
74.52
74.23
76.16
78.66
79.86
78.18
73.57
67.15
61.01
57.19
56.77
59.32
63.23
66.37
67.14
65.07
61.01
56.64
53.63
53.04
55.31
60.38
67.60
75.27
80.42
79.11
67.96
45.91
15.51
-17.56
-46.52
-66.31
-75.49
-76.24
-72.57
-68.01
-64.14
-60.59
-56.40
-51.26
-45.95
-41.86
-39.88
-39.76
-40.29
-40.01
-37.81
-33.70
-28.60
-23.83
-20.55
-19.16
-19.25
-19.84
-19.84
-18.57
-16.04
-12.86
-9.88
-7.81
-6.92
-6.95
-7.35
-7.47
-6.94
-5.75
-4.21
-2.75
-1.72
-1.27
-1.26
-1.46
-1.55
-1.38
-0.95
-0.35
0.22
0.65
0.88
0.94
0.92
0.88
0.88
0.92
0.98
1.06
1.13
1.19
1.25
1.32
1.40
1.50
1.59
1.71
1.83
1.97
2.14
2.31
2.51
2.73
2.98
3.26
3.57
3.91
4.28
4.70
5.14
5.62
6.15
6.72
7.34
8.01
8.72
9.48
10.31
11.17
12.08
13.04
14.05
15.12
16.25
17.47
18.75
20.13
21.52
22.90
24.26
25.53
26.67
27.64
28.33
28.65
28.42
27.36
25.35
22.28
18.20
13.22
7.59
1.60
-4.45
-10.03
-15.17
-19.73
-23.60
-26.67
-28.86
-30.04
-30.24
-29.69
-28.56
-27.27
-26.18
-25.52
-25.30
-25.28
-25.07
-24.39
-23.15
-21.57
-20.25
-19.69
-20.23
-21.73
-23.63
-25.17
-25.71
-25.08
-23.73
-22.60
-22.62
-24.32
-27.49
-31.25
-34.40
-36.18
-36.35
-35.48
-34.60
-34.54
-35.84
-38.77
-43.53
-50.00
-57.19
-62.65
-62.79
-54.21
-35.43
-8.30
22.25
50.02
70.00
80.27
82.20
79.14
74.45
70.25
67.13
65.01
63.82
63.80
65.08
67.34
69.62
70.83
70.42
68.45
65.94
64.45
65.61
70.40
78.26
86.50
90.72
86.29
70.49
44.24
12.31
-18.45
-41.81
-54.74
-58.10
-55.55
-51.24
-47.76
-45.48
-43.38
-40.42
-36.63
-33.01
-30.80
-30.49
-31.57
-32.77
-32.74
-30.77
-27.16
-23.01
-19.68
-18.18
-18.70
-20.59
-22.59
-23.50
-22.62
-20.11
-16.94
-14.41
-13.61
-14.93
-17.91
-21.41
-24.10
-25.05
-24.14
-22.16
-20.45
-20.38
-22.64
-26.98
-32.25
-36.86
-39.71
-40.39
-39.57
-38.51
-38.50
-40.47
-44.87
-51.84
-61.00
-70.92
-78.76
-80.68
-73.12
-54.75
-27.72
2.70
30.03
49.21
58.45
59.47
55.73
50.48
45.24
40.01
34.25
28.16
22.82
19.53
18.82
19.86
20.95
20.42
17.63
13.19
8.88
6.64
7.76
12.53
20.28
29.68
38.71
45.33
47.60
44.55
36.72
26.40
16.70
10.23
8.02
8.61
9.18
7.04
1.09
-7.94
-18.07
-27.46
-35.36
-41.77
-47.25
-52.06
-56.11
-59.26
-61.77
-64.20
-67.14
-70.87
-74.85
-77.83
-78.45
-75.82
-69.90
-61.45
-51.24
-39.59
-26.21
-10.20
9.20
32.19
58.31
86.59
114.91
141.19
162.06
173.27
171.11
154.22
124.98
89.19
54.45
26.33
7.58
-2.52
-6.62
-7.46
-6.36
-3.53
0.84
5.69
8.56
6.92
-1.03
-14.91
-31.62
-45.86
-51.51
-44.24
-23.73
5.55
35.86
59.06
69.98
68.49
58.74
46.45
35.82
27.66
19.78
9.50
-4.39
-20.57
-35.37
-45.31
-48.40
-44.39
-34.21
-19.54
-2.26
14.97
28.61
35.15
32.36
20.98
4.43
-11.03
-20.26
-21.13
-15.17
-5.97
2.98
9.89
15.00
19.47
24.04
28.15
30.58
30.36
27.53
23.10
18.35
14.68
12.70
12.42
13.11
13.93
14.12
13.20
11.15
8.16
4.85
1.90
-0.26
-1.82
-3.36
-5.74
-9.83
-16.06
-24.69
-35.56
-48.71
-64.02
-80.49
-95.53
-105.10
-105.14
-92.78
-70.25
-43.02
-18.09
-1.13
5.75
4.32
-1.36
-7.52
-12.26
-15.91
-19.48
-23.48
-27.34
-29.82
-30.09
-28.17
-25.10
-22.20
-20.56
-20.05
-19.62
-17.84
-13.48
-6.20
3.64
14.77
25.75
35.44
43.52
50.30
56.42
62.44
68.44
74.02
78.25
80.14
78.94
74.44
66.89
56.85
45.02
31.74
17.94
4.12
-9.28
-21.88
-33.29
-43.24
-51.57
-58.29
-63.53
-67.45
-70.43
-72.84
-74.96
-77.09
-79.48
-82.25
-85.48
-89.09
-92.67
-95.81
-98.08
-99.08
-98.52
-96.22
-92.00
-85.72
-76.85
-64.86
-49.46
-30.73
-9.32
13.50
36.02
56.53
73.00
85.13
93.56
99.34
103.58
106.83
108.83
108.66
105.37
99.09
90.36
80.90
72.93
68.16
67.03
68.26
69.45
68.20
63.10
54.59
44.68
36.07
30.89
30.36
34.35
41.53
49.24
53.39
49.05
31.78
0.14
-42.32
-86.65
-121.17
-135.87
-126.93
-98.38
-60.24
-23.82
3.01
18.13
24.25
25.81
25.89
25.06
22.29
17.01
10.26
4.56
2.57
5.26
11.26
17.59
21.22
20.40
15.71
9.51
4.77
3.65
6.44
11.61
16.59
19.06
18.05
14.39
10.18
7.75
8.44
12.03
16.84
20.68
21.96
20.38
17.22
14.48
13.93
16.22
20.84
26.44
31.48
34.71
34.95
31.45
23.91
13.10
0.92
-9.84
-16.70
-18.97
-18.05
-16.42
-15.83
-16.02
-14.32
-8.02
4.04
20.43
37.50
50.66
55.95
51.27
36.47
14.87
-8.68
-29.02
-42.35
-47.78
-47.60
-45.91
-46.14
-49.18
-53.16
-55.18
-53.61
-49.52
-45.87
-45.38
-48.82
-53.93
-57.26
-56.26
-51.13
-44.29
-38.73
-36.46
-37.31
-39.64
-41.49
-41.62
-39.45
-34.66
-27.03
-16.28
-2.88
11.70
24.77
34.06
38.51
38.86
37.43
36.72
38.25
41.57
44.55
44.42
39.64
30.52
19.80
11.84
10.26
16.55
29.04
43.75
56.21
63.64
65.88
64.77
62.80
61.48
61.09
61.16
61.73
63.88
69.07
77.34
86.03
90.20
83.91
63.80
31.05
-8.35
-45.75
-73.43
-87.63
-89.58
-83.90
-76.14
-69.89
-66.07
-63.63
-61.17
-58.07
-55.04
-53.52
-53.87
-56.67
-61.32
-66.29
-70.08
-72.28
-72.27
-70.45
-67.95
-65.67
-64.12
-63.21
-62.94
-63.99
-67.41
-73.54
-80.11
-83.74
-79.44
-63.43
-35.37
0.64
37.30
67.29
86.16
93.66
92.66
87.37
80.85
74.34
67.93
61.97
58.12
58.57
63.93
71.36
74.79
66.87
42.43
1.76
-48.81
-98.83
-137.79
-159.37
-163.29
-154.33
-139.34
-123.94
-110.21
-99.12
-90.66
-85.03
-82.26
-80.78
-76.66
-64.76
-41.52
-6.99
33.85
73.12
103.21
119.94
123.82
118.89
110.17
101.33
93.76
87.09
80.76
74.85
69.98
66.70
64.81
63.41
61.41
57.99
53.13
47.71
42.94
39.78
38.47
38.45
38.66
38.08
36.26
33.49
30.67
28.82
28.56
29.71
31.48
32.88
33.21
32.50
31.51
31.24
32.37
34.86
38.00
40.83
42.83
44.22
45.60
47.25
48.73
49.29
48.57
46.87
44.66
41.56
35.81
24.81
6.83
-17.23
-43.39
-65.95
-80.18
-84.52
-81.13
-74.30
-67.95
-63.83
-61.30
-58.63
-54.66
-49.65
-44.76
-41.15
-39.25
-38.43
-37.44
-35.18
-31.34
-26.43
-21.50
-17.60
-15.27
-14.37
-14.12
-13.57
-12.03
-9.37
-5.98
-2.57
0.21
2.00
2.84
3.16
3.40
3.86
4.34
4.64
4.37
3.25
1.29
-1.26
-3.86
-5.94
-7.14
-7.34
-6.62
-5.27
-3.67
-2.14
-1.01
-0.35
-0.11
-0.22
-0.54
-0.80
-0.72
-0.08
1.83
4.71
8.45
12.90
17.69
22.42
26.70
30.17
32.16
32.69
31.68
29.20
25.51
20.73
15.10
8.92
2.58
-3.13
-8.10
-12.08
-15.43
-17.44
-17.92
-16.88
-14.45
-10.93
-6.90
-2.78
0.97
3.95
5.96
6.69
6.05
4.09
2.04
-0.54
-3.51
-6.55
-9.32
-11.51
-13.01
-13.83
-13.95
-13.52
-12.84
-11.98
-11.02
-10.04
-8.99
-7.97
-7.05
-6.21
-5.47
-4.96
-4.57
-4.22
-3.84
-3.36
-2.83
-2.31
-1.81
-1.44
-1.26
-1.20
-1.18
-1.10
-0.88
-0.59
-0.66
-0.94
-1.49
-2.34
-3.33
-4.31
-5.08
-5.51
-5.72
-5.99
-6.64
-7.92
-9.85
-12.13
-14.34
-16.01
-16.87
-17.10
-17.19
-17.78
-19.14
-21.09
-22.87
-23.56
-22.63
-19.41
-14.30
-8.48
-3.55
-0.74
-0.55
-2.57
-5.92
-9.78
-13.65
-17.88
-22.44
-28.63
-37.05
-47.80
-60.77
-75.59
-90.87
-103.62
-109.63
-104.83
-87.39
-59.09
-25.84
5.43
28.45
40.19
41.56
36.13
27.93
19.57
11.96
4.98
-1.47
-7.20
-11.79
-15.24
-18.22
-21.78
-26.56
-32.26
-37.47
-40.33
-39.41
-34.20
-25.22
-13.50
-0.17
14.10
29.39
46.55
66.89
91.55
120.58
151.09
178.14
194.90
195.06
175.93
140.57
97.30
56.41
26.34
10.47
6.34
8.32
10.80
10.29
5.87
-1.66
-10.72
-19.20
-24.36
-23.30
-14.29
1.87
21.32
38.40
47.73
46.46
34.64
15.84
-5.76
-27.01
-46.21
-62.64
-75.75
-84.99
-90.01
-91.36
-90.61
-89.91
-90.87
-94.10
-98.75
-103.02
-105.04
-103.68
-98.91
-91.43
-82.48
-72.59
-61.52
-48.32
-31.85
-11.55
12.00
37.02
61.13
81.39
96.65
107.23
114.54
120.34
125.80
131.02
134.92
136.18
134.25
129.00
121.73
114.50
109.52
108.44
112.01
119.59
128.65
134.82
132.82
118.53
91.02
53.69
13.45
-21.82
-46.57
-59.71
-64.51
-66.60
-71.01
-80.28
-93.82
-108.56
-120.17
-124.64
-119.54
-104.44
-82.49
-58.59
-37.71
-22.90
-14.60
-11.04
-9.76
-9.24
-9.50
-11.36
-15.00
-19.32
-22.12
-21.40
-16.53
-8.80
-0.84
4.55
5.58
2.41
-3.08
-8.05
-10.04
-7.90
-2.34
4.45
9.76
11.60
9.44
4.34
-1.55
-6.03
-7.63
-5.73
-0.26
8.25
18.37
27.31
30.96
25.28
8.17
-18.81
-50.21
-78.29
-96.08
-100.17
-91.10
-73.68
-53.47
-34.35
-17.68
-3.22
9.40
19.72
26.62
29.25
27.84
23.98
19.84
17.37
17.30
19.12
21.42
22.70
22.02
19.36
15.62
12.16
10.08
9.74
10.72
12.10
12.89
12.49
10.88
8.61
6.43
5.02
4.56
4.86
5.40
5.67
5.34
4.38
3.08
1.83
0.95
0.57
0.57
0.75
0.83
0.66
0.23
-0.35
-0.92
-1.34
-1.55
-1.59
-1.60
-1.69
-1.96
-2.40
-2.91
-3.33
-3.50
-3.37
-3.06
-2.82
-2.94
-3.61
-4.82
-6.27
-7.52
-8.21
-8.16
-7.63
-7.15
-7.38
-8.70
-11.07
-13.93
-16.43
-17.81
-17.79
-16.79
-15.76
-15.82
-17.64
-21.17
-25.51
-29.33
-31.64
-31.98
-30.81
-29.23
-28.36
-29.08
-31.91
-37.17
-44.57
-52.78
-58.85
-58.74
-48.82
-27.82
1.89
34.66
63.69
83.80
93.34
94.42
90.96
86.48
82.58
78.94
74.59
69.10
63.30
57.94
53.63
49.80
45.16
38.48
29.07
17.45
5.14
-5.94
-14.30
-19.12
-20.71
-19.90
-17.53
-14.05
-9.35
-3.08
4.98
14.37
24.13
32.68
38.61
41.26
40.86
38.41
35.05
31.49
26.98
21.57
14.60
5.88
-3.79
-12.74
-19.00
-21.22
-19.39
-14.99
-10.17
-7.06
-6.79
-8.94
-11.85
-13.66
-12.89
-8.79
-1.36
8.75
19.48
27.05
26.34
12.80
-14.72
-51.73
-88.40
-113.03
-117.22
-99.52
-66.34
-28.81
2.41
21.71
29.67
30.88
30.25
30.15
30.13
28.87
26.41
24.62
25.51
29.18
32.07
28.09
11.89
-17.97
-57.54
-98.61
-132.12
-152.20
-157.32
-150.43
-136.87
-121.66
-107.80
-96.34
-87.37
-80.59
-76.68
-74.84
-72.32
-64.76
-48.05
-20.47
15.40
53.34
85.87
107.32
116.34
115.71
110.42
104.83
100.88
98.00
94.61
89.90
84.38
79.78
77.55
77.76
79.24
79.55
76.46
69.15
58.54
46.60
35.80
27.77
22.76
19.13
15.43
10.43
3.89
-2.62
-7.30
-8.16
-4.01
5.34
19.27
36.46
54.55
69.46
77.02
73.36
57.12
30.75
0.08
-27.74
-47.15
-56.27
-57.03
-53.23
-48.45
-44.23
-40.28
-35.58
-29.83
-23.89
-19.19
-16.77
-16.28
-16.48
-15.82
-13.09
-8.24
-2.19
3.66
8.11
10.60
11.60
12.09
13.18
15.54
19.08
23.10
26.51
28.40
28.12
25.86
22.09
17.45
12.42
7.18
1.67
-4.27
-10.28
-16.49
-22.46
-27.71
-31.80
-34.51
-35.85
-36.06
-35.73
-35.00
-34.16
-33.31
-32.50
-31.72
-31.00
-30.35
-29.72
-29.14
-28.54
-27.94
-27.19
-26.11
-24.51
-22.24
-19.32
-15.31
-10.12
-3.78
3.46
11.27
19.19
26.65
32.95
37.57
40.06
40.07
37.49
32.42
25.23
16.56
7.70
-1.07
-9.25
-16.43
-22.47
-27.42
-31.44
-34.69
-37.27
-39.27
-40.84
-42.07
-43.17
-44.46
-46.31
-48.92
-52.65
-56.87
-61.05
-64.82
-67.92
-70.50
-72.96
-75.76
-79.05
-82.46
-85.00
-85.80
-83.52
-77.48
-67.96
-56.06
-43.37
-31.14
-20.05
-9.95
0.03
9.93
19.69
28.66
35.77
40.07
41.09
38.69
33.03
24.78
15.61
8.66
8.16
17.84
38.97
69.13
102.35
131.45
150.71
158.22
155.91
147.81
137.88
127.38
116.07
102.96
87.75
71.37
55.41
41.09
28.61
17.16
5.38
-7.06
-19.78
-31.68
-41.28
-47.43
-49.79
-49.04
-46.50
-43.73
-41.68
-40.66
-40.22
-39.49
-37.58
-33.98
-28.62
-21.77
-13.85
-5.20
3.95
13.53
23.39
33.21
42.24
49.58
54.29
55.70
53.54
48.00
39.67
28.98
17.33
5.69
-5.19
-14.82
-22.92
-29.36
-34.21
-37.64
-39.93
-41.31
-42.15
-42.74
-43.31
-43.97
-44.78
-45.77
-46.93
-48.30
-49.79
-51.44
-53.27
-55.27
-57.41
-59.59
-61.73
-63.72
-65.33
-66.28
-66.31
-65.12
-62.37
-57.80
-51.12
-42.26
-31.33
-18.62
-4.61
10.09
24.78
38.79
50.85
60.67
68.09
73.05
75.66
76.16
74.92
72.31
68.76
65.02
61.18
57.32
53.56
49.95
46.51
43.27
40.21
37.30
34.54
31.92
29.47
27.18
25.06
23.11
21.33
19.70
18.19
16.79
15.50
14.25
13.06
11.93
10.85
9.86
8.96
8.13
7.40
6.77
6.21
5.77
5.48
5.40
5.61
6.06
6.63
7.19
7.80
8.00
7.54
6.32
4.33
1.74
-1.37
-4.91
-8.75
-12.82
-17.12
-21.47
-25.64
-29.63
-32.64
-33.90
-33.67
-32.22
-30.08
-27.87
-25.99
-24.52
-23.10
-21.07
-17.92
-13.55
-8.29
-2.94
1.56
4.61
6.36
7.70
10.00
14.33
21.00
29.43
38.25
45.85
51.29
54.68
57.20
60.48
65.71
73.29
82.81
93.09
102.51
109.10
110.75
105.74
93.60
75.79
56.02
39.24
29.74
29.20
35.88
45.33
52.45
53.69
48.07
37.45
25.03
13.60
4.58
-2.08
-7.20
-11.42
-13.37
-12.42
-8.67
-3.62
-0.36
-2.89
-14.52
-35.99
-64.27
-93.09
-114.83
-122.88
-113.87
-88.87
-53.15
-14.49
19.06
41.44
50.22
46.82
35.71
22.31
10.81
2.82
-2.30
-6.04
-9.08
-10.63
-9.50
-5.61
-1.32
-0.99
-9.16
-28.14
-56.70
-90.66
-125.19
-157.24
-186.58
-214.86
-243.37
-271.10
-294.31
-308.06
-308.58
-295.07
-269.75
-236.33
-198.17
-157.39
-115.43
-74.25
-36.82
-6.30
15.65
30.08
40.44
50.40
61.56
72.67
80.76
83.78
82.68
81.14
83.13
89.64
96.98
98.08
85.95
57.66
16.30
-29.89
-70.75
-97.87
-106.88
-97.96
-74.99
-44.10
-12.19
14.41
31.29
36.87
32.83
23.52
14.57
11.05
15.88
28.98
47.45
66.72
82.26
91.20
93.21
89.90
83.29
74.05
61.03
42.46
18.60
-6.25
-24.22
-27.19
-11.45
18.89
52.12
73.17
69.94
38.51
-15.47
-79.60
-140.21
-187.39
-217.45
-232.07
-235.21
-230.16
-218.02
-198.20
-170.13
-134.60
-94.13
-51.67
-9.24
32.53
73.66
112.98
146.91
169.69
175.48
160.91
127.30
81.02
31.71
-11.07
-41.06
-57.10
-62.56
-63.16
-63.95
-67.17
-71.57
-73.35
-67.84
-51.26
-21.98
18.79
66.96
116.04
158.24
186.19
194.88
183.24
154.84
117.01
78.85
48.73
32.60
32.99
48.81
75.91
108.29
139.62
164.94
181.80
190.82
195.06
198.54
204.57
214.40
227.00
239.76
249.71
254.54
253.50
247.61
239.12
230.53
223.53
218.65
215.42
212.98
210.14
206.16
201.35
197.19
195.70
198.00
203.36
209.07
211.23
205.27
187.92
158.74
120.23
76.82
32.45
-10.48
-51.03
-88.92
-125.01
-160.39
-195.80
-231.62
-267.64
-304.28
-342.11
-381.24
-413.23
-427.38
-416.96
-384.33
-338.89
-289.92
-243.96
-204.12
-170.87
-142.71
-118.31
-96.81
-77.91
-63.79
-53.92
-48.57
-48.06
-52.15
-59.31
-68.12
-77.85
-84.68
-88.92
-91.54
-94.02
-97.24
-101.49
-106.30
-111.23
-115.28
-116.51
-112.14
-98.10
-72.08
-35.13
7.60
49.08
82.98
107.07
123.46
135.62
147.08
157.09
163.67
161.12
145.14
114.11
74.26
34.97
4.30
-13.63
-19.97
-19.53
-17.77
-17.55
-18.53
-18.23
-14.95
-9.19
-3.07
0.83
1.09
-2.11
-6.93
-10.83
-11.78
-9.36
-4.75
0.21
3.78
5.06
4.00
1.53
-1.05
-2.52
-2.27
-0.41
2.48
5.56
8.00
9.08
8.40
5.98
2.02
-2.72
-7.62
-12.49
-17.46
-23.04
-29.81
-38.01
-47.08
-57.12
-68.18
-80.21
-92.33
-102.04
-105.46
-98.64
-79.59
-50.08
-15.55
16.88
41.10
54.31
57.56
54.45
49.01
44.02
40.45
38.18
36.85
36.40
36.81
37.98
39.30
40.23
40.77
41.14
42.38
46.07
53.82
66.32
82.30
97.96
107.29
105.15
89.18
61.68
29.12
-0.36
-20.51
-29.37
-29.50
-25.53
-21.52
-19.24
-17.91
-15.86
-12.06
-7.13
-2.81
-0.83
-1.71
-4.56
-7.73
-9.43
-9.12
-7.39
-6.05
-7.26
-12.60
-22.34
-35.24
-49.09
-61.05
-69.95
-75.53
-78.82
-81.46
-84.82
-89.58
-95.85
-103.72
-112.53
-121.16
-127.20
-127.27
-118.13
-98.51
-70.50
-39.21
-11.07
9.00
19.22
21.44
19.48
17.07
16.16
16.89
18.68
21.30
25.36
31.63
40.33
50.47
59.76
66.64
70.05
70.20
68.36
66.11
64.58
63.92
63.37
62.08
59.12
54.49
49.15
44.50
41.58
40.50
40.50
39.66
36.55
30.80
23.37
16.21
11.38
10.01
11.86
15.16
17.61
17.73
15.30
11.56
8.31
7.09
8.46
12.26
17.74
23.83
28.75
29.44
22.13
4.45
-22.19
-51.59
-74.21
-81.69
-70.89
-45.62
-15.05
10.89
25.97
29.76
25.06
18.02
12.05
7.20
1.75
-5.46
-13.65
-20.56
-24.04
-23.34
-19.37
-14.50
-11.19
-10.65
-12.57
-15.45
-17.44
-16.84
-13.61
-8.33
-2.34
3.18
7.69
11.32
14.64
18.21
22.36
26.85
31.32
35.09
37.78
39.33
40.22
41.42
43.96
48.10
52.67
55.16
52.39
42.27
24.74
2.32
-20.44
-38.61
-48.85
-50.64
-46.08
-38.72
-31.65
-27.20
-26.59
-29.66
-35.06
-41.05
-45.95
-48.43
-47.84
-43.71
-37.25
-30.99
-27.27
-26.94
-28.94
-30.30
-26.70
-13.52
12.91
51.55
95.89
136.13
162.56
168.54
152.41
117.78
66.95
11.16
-35.68
-65.12
-76.49
-73.64
-61.27
-43.60
-24.53
-7.42
6.41
16.54
22.90
26.86
30.60
35.63
41.99
48.72
54.51
58.83
60.71
58.19
50.62
39.28
26.20
13.08
1.37
-8.20
-15.84
-23.51
-35.10
-52.63
-74.87
-98.53
-120.04
-137.72
-152.74
-168.39
-179.28
-182.91
-178.54
-166.39
-147.07
-122.25
-95.84
-73.34
-59.07
-54.05
-56.24
-61.59
-61.64
-49.95
-23.99
14.20
59.04
103.80
140.71
162.25
168.07
163.45
154.86
146.60
139.75
133.24
125.39
114.95
101.07
85.94
69.81
53.59
38.83
26.81
18.08
12.32
8.95
7.94
10.31
16.66
25.71
33.36
33.84
21.96
-4.58
-43.22
-87.41
-128.80
-160.18
-176.52
-175.14
-155.47
-119.13
-70.47
-16.75
33.08
71.07
92.77
98.92
94.18
84.45
74.07
64.74
56.27
48.21
41.02
35.63
32.51
30.65
27.60
20.71
8.93
-6.29
-21.54
-32.96
-38.11
-36.96
-31.69
-25.44
-20.76
-18.71
-18.83
-19.97
-21.09
-21.86
-22.49
-23.41
-24.85
-26.72
-28.67
-30.29
-31.42
-32.10
-32.53
-33.00
-33.76
-34.99
-36.64
-38.40
-39.75
-40.14
-39.11
-36.49
-32.43
-27.31
-21.57
-15.53
-9.43
-3.54
1.76
6.04
9.11
11.10
12.52
14.03
16.22
19.39
23.19
26.70
28.95
29.53
28.72
27.31
26.20
26.19
27.73
30.50
33.56
35.84
36.94
37.03
36.66
36.55
37.67
41.07
46.95
54.32
61.38
67.06
71.08
73.90
76.16
78.71
82.39
86.97
90.86
91.60
87.56
77.50
60.38
35.03
1.14
-35.38
-63.72
-74.75
-68.27
-49.98
-26.29
-1.08
23.45
46.56
68.31
88.22
104.99
114.31
117.41
117.29
117.19
118.28
119.81
120.49
118.51
112.01
96.98
72.78
40.41
6.71
-25.83
-58.49
-92.90
-130.20
-170.49
-217.07
-268.16
-318.19
-361.36
-395.27
-422.53
-446.66
-471.40
-499.91
-539.36
-588.83
-638.85
-675.96
-688.93
-674.64
-635.20
-577.50
-475.88
-339.15
-199.66
-87.43
-17.61
27.26
58.70
82.70
100.75
114.09
119.51
120.12
122.90
133.76
154.48
180.05
205.38
227.02
244.02
253.08
257.58
263.46
275.17
293.68
314.98
335.07
351.41
363.48
369.82
375.67
387.52
410.38
446.61
493.96
547.31
598.37
636.97
652.39
642.86
610.41
559.19
493.95
419.27
340.83
265.74
202.04
130.26
49.02
-33.24
-107.21
-169.18
-218.30
-252.05
-266.91
-262.41
-243.78
-215.79
-185.09
-156.25
-130.19
-105.89
-84.30
-70.39
-70.96
-90.24
-123.12
-160.17
-191.25
-209.17
-211.93
-202.96
-188.98
-176.15
-167.74
-161.32
-153.64
-142.97
-129.94
-116.75
-105.79
-98.62
-94.98
-93.70
-91.97
-88.14
-82.13
-75.21
-68.98
-64.60
-63.40
-63.88
-64.42
-63.13
-58.91
-51.74
-42.46
-32.26
-21.21
-10.72
-1.06
7.81
16.04
23.64
30.37
35.85
39.77
42.07
42.84
42.82
42.59
42.56
42.84
43.26
43.46
43.06
41.50
38.41
33.85
27.78
20.26
11.38
1.33
-9.63
-21.08
-31.94
-42.04
-51.51
-59.52
-65.41
-68.74
-69.30
-67.05
-62.17
-55.03
-46.26
-35.56
-24.28
-13.30
-3.24
5.44
12.49
17.87
21.64
23.92
25.00
25.14
24.68
23.91
23.01
22.10
21.24
20.46
19.70
18.99
18.24
17.49
16.78
16.12
15.50
14.96
14.47
14.01
13.56
13.11
12.71
12.39
12.15
11.99
11.93
11.96
12.06
12.24
12.48
12.81
13.22
13.73
14.33
15.03
15.82
16.69
17.66
18.72
19.86
21.10
22.46
23.93
25.55
27.27
29.13
31.11
33.18
35.21
37.08
38.60
39.56
39.73
38.77
36.53
32.90
27.89
21.60
14.27
6.23
-2.10
-9.93
-17.09
-23.26
-28.18
-31.74
-33.95
-34.91
-34.81
-34.13
-32.86
-31.29
-29.56
-27.81
-26.10
-24.48
-22.97
-21.55
-20.21
-18.88
-17.64
-16.51
-15.49
-14.64
-13.94
-13.37
-12.87
-12.38
-11.86
-11.36
-10.93
-10.60
-10.45
-10.47
-10.64
-10.87
-11.09
-11.25
-11.42
-11.70
-12.13
-12.83
-13.80
-14.94
-16.07
-17.02
-17.70
-18.28
-18.98
-20.03
-21.67
-23.84
-26.21
-28.13
-28.96
-28.21
-25.86
-22.43
-17.94
-12.73
-6.81
0.05
8.15
17.51
27.54
36.77
43.41
45.73
42.53
33.78
20.62
5.03
-11.10
-25.59
-38.40
-49.86
-60.53
-71.07
-82.04
-93.93
-106.86
-119.81
-130.15
-134.14
-128.10
-110.59
-83.91
-53.74
-27.14
-9.81
-3.33
-5.75
-13.14
-21.62
-29.07
-35.28
-40.73
-45.37
-48.04
-47.02
-41.10
-30.23
-15.67
0.84
17.49
33.41
48.56
63.33
77.39
90.76
102.67
111.95
117.56
118.98
116.62
111.57
105.68
99.85
94.81
90.64
86.96
83.21
78.97
74.17
69.03
63.81
58.66
53.71
48.74
43.33
37.46
30.66
22.84
14.21
5.14
-4.01
-12.72
-20.56
-27.23
-32.44
-35.89
-37.44
-37.00
-34.60
-30.53
-24.93
-18.13
-10.52
-3.31
3.62
10.07
15.81
20.65
24.36
27.01
28.61
29.26
29.02
28.06
26.43
24.11
21.82
18.88
15.24
10.86
5.79
0.06
-6.05
-12.39
-18.72
-24.70
-30.15
-34.66
-37.95
-39.83
-40.28
-39.24
-36.94
-33.70
-29.96
-26.30
-23.15
-20.94
-20.04
-20.69
-22.74
-26.00
-30.16
-34.93
-40.03
-45.22
-50.30
-55.23
-60.11
-64.57
-68.50
-71.84
-74.68
-77.20
-79.66
-82.38
-85.69
-90.01
-94.90
-100.11
-105.45
-110.83
-116.29
-121.99
-128.15
-135.04
-142.86
-150.66
-157.63
-163.03
-166.30
-167.07
-165.04
-159.54
-148.79
-136.70
-123.64
-109.31
-93.23
-75.28
-55.94
-36.34
-17.85
-1.64
11.73
23.54
35.35
48.66
64.28
82.00
100.74
119.09
136.00
151.18
166.04
182.30
201.68
225.51
254.59
288.72
326.17
363.17
393.92
412.20
412.82
393.84
357.76
311.04
261.65
216.18
177.77
145.84
117.95
91.71
66.28
42.28
20.64
1.28
-17.15
-36.35
-56.94
-77.48
-94.87
-105.76
-108.33
-103.37
-94.06
-84.69
-78.97
-78.68
-83.17
-89.70
-94.39
-93.57
-84.85
-68.00
-44.87
-18.71
6.96
29.52
47.75
61.76
72.21
79.58
83.73
83.97
79.66
70.70
57.87
42.63
26.72
11.57
-1.91
-13.34
-22.58
-29.39
-33.33
-33.94
-31.22
-25.93
-19.67
-14.37
-11.63
-12.09
-15.06
-18.82
-21.26
-20.66
-16.12
-7.59
4.48
19.33
35.99
53.03
68.32
79.13
82.68
77.17
62.71
41.70
18.44
-2.12
-15.82
-20.58
-16.75
-6.62
6.67
20.36
32.90
44.19
55.08
66.54
78.88
91.49
103.09
112.42
118.76
122.11
122.77
120.76
115.55
106.29
92.48
74.49
53.65
31.63
9.77
-11.31
-31.35
-49.81
-65.40
-76.19
-80.49
-77.69
-68.80
-56.09
-42.35
-30.20
-21.68
-18.14
-20.13
-27.09
-37.04
-46.73
-52.29
-50.61
-40.41
-22.72
-0.29
23.53
45.93
65.19
80.48
91.41
97.71
99.40
97.19
92.78
88.51
86.55
87.89
91.67
95.35
95.55
89.32
75.19
53.72
27.23
-1.01
-27.81
-50.84
-69.09
-82.82
-93.12
-101.32
-108.49
-114.99
-120.41
-123.72
-123.78
-119.76
-111.73
-100.71
-88.50
-77.34
-69.01
-64.40
-63.58
-66.18
-71.45
-78.04
-83.96
-86.63
-83.90
-74.74
-59.98
-42.47
-26.37
-15.78
-13.16
-18.58
-29.71
-43.26
-55.41
-62.76
-63.31
-57.26
-46.83
-35.40
-26.51
-22.66
-26.31
-37.63
-54.31
-72.71
-89.77
-103.67
-113.49
-119.09
-120.44
-120.76
-122.26
-124.78
-126.82
-127.93
-129.14
-131.42
-135.75
-141.82
-153.49
-172.10
-194.48
-214.60
-227.95
-233.00
-229.92
-221.29
-210.22
-206.58
-217.09
-241.35
-273.06
-305.75
-335.23
-358.68
-376.00
-346.63
-256.10
-125.75
5.68
114.02
195.10
250.03
291.63
325.31
352.44
366.43
364.10
345.87
318.29
288.15
260.07
237.43
220.78
209.57
197.22
178.95
155.14
130.82
110.92
98.39
93.08
93.57
98.27
101.87
100.13
92.28
80.93
68.93
57.99
49.13
42.17
36.70
30.65
22.68
13.24
4.16
-2.99
-7.63
-9.71
-9.61
-7.63
-4.05
0.30
5.11
10.52
16.65
23.24
29.87
36.10
41.74
46.73
51.37
56.19
61.57
67.22
71.59
72.30
67.23
55.98
39.78
21.31
3.71
-11.77
-23.55
-31.31
-36.18
-40.28
-45.15
-52.37
-61.90
-72.28
-81.37
-87.78
-91.25
-92.22
-90.85
-85.30
-74.65
-56.88
-31.19
1.63
38.84
77.38
115.32
145.64
164.85
170.60
159.67
127.39
71.82
-2.84
-83.37
-150.56
-186.59
-182.03
-141.76
-82.42
-26.13
13.27
28.39
19.64
-6.87
-42.22
-76.68
-103.34
-118.19
-120.13
-108.81
-86.73
-56.39
-24.58
4.73
32.30
58.98
84.71
102.81
114.09
116.25
103.17
72.29
22.18
-36.96
-86.53
-108.60
-96.31
-55.96
-4.00
43.22
76.54
95.18
104.06
107.81
107.87
102.93
92.73
78.31
62.97
51.58
47.55
51.53
60.14
67.27
66.80
56.50
38.27
18.00
3.56
0.89
11.31
30.10
48.27
56.70
51.36
35.67
16.11
0.63
-6.01
-4.86
-2.05
-5.05
-18.46
-41.20
-67.73
-91.19
-106.12
-110.46
-104.98
-92.03
-73.57
-54.05
-37.70
-27.52
-24.26
-25.31
-25.54
-19.73
-5.68
14.43
34.98
49.60
53.96
46.66
29.07
3.82
-25.95
-56.80
-84.86
-106.52
-119.21
-122.66
-119.97
-116.02
-114.54
-115.76
-115.79
-108.56
-89.39
-57.65
-16.48
28.03
70.21
106.92
137.65
163.10
183.40
197.71
199.65
187.08
161.47
127.74
92.67
62.28
39.85
25.39
16.40
9.63
3.49
-2.41
-7.40
-10.53
-11.37
-10.33
-8.47
-7.26
-8.01
-10.87
-15.42
-20.53
-24.67
-26.80
-26.96
-26.69
-28.42
-34.23
-44.12
-55.92
-65.84
-70.11
-66.89
-57.10
-43.93
-31.02
-20.85
-13.86
-9.08
-5.30
-2.04
0.24
0.75
-0.74
-3.21
-4.55
-2.44
4.37
15.20
27.42
37.62
43.07
43.09
39.44
35.35
33.81
35.88
39.93
42.33
39.35
29.22
13.02
-5.64
-22.16
-32.69
-35.09
-29.16
-16.18
1.70
21.54
39.18
49.19
45.84
25.53
-10.46
-54.64
-95.09
-119.79
-121.79
-102.25
-69.56
-35.02
-7.40
10.44
21.10
28.89
35.95
40.61
39.08
29.04
12.25
-5.34
-16.34
-15.59
-3.28
15.42
32.93
43.43
45.47
41.57
35.80
31.02
27.60
23.64
17.23
8.03
-2.54
-12.85
-23.37
-37.44
-59.65
-88.63
-118.41
-139.89
-146.68
-138.96
-122.07
-102.79
-86.30
-74.66
-67.13
-61.97
-57.30
-51.62
-44.03
-34.11
-22.08
-8.40
6.95
24.45
43.71
63.31
79.76
88.85
87.59
75.38
53.97
26.38
-4.26
-35.37
-64.12
-86.07
-95.69
-88.44
-63.38
-24.73
19.72
62.12
98.54
126.29
146.44
162.19
175.68
185.41
186.25
171.85
138.21
86.45
23.18
-40.93
-94.89
-130.96
-146.74
-144.48
-128.94
-105.10
-76.98
-47.86
-20.58
1.99
17.40
24.67
25.22
22.51
20.27
20.56
23.29
27.51
33.16
41.87
55.64
74.46
94.32
107.74
107.29
90.25
60.86
28.31
1.71
-15.04
-24.03
-30.39
-37.82
-45.25
-47.35
-38.57
-17.36
11.91
40.24
58.53
61.23
47.38
20.48
-13.05
-45.54
-69.53
-79.11
-72.19
-50.33
-18.66
14.94
43.05
61.43
70.45
74.49
80.33
93.64
113.33
135.75
154.44
163.66
160.63
145.74
121.20
94.42
65.91
37.35
12.26
-5.83
-14.73
-15.07
-9.53
-4.41
-7.22
-24.34
-56.94
-100.71
-147.53
-187.65
-212.69
-218.30
-205.64
-180.47
-151.19
-124.62
-104.20
-90.51
-82.92
-81.61
-88.13
-103.83
-127.16
-152.83
-173.07
-181.94
-179.08
-169.89
-161.98
-159.55
-160.09
-155.65
-138.27
-105.81
-64.57
-26.34
-1.89
5.21
0.46
-5.17
-1.83
14.00
38.62
64.16
83.77
94.95
99.90
102.79
106.44
110.78
113.68
113.07
108.68
102.24
96.19
92.28
90.74
90.66
91.16
92.12
94.14
97.88
103.14
108.27
110.58
107.42
97.38
81.22
61.69
42.45
26.56
15.68
9.67
7.28
7.09
8.17
10.15
12.78
15.54
17.57
17.93
16.14
12.58
8.29
4.54
2.22
1.57
2.06
2.82
2.92
1.83
-0.39
-3.23
-5.86
-7.58
-8.07
-7.59
-6.86
-6.78
-7.98
-10.57
-14.04
-17.44
-19.79
-20.41
-19.19
-16.53
-13.21
-10.01
-7.52
-5.95
-5.22
-5.11
-5.38
-5.97
-6.92
-8.29
-10.06
-11.97
-13.69
-14.90
-15.45
-15.46
-15.22
-15.11
-15.47
-16.44
-17.94
-19.68
-21.24
-22.20
-22.21
-21.12
-19.03
-16.15
-12.82
-9.38
-6.05
-2.96
-0.13
2.51
5.04
7.48
9.79
11.82
13.47
14.79
15.95
17.21
18.74
20.44
21.92
22.58
21.79
19.15
14.57
8.43
1.44
-5.41
-11.06
-14.53
-15.14
-12.79
-8.03
-1.98
3.95
8.45
10.69
10.46
8.18
4.62
0.61
-3.25
-6.69
-9.66
-12.13
-13.97
-14.88
-14.58
-12.97
-10.28
-7.11
-4.27
-2.48
-2.12
-2.98
-4.20
-4.59
-3.02
1.18
7.94
16.42
25.25
32.92
38.06
39.84
38.30
34.43
29.99
26.98
26.79
29.54
33.98
37.90
39.10
36.23
29.22
19.20
7.92
-2.79
-11.55
-17.69
-21.31
-23.20
-24.60
-26.76
-30.42
-35.55
-41.37
-46.81
-50.91
-53.16
-53.44
-51.88
-48.67
-44.13
-38.86
-33.71
-29.63
-27.18
-26.18
-25.50
-23.28
-17.67
-7.62
6.49
22.73
38.11
49.61
55.19
54.46
48.67
40.09
31.06
23.15
16.89
11.98
7.77
3.82
0.12
-3.03
-5.32
-6.61
-7.03
-6.85
-6.26
-5.21
-3.48
-0.85
2.70
6.89
11.27
15.34
18.81
21.59
23.72
25.17
25.64
24.69
21.95
17.47
11.86
6.23
1.78
-0.67
-1.02
0.10
1.59
2.39
1.88
0.16
-2.09
-3.86
-4.29
-2.99
-0.22
3.25
6.49
8.77
9.92
10.29
10.53
11.21
12.58
14.45
16.35
17.63
17.63
15.75
11.50
4.69
-4.31
-14.44
-23.91
-30.67
-33.08
-30.58
-23.98
-15.16
-6.34
0.76
5.44
7.96
9.07
9.40
9.11
8.08
6.29
4.06
1.98
0.60
0.00
-0.12
-0.14
-0.13
0.41
2.16
5.54
10.21
15.18
19.33
22.12
23.82
25.38
27.86
31.84
37.25
43.58
50.24
56.85
63.34
69.78
76.13
82.03
86.78
89.51
89.54
86.60
81.04
73.75
65.83
58.11
50.85
43.71
36.09
27.59
18.33
8.86
-0.14
-8.22
-15.38
-22.03
-28.69
-35.76
-43.26
-50.92
-58.25
-64.79
-70.19
-74.41
-77.57
-79.89
-81.49
-82.34
-82.30
-81.23
-79.18
-76.37
-73.08
-69.48
-65.52
-61.02
-55.97
-50.67
-45.82
-42.19
-40.25
-39.85
-40.20
-40.19
-38.78
-35.40
-30.17
-23.68
-16.63
-9.51
-2.48
4.43
11.14
17.47
23.11
27.67
30.89
32.79
33.67
34.16
34.69
35.59
36.82
37.86
37.64
34.89
28.84
19.77
9.22
-1.08
-9.34
-14.24
-15.29
-13.03
-8.71
-3.73
0.89
4.79
6.72
5.95
2.83
-1.19
-4.39
-5.56
-4.46
-1.83
1.28
1.81
-2.24
-10.22
-19.27
-26.49
-30.69
-33.08
-36.04
-41.08
-51.38
-68.63
-91.82
-117.73
-142.59
-163.39
-178.44
-187.41
-179.00
-151.47
-114.93
-84.76
-70.11
-69.68
-75.66
-78.87
-75.18
-57.65
-25.60
17.24
65.50
113.97
158.89
198.68
228.76
238.97
225.44
191.04
146.19
104.18
74.62
60.47
57.84
58.92
57.09
51.16
43.37
33.99
22.48
6.58
-15.83
-44.78
-76.92
-105.74
-123.87
-128.41
-121.99
-107.20
-89.30
-72.46
-57.93
-44.25
-28.50
-8.15
16.31
41.45
62.84
76.69
82.41
83.08
83.84
89.11
99.63
110.48
112.54
97.23
61.30
10.32
-42.79
-83.56
-102.37
-98.32
-78.64
-54.23
-34.09
-22.48
-18.77
-20.21
-24.75
-31.92
-41.69
-52.60
-61.17
-63.02
-55.33
-38.51
-16.44
5.03
20.38
26.49
23.59
14.82
5.01
-1.26
-1.02
6.31
19.04
34.12
48.30
59.26
66.03
68.60
67.36
62.64
54.71
44.13
32.22
20.98
12.60
8.59
9.09
12.73
17.14
19.91
19.59
16.16
10.88
5.52
1.61
-0.11
0.25
2.14
4.94
8.18
11.49
14.45
16.58
17.42
16.83
15.11
12.96
11.20
10.43
10.90
12.58
15.31
19.02
23.59
28.79
34.06
38.63
41.71
42.82
41.93
39.58
36.62
33.83
31.58
29.68
27.51
24.36
19.64
12.93
4.17
-6.41
-18.33
-30.81
-42.68
-52.26
-57.50
-56.39
-47.80
-31.97
-10.79
12.41
33.60
49.32
57.60
58.37
53.15
43.93
33.09
22.89
15.11
10.42
8.18
6.28
1.61
-9.06
-28.03
-54.07
-81.41
-101.19
-105.14
-89.03
-55.09
-11.56
30.11
58.72
68.64
61.16
41.92
16.50
-11.86
-42.09
-73.55
-104.40
-132.67
-155.34
-169.63
-174.61
-171.86
-163.32
-149.15
-127.11
-86.92
-28.56
35.15
86.97
117.12
126.25
121.85
112.76
105.01
99.76
92.99
80.56
61.97
41.65
23.76
11.58
5.93
5.05
5.85
4.84
1.13
-3.28
-5.25
-3.11
2.92
11.13
19.85
27.30
31.82
33.06
31.92
30.13
29.04
29.19
30.03
30.20
28.07
22.48
13.99
4.42
-3.86
-9.81
-14.37
-19.82
-27.60
-36.64
-43.56
-44.53
-38.47
-27.62
-16.92
-11.77
-15.33
-26.60
-41.04
-53.00
-58.60
-57.87
-52.58
-44.59
-35.40
-26.30
-18.58
-13.80
-14.13
-22.06
-40.18
-67.56
-98.79
-125.68
-139.90
-135.39
-110.31
-68.04
-11.18
46.64
88.38
105.72
103.68
93.84
85.77
82.72
82.10
78.80
69.09
52.97
34.56
18.76
8.25
2.76
0.15
-1.98
-5.02
-9.57
-13.58
-14.72
-12.01
-6.59
-0.77
3.39
4.98
4.30
2.01
-0.58
-2.07
-1.77
-0.15
1.74
3.02
3.52
3.79
4.53
6.52
10.07
14.68
19.04
21.69
21.68
18.90
13.92
7.62
1.05
-4.52
-7.58
-6.59
-0.41
11.11
26.76
44.09
60.04
71.91
78.09
78.17
72.51
61.77
46.81
28.93
10.07
-7.52
-21.85
-31.95
-38.45
-43.23
-48.11
-53.27
-56.40
-53.54
-41.15
-18.22
12.69
45.64
72.95
87.82
86.68
70.29
42.71
9.28
-24.95
-55.55
-78.61
-90.71
-89.29
-73.40
-44.57
-7.48
30.38
60.75
77.40
77.54
61.61
32.23
-6.98
-49.46
-85.45
-106.18
-109.58
-100.44
-85.86
-71.11
-58.32
-47.24
-36.58
-25.89
-16.32
-9.72
-6.92
-7.01
-8.08
-8.09
-6.10
-2.27
2.10
5.15
5.46
3.10
-0.39
-3.09
-3.47
-1.37
2.26
5.76
7.40
6.30
3.01
-0.84
-4.21
-5.88
-6.29
-6.91
-9.43
-15.25
-25.13
-39.06
-55.27
-72.08
-85.93
-92.39
-87.45
-69.57
-41.05
-7.64
23.56
46.93
60.19
64.84
64.13
61.06
57.06
52.16
46.28
40.25
35.92
34.92
37.66
42.42
46.26
46.51
42.12
34.49
26.81
22.51
23.49
29.25
36.85
42.45
42.87
37.35
27.79
17.92
11.60
11.45
18.02
29.53
42.10
50.38
49.13
34.64
6.61
-30.53
-67.95
-94.91
-102.73
-88.64
-57.55
-20.10
11.72
29.61
31.81
22.73
9.52
-1.88
-9.07
-13.13
-16.69
-21.81
-28.62
-35.09
-38.33
-35.76
-26.15
-9.87
10.95
33.06
52.92
67.77
76.40
79.02
76.57
69.79
58.66
42.94
23.29
2.04
-16.96
-29.71
-33.98
-30.36
-21.90
-12.75
-6.16
-3.20
-2.47
-1.23
3.05
11.18
21.97
32.62
39.97
41.85
37.78
29.08
18.19
7.57
-1.14
-7.27
-11.23
-13.91
-15.17
-14.99
-13.39
-10.58
-7.06
-3.39
0.25
3.73
6.89
9.24
9.86
8.03
3.86
-1.55
-6.39
-8.92
-8.56
-6.03
-2.79
-0.52
-0.50
-4.01
-12.68
-28.54
-50.21
-74.12
-94.66
-106.70
-108.06
-99.59
-84.38
-66.26
-48.60
-33.42
-21.76
-13.74
-8.84
-6.16
-4.25
-2.01
1.41
5.89
10.75
14.83
17.06
16.57
12.21
5.05
-3.09
-9.29
-10.85
-6.39
3.22
14.90
24.56
28.71
26.60
20.02
13.00
8.66
7.53
7.60
5.90
0.27
-9.73
-22.53
-36.51
-47.15
-52.71
-54.46
-55.16
-57.29
-61.77
-68.08
-73.60
-74.87
-69.23
-52.77
-24.11
15.13
60.82
107.17
148.52
182.59
201.90
205.85
197.82
180.72
155.16
121.01
82.87
42.58
4.95
-25.09
-43.83
-51.31
-50.92
-47.08
-41.27
-34.75
-28.57
-22.91
-18.28
-14.59
-11.62
-8.78
-5.01
0.72
8.16
15.59
21.08
22.93
20.77
15.70
10.30
7.83
11.09
20.69
34.80
48.95
56.51
49.69
23.12
-22.76
-80.29
-135.84
-174.44
-184.56
-163.28
-117.60
-63.28
-17.24
8.74
11.08
-5.97
-34.30
-64.91
-91.97
-107.64
-108.49
-97.64
-83.84
-75.06
-72.96
-77.41
-81.94
-80.85
-70.14
-49.87
-20.53
19.76
68.93
120.98
163.85
187.81
189.50
179.18
159.00
130.81
98.71
65.30
36.27
15.62
5.09
2.96
5.55
7.43
6.12
1.98
-3.40
-7.70
-9.79
-9.03
-5.86
-1.43
1.83
2.96
2.15
-0.01
-2.31
-3.94
-4.06
-2.35
0.94
4.44
7.32
9.08
9.32
8.10
5.49
1.96
-1.89
-5.46
-8.53
-10.75
-11.89
-12.05
-11.47
-10.49
-9.41
-8.31
-7.23
-6.22
-5.26
-4.29
-3.31
-2.34
-1.42
-0.62
-0.00
0.36
0.39
0.09
-0.49
-1.23
-2.00
-2.74
-3.45
-4.21
-5.00
-5.76
-6.34
-6.55
-6.29
-5.56
-4.47
-3.18
-1.85
-0.59
0.46
1.18
1.45
1.17
0.34
-0.92
-2.36
-3.63
-4.36
-4.28
-3.28
-1.53
0.60
2.67
4.30
5.27
5.56
5.28
4.58
3.60
2.46
1.29
0.23
-0.63
-1.24
-1.62
-1.88
-2.14
-2.43
-2.58
-2.26
-1.14
0.92
3.81
7.15
10.44
13.24
15.35
16.91
18.27
19.65
20.98
21.87
21.69
19.78
15.73
9.78
3.11
-2.63
-6.01
-6.46
-4.58
-2.00
-0.78
-2.81
-8.57
-16.67
-24.59
-29.98
-31.74
-30.13
-26.35
-21.59
-16.57
-10.75
-2.72
8.37
21.35
33.18
40.39
40.62
33.40
19.25
-0.32
-22.97
-45.89
-66.01
-79.64
-82.74
-72.17
-45.26
-6.25
33.46
62.47
76.74
79.67
77.57
75.32
74.37
73.04
67.48
54.76
34.94
11.20
-11.70
-28.95
-37.37
-37.84
-33.47
-29.04
-28.39
-32.38
-38.85
-44.27
-45.43
-40.88
-31.28
-18.53
-4.99
8.01
20.56
33.59
46.05
56.07
61.48
60.77
53.92
42.26
28.22
14.58
3.46
-4.48
-9.91
-14.45
-19.98
-27.77
-38.11
-50.03
-61.49
-70.08
-73.94
-72.30
-65.77
-56.02
-45.04
-34.45
-25.11
-17.18
-10.46
-4.85
-0.31
3.02
5.14
6.24
6.80
7.38
8.42
10.13
12.38
14.95
17.53
19.83
21.70
23.06
23.85
24.07
23.67
22.57
20.78
18.35
15.46
12.39
9.45
6.87
4.66
2.61
0.33
-2.57
-6.30
-10.71
-15.28
-19.31
-22.12
-23.34
-22.97
-21.40
-19.16
-16.76
-14.50
-12.44
-10.51
-8.58
-6.59
-4.60
-2.76
-1.20
0.00
0.87
1.48
1.94
2.35
2.72
3.03
3.28
3.50
3.76
4.10
4.43
4.57
4.28
3.38
1.93
0.21
-1.37
-2.47
-3.02
-3.25
-3.54
-4.23
-5.40
-6.91
-8.44
-9.74
-10.70
-11.33
-11.56
-11.20
-9.96
-7.71
-4.71
-1.58
0.96
2.53
3.40
4.30
6.05
8.90
12.27
15.02
16.03
14.79
11.74
7.94
4.52
2.14
0.78
0.03
-0.56
-1.14
-1.49
-1.30
-0.43
0.93
2.28
3.09
3.01
2.00
0.30
-1.72
-3.75
-5.59
-7.17
-8.45
-9.28
-9.47
-8.82
-7.24
-4.84
-1.95
0.95
3.42
5.10
5.87
5.83
5.30
4.65
4.22
4.15
4.32
4.38
3.90
2.57
0.41
-2.23
-4.76
-6.60
-7.37
-7.06
-5.88
-4.20
-2.36
-0.56
1.13
2.72
4.29
5.87
7.52
9.25
11.00
12.64
14.00
14.96
15.53
15.90
16.40
17.36
18.94
20.95
22.88
24.03
23.92
22.53
20.33
18.14
16.68
16.33
16.97
18.15
19.41
20.53
21.51
22.48
23.37
23.87
23.50
21.85
18.85
14.84
10.42
6.25
2.78
0.14
-1.82
-3.44
-5.09
-7.01
-9.28
-11.84
-14.52
-17.17
-19.63
-21.73
-23.32
-24.16
-24.02
-22.74
-20.36
-17.24
-13.95
-11.16
-9.37
-8.73
-8.96
-9.53
-9.84
-9.43
-8.05
-5.58
-2.06
2.23
6.58
9.92
10.99
8.86
3.43
-4.43
-13.12
-20.89
-26.38
-28.96
-28.64
-25.84
-21.15
-15.27
-9.04
-3.38
0.84
3.18
3.77
3.26
2.50
2.15
2.45
3.23
4.16
4.97
5.61
6.20
6.87
7.72
8.76
9.99
11.47
13.26
15.35
17.49
19.27
20.22
20.00
18.55
16.13
13.17
10.11
7.30
4.88
2.90
1.31
0.00
-1.11
-2.05
-2.78
-3.15
-2.97
-2.10
-0.51
1.64
4.00
6.04
7.20
7.00
5.24
2.08
-1.97
-6.11
-9.56
-11.72
-12.29
-11.34
-9.17
-6.25
-3.12
-0.28
1.85
3.09
3.52
3.43
3.27
3.40
3.98
4.87
5.70
6.08
5.71
4.56
2.92
1.28
0.23
0.23
1.38
3.33
5.29
6.30
5.71
3.46
0.29
-2.54
-3.80
-2.94
-0.41
2.44
3.94
2.93
-0.67
-5.71
-10.31
-12.57
-11.41
-7.11
-1.27
3.46
4.20
-1.22
-13.23
-29.84
-46.56
-57.10
-55.08
-36.30
-0.68
46.98
97.82
141.51
169.30
176.62
163.85
135.53
98.26
58.59
21.71
-8.90
-31.12
-43.93
-47.43
-43.19
-34.27
-24.79
-18.79
-18.92
-25.65
-37.25
-50.54
-62.18
-69.77
-72.45
-70.89
-66.66
-61.46
-56.38
-51.64
-46.76
-41.01
-34.02
-25.98
-17.70
-10.14
-3.98
0.62
4.03
6.81
9.33
11.61
13.32
14.07
13.70
12.42
10.73
9.18
8.10
7.53
7.27
7.08
6.84
6.61
6.47
6.35
6.01
5.18
3.77
2.09
0.85
1.03
3.41
8.34
15.72
25.02
35.41
45.69
54.31
59.62
60.45
56.59
48.98
39.54
30.47
23.25
18.04
13.79
8.91
2.36
-5.98
-15.42
-24.56
-31.61
-34.71
-32.27
-23.42
-8.40
11.76
34.82
57.29
75.92
88.61
94.71
94.83
89.91
80.95
69.87
58.55
47.68
38.28
31.56
28.20
27.66
27.39
23.89
15.71
3.01
-13.90
-32.08
-46.94
-54.30
-52.43
-43.33
-31.65
-20.86
-13.91
-15.50
-27.68
-49.54
-78.59
-107.05
-126.09
-141.35
-159.20
-179.23
-205.25
-238.44
-275.44
-308.93
-330.10
-332.18
-312.35
-270.76
-199.69
-109.25
-19.76
50.99
97.65
125.07
140.16
147.20
148.91
146.65
139.05
127.58
115.95
107.94
104.84
104.99
105.23
103.88
100.79
95.18
89.62
86.56
87.73
92.16
96.20
95.54
87.96
74.03
55.48
36.03
19.62
8.91
4.11
3.47
4.65
5.97
6.31
4.40
-0.37
-8.10
-18.08
-29.02
-39.30
-47.21
-51.28
-50.73
-46.20
-39.43
-33.11
-29.93
-31.72
-38.55
-48.27
-57.24
-61.63
-58.97
-49.17
-34.41
-18.11
-3.54
7.18
13.54
16.30
16.89
16.72
16.71
17.22
18.28
19.77
21.47
23.15
24.45
25.11
25.08
24.70
24.69
26.00
29.43
35.16
42.58
50.36
56.80
60.41
60.34
56.69
50.42
43.00
35.86
29.80
24.66
19.40
12.53
2.85
-9.96
-25.11
-40.90
-55.12
-65.64
-70.82
-69.88
-62.98
-51.20
-36.32
-20.41
-5.33
7.64
17.99
25.80
31.43
35.22
37.34
37.75
36.21
32.22
25.11
14.22
-0.60
-18.48
-37.44
-54.92
-68.73
-77.99
-83.30
-86.14
-87.81
-88.59
-87.69
-84.00
-77.07
-67.53
-56.83
-46.34
-36.58
-27.06
-16.81
-5.21
7.41
19.79
30.19
37.21
40.26
39.80
37.17
34.12
32.25
32.46
34.59
37.48
39.39
38.90
35.69
30.81
26.38
24.59
26.70
32.42
40.03
47.11
51.63
52.66
50.52
46.30
41.11
35.57
29.70
23.32
16.49
9.75
3.93
-0.25
-2.60
-3.62
-4.29
-5.63
-8.18
-11.84
-15.91
-19.40
-21.42
-21.48
-19.66
-16.53
-12.97
-9.87
-7.82
-6.92
-6.80
-6.79
-6.30
-5.02
-3.03
-0.78
1.16
2.23
2.02
0.28
-3.07
-7.88
-13.71
-19.87
-25.47
-29.67
-31.92
-32.15
-30.74
-28.35
-25.68
-23.24
-21.25
-19.69
-18.43
-17.34
-16.30
-15.27
-14.22
-13.14
-12.00
-10.83
-9.67
-8.59
-7.64
-6.81
-6.03
-5.18
-4.13
-2.82
-1.27
0.37
1.89
3.10
3.88
4.22
4.25
4.14
4.05
4.09
4.25
4.48
4.64
4.61
4.35
3.87
3.28
2.69
2.21
1.87
1.65
1.50
1.33
1.07
0.68
0.11
-0.62
-1.47
-2.34
-3.13
-3.76
-4.21
-4.49
-4.67
-4.73
-4.63
-4.28
-3.63
-2.71
-1.61
-0.46
0.69
1.83
2.96
4.08
5.10
5.86
6.23
6.14
5.66
4.98
4.29
3.75
3.42
3.24
3.13
2.98
2.75
2.44
2.09
1.74
1.40
1.00
0.48
-0.20
-0.98
-1.73
-2.31
-2.65
-2.83
-3.03
-3.42
-4.08
-4.89
-5.56
-5.73
-5.09
-3.49
-0.96
2.27
5.93
9.72
13.42
16.93
20.24
23.41
26.42
29.23
31.72
33.77
35.32
36.42
37.16
37.66
38.00
38.20
38.22
38.03
37.58
36.85
35.81
34.42
32.64
30.44
27.79
24.77
21.51
18.18
14.98
12.04
9.43
7.14
5.12
3.26
1.42
-0.60
-3.02
-6.01
-9.56
-13.43
-17.16
-20.23
-22.26
-23.12
-22.97
-22.16
-21.08
-19.96
-18.93
-18.00
-17.18
-16.50
-15.98
-15.66
-15.47
-15.26
-14.84
-14.06
-12.82
-11.20
-9.35
-7.54
-5.98
-4.77
-3.85
-3.03
-2.07
-0.78
0.85
2.71
4.55
6.12
7.27
7.97
8.30
8.39
8.39
8.38
8.40
8.45
8.53
8.63
8.73
8.75
8.67
8.48
8.26
8.22
8.56
9.44
10.84
12.54
14.19
15.41
15.92
15.62
14.58
13.02
11.19
9.37
7.71
6.22
4.81
3.28
1.46
-0.71
-3.14
-5.61
-7.86
-9.66
-10.90
-11.63
-12.08
-12.56
-13.49
-15.19
-17.83
-21.36
-25.58
-30.20
-34.87
-39.29
-43.15
-46.21
-48.28
-49.20
-48.92
-47.49
-45.07
-41.89
-38.20
-34.27
-30.44
-27.07
-24.27
-21.92
-19.56
-16.60
-12.51
-7.00
-0.18
7.24
14.30
20.10
23.96
25.32
23.79
19.24
11.96
2.80
-7.31
-17.23
-25.55
-31.08
-33.29
-32.63
-30.20
-27.31
-24.94
-23.99
-24.79
-26.69
-28.59
-29.83
-30.56
-31.61
-33.80
-37.42
-42.70
-49.62
-57.22
-64.02
-68.90
-71.89
-74.46
-79.25
-82.21
-81.42
-78.27
-75.12
-72.14
-66.68
-55.34
-36.24
-9.92
18.62
47.58
74.44
97.00
113.96
124.82
129.77
129.64
125.96
118.65
108.60
96.61
84.04
72.75
64.30
59.31
57.36
57.41
58.33
59.24
59.13
57.65
55.06
51.77
47.78
42.88
37.06
30.95
25.34
20.57
16.84
14.32
12.96
11.94
10.17
6.87
2.46
-2.51
-7.54
-12.03
-15.03
-15.56
-13.57
-9.41
-3.22
6.17
19.04
34.62
51.00
65.83
76.51
79.88
73.57
57.23
33.97
7.06
-20.44
-46.39
-69.20
-82.96
-82.87
-69.05
-53.81
-41.02
-31.28
-21.47
-10.86
0.48
11.84
21.21
26.39
26.07
21.51
13.70
3.65
-7.89
-19.73
-30.66
-40.32
-48.75
-55.77
-59.93
-60.77
-58.57
-54.34
-48.99
-43.27
-38.14
-34.35
-32.10
-30.46
-28.86
-27.04
-25.12
-23.21
-21.43
-20.13
-19.60
-19.85
-20.30
-20.53
-20.23
-19.33
-17.76
-15.53
-12.74
-9.52
-6.02
-2.24
1.68
5.51
8.99
11.93
14.24
15.91
16.98
17.47
17.46
17.00
16.21
15.27
14.32
13.44
12.58
11.62
10.43
8.96
7.25
5.44
3.68
2.08
0.67
-0.56
-1.64
-2.61
-3.53
-4.45
-5.44
-6.59
-7.98
-9.59
-11.29
-12.84
-13.93
-14.27
-13.75
-12.40
-10.43
-8.05
-5.44
-2.67
0.23
3.16
5.98
8.45
10.39
11.73
12.49
12.86
12.95
12.88
12.64
12.23
11.65
10.92
10.13
9.38
8.75
8.25
7.79
7.27
6.54
5.51
4.18
2.68
1.15
-0.27
-1.53
-2.67
-3.81
-5.08
-6.56
-8.25
-10.03
-11.68
-12.87
-13.29
-12.67
-10.95
-8.25
-4.87
-1.21
2.37
5.61
8.44
10.86
12.91
14.61
15.94
16.87
17.38
17.50
17.27
16.74
15.94
14.88
13.57
12.12
10.65
9.37
8.43
7.85
7.50
7.13
6.52
5.51
4.14
2.55
0.95
-0.51
-1.78
-2.90
-3.98
-5.16
-6.61
-8.44
-10.69
-13.19
-15.60
-17.41
-18.10
-17.37
-15.21
-11.93
-8.01
-3.92
-0.04
3.43
6.38
8.80
10.67
12.02
12.96
13.61
14.09
14.45
14.65
14.65
14.40
13.88
13.10
12.10
10.93
9.67
8.45
7.41
6.66
6.21
5.95
5.64
5.05
4.03
2.61
0.98
-0.60
-1.95
-3.06
-4.07
-5.20
-6.60
-8.20
-9.75
-10.91
-11.34
-10.93
-9.70
-7.84
-5.54
-2.93
-0.12
2.80
5.62
8.09
9.98
11.15
11.64
11.60
11.26
10.78
10.24
9.63
8.93
8.11
7.20
6.21
5.18
4.10
2.99
1.91
0.97
0.26
-0.21
-0.54
-0.89
-1.45
-2.27
-3.28
-4.35
-5.34
-6.21
-7.09
-8.15
-9.51
-11.12
-12.72
-13.90
-14.25
-13.53
-11.73
-9.11
-6.04
-2.95
-0.10
2.36
4.45
6.21
7.67
8.82
9.63
10.10
10.27
10.24
10.06
9.79
9.44
8.98
8.38
7.67
6.89
6.11
5.38
4.73
4.11
3.45
2.66
1.67
0.53
-0.69
-1.85
-2.86
-3.74
-4.62
-5.73
-7.20
-9.03
-10.98
-12.71
-13.81
-14.01
-13.24
-11.56
-9.20
-6.36
-3.30
-0.22
2.63
5.02
6.81
7.99
8.70
9.17
9.60
10.13
10.72
11.27
11.62
11.68
11.39
10.77
9.91
8.90
7.85
6.86
5.94
5.05
4.12
3.06
1.82
0.42
-1.06
-2.51
-3.79
-4.84
-5.67
-6.40
-7.22
-8.31
-9.76
-11.53
-13.43
-15.17
-16.47
-17.09
-16.90
-15.87
-14.05
-11.58
-8.67
-5.57
-2.52
0.30
2.83
5.05
6.97
8.62
9.93
10.88
11.43
11.64
11.58
11.36
11.09
10.80
10.48
10.09
9.56
8.87
8.05
7.18
6.34
5.57
4.86
4.11
3.20
2.10
0.84
-0.47
-1.77
-3.01
-4.24
-5.53
-6.93
-8.43
-9.98
-11.59
-13.28
-15.04
-16.77
-18.25
-19.15
-19.17
-18.16
-16.18
-13.47
-10.32
-7.00
-3.72
-0.59
2.23
4.63
6.52
7.87
8.76
9.32
9.72
10.05
10.34
10.52
10.51
10.21
9.63
8.88
8.11
7.51
7.18
7.09
7.12
7.12
6.96
6.61
6.13
5.58
4.99
4.35
3.60
2.73
1.76
0.76
-0.22
-1.19
-2.20
-3.33
-4.60
-5.92
-7.20
-8.33
-9.38
-10.47
-11.72
-13.12
-14.40
-15.17
-15.05
-13.87
-11.76
-9.02
-6.02
-3.01
-0.09
2.71
5.32
7.61
9.41
10.62
11.29
11.58
11.68
11.68
11.60
11.37
10.92
10.26
9.42
8.43
7.34
6.18
5.02
3.98
3.17
2.65
2.39
2.28
2.12
1.80
1.22
0.39
-0.69
-1.95
-3.33
-4.69
-5.90
-6.87
-7.60
-8.25
-9.04
-10.21
-11.82
-13.74
-15.62
-17.00
-17.52
-16.97
-15.38
-12.97
-10.05
-6.93
-3.85
-1.00
1.48
3.50
5.05
6.15
6.93
7.49
7.94
8.27
8.43
8.37
8.10
7.68
7.20
6.73
6.28
5.80
5.28
4.75
4.25
3.85
3.53
3.17
2.65
1.88
0.84
-0.34
-1.55
-2.67
-3.65
-4.52
-5.33
-6.17
-7.12
-8.28
-9.70
-11.33
-13.02
-14.52
-15.53
-15.80
-15.20
-13.77
-11.67
-9.10
-6.22
-3.21
-0.21
2.58
5.00
6.90
8.24
9.07
9.54
9.81
9.97
10.05
10.00
9.79
9.43
8.96
8.43
7.86
7.21
6.47
5.69
4.94
4.32
3.87
3.51
3.12
2.55
1.75
0.75
-0.34
-1.41
-2.41
-3.39
-4.43
-5.61
-6.93
-8.35
-9.83
-11.38
-13.05
-14.82
-16.61
-18.15
-19.14
-19.27
-18.43
-16.68
-14.26
-11.48
-8.59
-5.73
-2.95
-0.27
2.24
4.49
6.38
7.83
8.83
9.43
9.75
9.89
9.96
10.02
10.05
10.01
9.87
9.62
9.28
8.90
8.52
8.13
7.66
7.05
6.27
5.35
4.36
3.41
2.54
1.78
1.08
0.36
-0.46
-1.42
-2.50
-3.62
-4.68
-5.61
-6.47
-7.39
-8.56
-10.09
-11.96
-13.97
-15.83
-17.26
-18.06
-18.11
-17.36
-15.82
-13.55
-10.65
-7.33
-3.84
-0.44
2.68
5.40
7.66
9.47
10.88
11.96
12.80
13.48
14.03
14.41
14.53
14.32
13.81
13.09
12.32
11.61
11.00
10.42
9.77
9.03
8.23
7.45
6.74
6.06
5.30
4.37
3.26
2.02
0.76
-0.44
-1.57
-2.71
-3.92
-5.29
-6.82
-8.48
-10.23
-12.00
-13.63
-14.91
-15.63
-15.57
-14.67
-12.95
-10.59
-7.78
-4.75
-1.68
1.29
4.01
6.43
8.50
10.24
11.71
12.95
13.97
14.73
15.17
15.31
15.22
15.05
14.91
14.90
15.00
15.16
15.34
15.53
15.72
15.94
16.17
16.39
16.55
16.69
16.85
17.09
17.45
17.95
18.55
19.24
20.01
20.87
21.84
22.97
24.31
25.99
28.22
31.20
35.11
40.02
45.92
52.72
60.30
68.46
76.81
84.67
91.09
94.83
94.75
90.01
80.42
66.50
49.31
30.24
10.63
-8.38
-26.01
-41.71
-55.20
-66.31
-75.11
-81.89
-87.10
-91.26
-94.81
-97.93
-100.58
-102.54
-103.55
-103.46
-102.27
-100.11
-97.15
-93.59
-89.56
-85.20
-80.64
-76.07
-71.70
-67.80
-64.61
-62.22
-60.48
-58.95
-57.02
-54.01
-49.53
-43.53
-36.37
-28.67
-21.07
-14.08
-7.94
-2.69
1.82
5.74
9.24
12.41
15.32
17.96
20.29
22.19
23.57
24.35
24.49
24.03
23.09
21.86
20.61
19.56
18.86
18.51
18.38
18.22
17.79
16.97
15.72
14.18
12.53
10.97
9.64
8.62
7.85
7.21
6.51
5.57
4.33
2.87
1.34
-0.06
-1.25
-2.29
-3.31
-4.44
-5.72
-7.15
-8.67
-10.19
-11.65
-12.92
-13.74
-13.79
-12.80
-10.68
-7.59
-3.96
-0.25
3.16
6.14
8.72
11.03
13.16
15.11
16.80
18.12
19.00
19.45
19.52
19.29
18.83
18.21
17.47
16.69
15.96
15.35
14.87
14.50
14.15
13.73
13.18
12.52
11.75
10.95
10.14
9.31
8.46
7.56
6.54
5.37
4.02
2.48
0.82
-0.84
-2.39
-3.76
-4.95
-6.06
-7.20
-8.45
-9.85
-11.29
-12.59
-13.53
-13.86
-13.42
-12.13
-10.04
-7.27
-4.07
-0.73
2.43
5.13
7.25
8.80
9.94
10.86
11.69
12.44
12.98
13.18
13.00
12.51
11.90
11.39
11.12
11.09
11.23
11.39
11.41
11.16
10.59
9.71
8.61
7.46
6.39
5.45
4.62
3.76
2.76
1.56
0.24
-1.06
-2.20
-3.09
-3.78
-4.42
-5.18
-6.23
-7.66
-9.45
-11.45
-13.43
-15.10
-16.15
-16.33
-15.48
-13.62
-10.95
-7.73
-4.32
-1.01
2.01
4.67
7.00
9.08
10.91
12.42
13.48
14.02
14.04
13.71
13.24
12.80
12.48
12.22
11.90
11.43
10.81
10.13
9.54
9.16
8.95
8.80
8.52
7.96
7.11
6.11
5.14
4.34
3.69
3.04
2.20
1.04
-0.40
-1.94
-3.39
-4.65
-5.71
-6.66
-7.59
-8.59
-9.69
-10.94
-12.38
-14.00
-15.63
-17.05
-17.94
-18.07
-17.35
-15.85
-13.71
-11.09
-8.17
-5.07
-1.93
1.08
3.82
6.21
8.20
9.79
11.01
11.87
12.39
12.65
12.72
12.69
12.61
12.47
12.22
11.81
11.28
10.69
10.15
9.72
9.39
9.11
8.81
8.43
7.95
7.36
6.69
5.93
5.09
4.16
3.16
2.10
1.00
-0.11
-1.20
-2.31
-3.46
-4.70
-6.08
-7.55
-9.06
-10.51
-11.85
-13.11
-14.32
-15.54
-16.69
-17.60
-18.00
-17.65
-16.44
-14.42
-11.78
-8.77
-5.67
-2.63
0.21
2.79
5.11
7.14
8.89
10.35
11.52
12.37
12.90
13.15
13.15
12.99
12.70
12.35
11.95
11.53
11.12
10.71
10.27
9.72
8.99
8.02
6.85
5.58
4.36
3.33
2.53
1.89
1.24
0.45
-0.56
-1.77
-3.10
-4.41
-5.62
-6.70
-7.69
-8.68
-9.77
-11.05
-12.56
-14.22
-15.84
-17.13
-17.78
-17.53
-16.28
-14.14
-11.35
-8.25
-5.16
-2.30
0.24
2.43
4.30
5.85
7.11
8.08
8.85
9.51
10.13
10.71
11.14
11.28
11.02
10.39
9.51
8.59
7.81
7.24
6.86
6.55
6.21
5.78
5.25
4.64
3.96
3.18
2.25
1.13
-0.17
-1.58
-3.00
-4.33
-5.53
-6.63
-7.69
-8.79
-9.92
-11.12
-12.39
-13.79
-15.40
-17.23
-19.16
-20.91
-22.09
-22.41
-21.70
-20.05
-17.67
-14.82
-11.74
-8.53
-5.27
-2.00
1.13
3.94
6.26
7.95
9.04
9.65
9.99
10.26
10.60
11.04
11.49
11.85
12.00
11.92
11.66
11.30
10.95
10.63
10.32
9.95
9.49
8.92
8.29
7.62
6.94
6.18
5.30
4.24
3.01
1.69
0.42
-0.69
-1.59
-2.33
-3.00
-3.71
-4.53
-5.49
-6.55
-7.70
-8.94
-10.35
-11.96
-13.75
-15.56
-17.09
-18.04
-18.12
-17.24
-15.47
-13.00
-10.10
-6.99
-3.85
-0.83
1.97
4.47
6.59
8.34
9.72
10.79
11.61
12.20
12.59
12.77
12.74
12.54
12.20
11.80
11.41
11.07
10.79
10.53
10.27
9.96
9.61
9.19
8.66
7.93
6.96
5.74
4.40
3.11
2.02
1.18
0.49
-0.27
-1.28
-2.57
-4.01
-5.36
-6.43
-7.20
-7.84
-8.61
-9.76
-11.38
-13.33
-15.31
-16.94
-17.85
-17.83
-16.81
-14.85
-12.18
-9.07
-5.81
-2.64
0.26
2.77
4.82
6.44
7.67
8.65
9.50
10.30
11.06
11.67
12.05
12.13
11.96
11.69
11.44
11.27
11.14
10.93
10.56
10.01
9.36
8.70
8.08
7.46
6.74
5.87
4.85
3.77
2.73
1.77
0.84
-0.14
-1.24
-2.48
-3.83
-5.20
-6.50
-7.67
-8.69
-9.60
-10.50
-11.49
-12.67
-14.14
-15.97
-18.01
-19.92
-21.20
-21.34
-19.97
-17.05
-13.03
-8.76
-5.18
-2.75
-1.34
-0.25
1.30
3.94
7.80
12.27
16.17
18.32
18.27
16.49
14.10
12.34
12.22
14.28
17.98
21.75
23.69
22.73
18.99
13.59
8.12
4.68
5.38
10.85
19.12
25.89
25.85
14.69
-9.13
-42.96
-79.43
-108.23
-120.25
-111.12
-81.96
-37.75
14.77
68.71
114.62
140.47
139.88
117.33
83.78
49.44
20.64
-0.08
-12.60
-18.11
-16.63
-7.07
10.40
32.49
53.48
67.53
70.89
62.95
44.79
20.79
-3.46
-23.73
-38.67
-49.13
-56.40
-61.04
-62.81
-61.42
-56.73
-49.34
-40.73
-32.79
-26.76
-22.62
-19.34
-15.95
-12.31
-8.94
-6.84
-6.90
-9.47
-14.15
-19.90
-25.54
-30.26
-33.83
-36.21
-37.51
-37.86
-37.44
-36.45
-35.15
-33.78
-32.52
-31.35
-29.96
-27.97
-25.15
-21.50
-17.29
-12.84
-8.30
-3.59
1.65
7.91
15.49
24.29
33.83
43.41
52.29
59.96
66.08
70.66
74.13
77.04
79.76
82.23
83.97
84.21
82.31
77.79
71.09
63.62
57.17
52.97
51.10
50.49
49.23
45.42
37.10
24.04
8.04
-7.96
-21.53
-31.85
-39.78
-47.30
-56.19
-68.41
-83.67
-99.32
-111.91
-119.40
-122.10
-121.89
-121.27
-122.13
-127.10
-137.05
-150.25
-163.04
-171.04
-170.17
-156.85
-129.35
-80.41
-15.03
50.15
96.78
116.50
112.83
95.11
73.42
51.74
30.99
9.71
-12.05
-31.61
-45.21
-48.55
-41.08
-25.13
-4.73
16.31
34.27
47.78
58.09
67.67
77.98
88.27
96.34
99.55
