1536356217.00
64.000000
-0.00
-0.00
-0.00
-0.00
-0.00
-0.00
-0.00
-0.00
-0.00
-0.00
0.00
0.01
0.01
-0.00
-0.03
-0.05
-0.05
0.00
0.13
0.36
0.66
1.01
1.37
1.72
2.06
2.40
2.79
3.24
3.80
4.43
5.08
5.70
6.27
6.81
7.36
8.01
8.82
9.89
11.15
12.47
13.72
14.83
15.82
16.85
18.14
19.85
22.24
25.13
28.24
31.27
34.02
36.57
39.24
42.50
46.70
52.25
58.82
65.84
72.71
79.04
84.90
90.80
97.50
105.63
115.79
127.51
139.93
152.07
163.25
173.46
183.34
194.36
205.41
218.93
235.58
255.34
276.79
296.79
310.85
314.35
304.15
279.68
243.60
199.83
152.49
104.46
56.92
9.93
-36.60
-82.14
-125.61
-165.53
-201.36
-233.42
-262.45
-289.06
-313.48
-335.79
-356.19
-375.22
-393.07
-409.28
-422.10
-428.87
-427.19
-415.79
-395.53
-368.91
-338.79
-307.14
-274.92
-242.45
-210.44
-180.42
-154.36
-133.51
-117.43
-103.97
-90.30
-74.52
-56.67
-38.71
-23.31
-12.34
-5.79
-1.72
2.62
9.21
18.15
27.71
35.32
39.25
39.61
38.35
38.07
40.54
45.51
50.87
53.90
52.96
48.55
43.13
39.66
39.85
43.10
46.80
47.87
44.69
38.10
31.03
26.79
27.11
31.12
35.86
37.94
35.58
29.51
22.52
17.83
17.32
20.53
25.10
28.01
27.32
23.07
17.17
12.35
10.62
12.24
15.57
18.05
17.72
14.40
9.85
6.74
7.05
10.75
15.67
18.74
17.85
13.26
7.54
4.18
5.45
10.96
17.75
21.96
21.11
15.48
8.12
2.86
2.32
6.30
12.02
15.83
15.33
10.74
4.54
0.10
-0.43
2.82
7.64
11.07
11.12
7.81
3.06
-0.53
-1.12
1.31
5.00
7.39
6.58
2.50
-3.05
-7.31
-8.13
-5.18
-0.44
2.97
2.45
-2.41
-9.44
-15.03
-16.17
-12.31
-5.77
-0.41
0.65
-3.04
-9.07
-13.50
-13.50
-8.82
-2.13
2.77
3.13
-1.06
-7.27
-11.94
-12.56
-9.10
-3.67
0.60
1.48
-1.31
-6.06
-10.21
-11.69
-9.99
-6.40
-3.10
-1.97
-3.48
-6.43
-8.62
-8.13
-4.46
0.97
5.60
7.17
5.03
0.78
-2.57
-2.34
2.14
8.99
14.73
16.31
13.08
7.14
2.29
1.75
6.34
13.95
20.81
23.73
21.91
17.31
13.44
13.26
17.44
24.10
29.93
32.22
30.28
25.78
21.69
20.55
23.07
27.74
31.82
32.87
30.21
25.28
20.79
19.19
21.17
25.27
28.64
28.75
24.90
18.66
13.11
11.00
13.09
17.65
21.37
21.38
16.97
10.10
4.18
2.18
4.74
9.85
13.97
14.16
9.81
3.03
-2.66
-4.29
-1.22
4.53
9.47
10.61
7.15
0.89
-4.91
-7.28
-5.20
-0.08
5.06
7.35
5.65
1.14
-3.44
-5.35
-3.48
1.01
5.38
6.93
4.64
-0.19
-4.70
-6.13
-3.54
1.52
5.90
6.71
3.19
-2.77
-7.70
-8.55
-4.61
2.03
7.65
9.00
5.24
-1.56
-7.72
-9.95
-7.26
-1.41
4.21
6.55
4.66
-0.05
-4.61
-6.36
-4.29
0.43
5.25
7.68
6.60
2.81
-1.46
-3.85
-3.12
0.13
3.77
5.43
3.84
-0.33
-4.78
-6.80
-4.90
0.11
5.52
8.12
6.15
0.47
-5.86
-9.27
-7.83
-2.43
3.78
7.20
6.00
1.10
-4.38
-7.12
-5.44
-0.42
4.95
7.55
5.98
1.21
-4.06
-7.06
-6.45
-2.91
1.41
4.11
3.87
1.05
-2.55
-4.79
-4.29
-1.32
2.46
4.80
4.25
1.02
-3.10
-5.67
-5.05
-1.47
3.00
5.62
4.61
0.39
-4.61
-7.38
-6.11
-1.48
3.75
6.33
4.56
-0.69
-6.35
-9.07
-7.10
-1.45
4.77
8.12
6.85
1.86
-3.86
-7.01
-5.81
-0.97
4.83
8.47
8.08
3.99
-1.52
-5.59
-6.24
-3.50
0.71
3.71
3.58
0.33
-4.11
-7.02
-6.47
-2.49
2.77
6.34
6.09
2.12
-3.24
-6.77
-6.23
-1.85
3.82
7.34
6.52
1.72
-4.28
-7.95
-7.10
-2.22
3.80
7.38
6.40
1.45
-4.57
-8.15
-7.24
-2.44
3.44
7.04
6.41
2.09
-3.29
-6.54
-5.80
-1.54
3.73
6.98
6.34
2.25
-2.88
-6.07
-5.49
-1.45
3.63
6.75
5.93
1.45
-4.28
-8.05
-7.71
-3.48
2.19
5.97
5.68
1.59
-3.72
-6.85
-5.67
-0.57
5.67
9.50
8.65
3.58
-2.95
-7.31
-7.19
-2.89
2.97
6.97
6.90
2.90
-2.59
-6.46
-6.59
-3.03
2.02
5.67
5.86
2.58
-2.25
-5.80
-6.03
-2.79
2.11
5.91
6.54
3.71
-0.80
-4.29
-4.61
-1.57
3.00
6.19
5.88
2.04
-3.16
-6.52
-5.83
-1.20
4.80
8.63
7.88
2.69
-4.15
-8.87
-8.82
-4.08
2.60
7.42
7.78
3.68
-2.36
-6.75
-7.08
-3.30
2.35
6.65
7.33
4.19
-0.88
-5.03
-6.10
-3.77
0.34
3.58
3.91
1.02
-3.46
-6.86
-7.06
-3.75
1.19
4.87
5.02
1.45
-3.73
-7.33
-7.05
-2.89
2.77
6.55
6.19
1.89
-3.79
-7.44
-6.83
-2.17
3.93
8.07
7.97
3.72
-2.37
-6.99
-7.75
-4.34
1.39
6.42
8.26
6.13
1.36
-3.42
-5.74
-4.54
-0.86
2.93
4.44
2.73
-1.20
-4.97
-6.23
-4.14
-0.01
3.56
4.20
1.37
-3.14
-6.28
-5.55
-0.75
5.76
10.33
10.20
5.29
-1.79
-7.05
-7.59
-3.21
3.47
8.47
8.85
4.36
-2.54
-8.08
-9.37
-5.94
0.16
5.61
7.73
5.85
1.43
-2.89
-4.85
-3.68
-0.49
2.54
3.48
1.75
-1.53
-4.23
-4.42
-1.61
2.94
6.77
7.65
4.87
-0.23
-4.86
-6.38
-3.93
0.90
4.91
5.17
0.97
-5.67
-11.07
-11.99
-7.63
-0.12
6.66
9.34
6.97
1.50
-3.55
-5.13
-2.44
2.67
6.93
7.62
4.07
-1.95
-7.29
-9.18
-6.65
-1.02
4.81
8.00
7.14
3.01
-1.96
-5.08
-4.88
-1.87
1.77
3.60
2.35
-1.22
-4.76
-5.73
-3.02
2.15
6.88
8.20
5.06
-0.93
-6.31
-7.82
-4.40
2.03
7.66
9.03
5.11
-2.02
-8.46
-10.68
-7.61
-1.13
5.07
7.65
5.51
0.16
-5.16
-7.46
-5.55
-0.56
4.73
7.58
6.64
2.71
-1.83
-4.38
-3.56
0.03
4.05
5.89
4.16
-0.42
-5.28
-7.50
-5.47
-0.14
5.53
8.10
5.75
-0.46
-7.16
-10.54
-8.69
-2.70
3.94
7.48
6.18
1.23
-3.97
-6.04
-3.59
1.86
6.94
8.50
5.57
-0.27
-5.77
-7.98
-5.90
-0.86
4.29
6.83
5.63
1.56
-3.06
-5.80
-5.36
-2.29
1.47
3.64
3.01
0.08
-3.26
-4.76
-3.25
0.58
4.48
6.00
4.04
-0.27
-4.18
-4.91
-1.53
4.24
8.93
9.34
4.63
-3.09
-9.84
-12.05
-8.69
-1.74
4.89
7.69
5.49
0.02
-5.30
-7.36
-5.10
-0.00
4.95
6.98
5.07
0.40
-4.38
-6.66
-5.21
-0.90
3.84
6.36
5.26
1.15
-3.63
-6.33
-5.35
-1.11
3.97
6.97
6.06
1.67
-3.68
-6.82
-5.80
-1.14
4.35
7.28
5.74
0.55
-5.22
-8.03
-6.07
-0.45
5.53
8.28
6.14
0.38
-5.65
-8.48
-6.56
-1.12
4.63
7.42
5.71
0.51
-5.32
-8.68
-7.85
-3.40
2.24
6.12
6.39
3.30
-1.01
-3.80
-3.29
0.29
4.76
7.35
6.31
2.06
-3.02
-5.93
-4.84
-0.34
4.83
7.35
5.43
-0.07
-5.98
-8.69
-6.36
-0.10
6.55
9.72
7.48
1.11
-5.79
-9.28
-7.43
-1.47
5.15
8.80
7.73
2.88
-2.82
-6.34
-6.11
-2.76
1.44
3.99
3.49
0.34
-3.57
-5.90
-5.15
-1.48
3.28
6.53
6.48
3.11
-1.71
-5.16
-5.13
-1.61
3.23
6.33
5.54
1.18
-4.12
-6.96
-5.31
0.07
6.00
8.77
6.42
-0.11
-7.26
-11.15
-9.62
-3.61
3.54
7.96
7.50
2.82
-3.19
-7.08
-6.85
-2.85
2.54
6.28
6.44
3.09
-1.75
-5.30
-5.52
-2.32
2.45
5.93
6.01
2.56
-2.48
-6.12
-6.13
-2.40
2.76
6.13
5.40
0.80
-4.95
-8.27
-6.88
-1.36
5.17
8.85
7.48
1.88
-4.60
-8.09
-6.55
-0.89
5.54
9.01
7.58
2.16
-4.16
-7.93
-7.32
-2.98
2.52
6.15
6.11
2.70
-2.06
-5.54
-5.91
-3.08
1.29
4.71
5.24
2.58
-1.77
-5.28
-5.86
-3.07
1.45
4.94
5.10
1.58
-3.68
-7.47
-7.28
-2.89
3.33
7.77
7.73
3.15
-3.35
-7.91
-7.79
-3.00
3.70
8.44
8.49
3.90
-2.64
-7.39
-7.73
-3.67
2.32
6.87
7.64
4.57
-0.29
-4.09
-4.83
-2.41
1.41
4.13
4.01
1.05
-2.99
-5.66
-5.18
-1.58
3.28
6.69
6.61
2.93
-2.37
-6.31
-6.53
-2.83
2.59
6.36
5.95
1.30
-5.05
-9.40
-9.01
-3.87
3.32
8.59
9.07
4.66
-1.92
-6.80
-7.14
-2.82
3.61
8.39
8.84
4.72
-1.61
-6.69
-7.88
-4.70
0.96
5.96
7.71
5.43
0.59
-4.08
-6.11
-4.66
-0.95
2.48
3.36
1.07
-2.97
-6.07
-5.90
-2.04
3.64
7.94
8.22
4.07
-2.29
-7.26
-7.88
-3.70
2.93
8.15
8.88
4.56
-2.45
-8.32
-9.88
-6.46
-0.23
5.19
6.84
4.14
-1.01
-5.37
-6.36
-3.43
1.68
6.06
7.40
5.19
0.94
-2.73
-3.68
-1.43
2.63
5.96
6.41
3.51
-1.30
-5.36
-6.28
-3.35
1.83
6.24
7.01
3.22
-3.34
-9.22
-11.07
-7.80
-1.22
4.93
7.23
4.67
-0.85
-5.54
-6.25
-2.20
4.35
9.55
10.21
5.75
-1.63
-8.14
-10.58
-8.07
-2.26
3.62
6.63
5.59
1.47
-3.25
-6.05
-5.60
-2.53
1.25
3.54
3.19
0.70
-2.15
-3.35
-1.96
1.26
4.22
4.88
2.50
-1.60
-4.71
-4.39
-0.13
6.03
10.48
10.17
4.58
-3.80
-10.68
-12.49
-8.33
-0.58
6.48
9.13
6.25
-0.15
-6.28
-8.77
-6.50
-1.14
4.05
6.14
4.13
-0.59
-5.19
-7.02
-5.08
-0.55
3.90
5.71
3.83
-0.63
-5.07
-6.84
-4.82
-0.06
4.74
6.85
5.05
0.40
-4.32
-6.23
-4.06
0.98
5.93
7.77
5.31
-0.09
-5.28
-7.17
-4.61
0.94
6.22
8.11
5.44
-0.29
-5.88
-8.23
-6.18
-1.10
3.97
6.15
4.34
-0.21
-4.74
-6.57
-4.59
0.14
5.03
7.48
6.35
2.56
-1.47
-3.27
-1.76
2.15
5.97
7.20
4.86
0.08
-4.45
-5.98
-3.39
1.98
6.99
8.44
5.07
-1.56
-7.89
-10.23
-7.08
-0.03
6.97
9.90
6.99
-0.11
-7.38
-10.69
-8.21
-1.45
5.69
9.28
7.63
2.08
-3.99
-7.25
-6.30
-2.24
2.18
4.27
2.98
-0.69
-4.40
-5.89
-4.25
-0.39
3.51
5.19
3.65
-0.27
-4.33
-6.07
-4.20
0.47
5.40
7.68
5.77
0.61
-4.85
-7.24
-4.93
0.91
6.78
8.94
5.73
-1.41
-8.60
-11.91
-9.55
-2.93
4.12
7.74
6.23
0.91
-4.87
-7.67
-6.08
-1.26
3.87
6.36
4.97
0.73
-3.79
-5.94
-4.49
-0.27
4.30
6.61
5.33
1.14
-3.62
-6.25
-5.27
-1.20
3.54
6.15
5.09
1.01
-3.47
-5.40
-3.26
2.00
7.38
9.64
7.21
1.23
-5.11
-8.35
-6.82
-1.54
4.33
7.36
5.78
0.51
-5.55
-9.07
-8.20
-3.50
2.40
6.38
6.51
3.03
-1.89
-5.36
-5.44
-2.08
2.77
6.41
6.87
4.02
-0.32
-3.57
-3.83
-1.02
3.02
5.62
4.90
0.96
-4.04
-7.07
-6.03
-1.14
4.92
8.48
7.07
0.98
-6.73
-11.87
-11.61
-6.10
1.55
7.07
7.55
3.09
-3.33
-7.77
-7.56
-2.96
3.19
7.28
6.97
2.54
-3.35
-7.42
-7.45
-3.52
2.12
6.43
7.26
4.51
0.06
-3.31
-3.60
-0.71
3.54
6.45
6.13
2.59
-2.18
-5.40
-5.07
-1.32
3.62
6.62
5.55
0.63
-5.51
-9.37
-8.56
-3.29
3.62
8.34
8.23
3.35
-3.51
-8.54
-9.00
-4.83
1.42
6.09
6.62
2.92
-2.81
-7.35
-8.47
-5.93
-1.50
2.22
3.40
1.78
-1.24
-3.66
-4.06
-2.49
-0.18
1.03
0.00
-2.94
-6.14
-7.40
-5.20
0.32
6.85
11.09
10.26
4.11
-4.55
-11.08
-11.43
-4.83
5.50
13.88
15.45
9.07
-1.76
-11.04
-13.85
-9.02
-0.02
7.65
9.84
6.23
-0.19
-5.22
-6.39
-4.12
-0.74
1.28
1.09
-0.46
-1.80
-1.89
-0.68
1.14
2.71
3.73
3.99
3.60
2.71
1.63
1.03
1.68
3.58
5.71
6.44
4.58
0.82
-2.40
-2.31
2.21
9.24
14.65
14.55
8.18
-1.61
-9.51
-11.14
-5.66
3.63
11.24
12.82
7.72
-0.91
-8.26
-10.70
-7.88
-2.48
1.78
2.28
-1.00
-5.84
-9.24
-9.22
-5.67
-0.55
3.40
4.16
1.51
-2.88
-6.35
-6.76
-3.69
1.25
5.24
5.89
2.66
-2.65
-6.86
-7.24
-3.18
3.25
8.44
9.26
5.07
-1.91
-7.80
-9.30
-5.67
0.98
6.82
8.67
5.71
-0.09
-5.31
-7.04
-4.56
0.36
4.70
5.92
3.45
-1.16
-5.20
-6.36
-4.03
0.43
4.48
5.83
3.70
-0.70
-4.85
-6.37
-4.32
0.19
4.54
6.15
3.95
-0.95
-5.73
-7.55
-5.24
-0.07
4.87
6.51
3.73
-1.86
-6.87
-8.03
-4.26
2.59
8.78
10.77
7.27
0.10
-6.94
-10.25
-8.32
-2.62
3.44
6.59
5.46
1.12
-3.80
-6.77
-6.70
-4.25
-1.26
0.56
0.54
-0.68
-1.70
-1.22
1.12
4.54
7.49
8.32
6.41
2.46
-1.64
-3.79
-2.69
0.95
4.85
6.23
3.65
-1.71
-6.46
-6.96
-1.70
7.26
15.20
17.31
11.72
0.87
-9.65
-14.46
-11.20
-2.11
7.55
12.56
10.85
4.19
-3.25
-7.53
-7.17
-3.33
1.33
4.42
5.10
3.98
2.35
1.14
0.58
0.08
-0.93
-2.82
-5.24
-7.25
-7.73
-5.79
-1.21
5.09
10.83
13.37
10.82
3.56
-5.38
-11.75
-12.13
-6.22
2.75
9.65
10.48
4.69
-4.30
-11.35
-12.62
-7.74
-0.05
5.86
7.05
3.97
-0.47
-3.05
-2.53
-0.22
1.47
0.70
-2.37
-5.95
-7.99
-7.42
-4.63
-0.94
2.14
3.92
4.21
3.47
2.31
1.27
0.80
1.13
1.75
1.58
-0.37
-4.21
-8.34
-10.19
-7.77
-1.30
6.15
10.21
7.82
-0.37
-10.19
-15.88
-13.73
-4.31
7.67
15.97
16.52
9.70
-0.31
-8.11
-10.08
-6.22
0.63
6.95
10.35
10.42
8.12
4.62
0.73
-2.97
-6.15
-8.37
-9.26
-8.78
-7.15
-4.71
-1.77
1.34
4.10
5.48
4.55
1.18
-3.36
-6.61
-6.20
-1.47
5.65
11.33
12.00
6.83
-1.75
-9.23
-11.63
-7.93
-0.68
5.67
7.41
3.78
-2.57
-7.67
-8.40
-4.58
1.23
5.54
6.11
3.12
-1.23
-4.30
-4.63
-2.52
0.42
2.31
2.17
0.30
-1.95
-3.14
-2.50
-0.37
2.00
3.01
1.68
-1.73
-5.66
-7.83
-6.43
-1.28
5.53
10.53
10.62
5.14
-3.31
-10.21
-11.38
-5.71
4.15
13.04
16.28
12.38
4.00
-3.88
-6.88
-3.73
2.96
8.71
9.99
6.37
0.19
-5.13
-7.43
-6.81
-4.83
-3.33
-2.94
-3.08
-2.77
-1.56
0.12
1.30
1.33
0.28
-1.31
-2.60
-3.03
-2.38
-0.60
2.25
5.49
7.89
8.02
5.09
0.24
-3.90
-4.34
0.21
8.07
15.07
16.79
11.45
1.04
-9.25
-14.35
-11.92
-3.91
4.82
9.47
8.26
3.10
-2.20
-4.33
-2.75
0.57
2.76
2.04
-1.16
-4.83
-6.67
-5.63
-2.15
1.91
4.66
4.86
2.59
-0.80
-3.49
-3.82
-1.20
3.55
8.05
9.61
6.54
-0.54
-8.42
-13.07
-11.73
-4.92
3.68
9.12
8.28
1.85
-6.20
-10.77
-9.23
-2.65
4.57
7.72
4.75
-2.42
-9.43
-12.18
-9.43
-3.40
2.18
4.19
1.98
-2.54
-6.42
-7.38
-4.94
-0.32
4.19
6.65
6.25
3.60
0.36
-1.61
-1.21
1.32
4.38
5.80
4.19
-0.21
-5.31
-8.25
-7.29
-2.76
2.85
6.39
5.91
2.01
-2.79
-5.35
-4.00
0.48
5.37
7.66
5.89
1.08
-3.86
-5.97
-3.88
1.20
6.26
8.28
5.98
0.69
-4.50
-6.46
-4.01
1.44
6.63
8.34
5.35
-0.78
-6.65
-8.90
-6.21
-0.08
5.98
8.46
5.87
-0.40
-6.89
-10.00
-8.05
-2.18
4.30
7.81
6.53
1.40
-4.52
-7.75
-6.46
-1.49
4.15
7.11
5.66
0.76
-4.55
-6.91
-4.68
1.04
6.98
9.57
7.01
0.43
-6.77
-10.79
-9.56
-3.94
2.84
7.01
6.41
1.63
-4.37
-8.08
-7.40
-2.95
2.45
5.39
4.02
-0.88
-6.38
-9.08
-7.20
-1.60
4.60
7.86
6.17
0.25
-6.92
-11.77
-12.14
-8.52
-3.59
-0.65
-1.61
-5.90
-10.92
-13.62
-12.44
-8.23
-3.81
-2.27
-5.13
-11.35
-17.99
-21.88
-21.58
-18.20
-14.72
-14.16
-17.69
-23.84
-29.35
-31.17
-28.34
-22.73
-18.09
-17.81
-22.96
-31.26
-37.97
-37.95
-28.04
-8.56
16.69
41.95
61.75
72.85
75.18
71.18
64.58
58.73
55.48
54.95
56.18
58.10
60.20
62.49
65.08
67.53
68.74
67.31
62.25
53.60
42.51
30.81
20.30
12.05
6.13
1.81
-2.00
-6.17
-10.97
-16.02
-20.54
-23.82
-25.48
-25.69
-24.99
-24.06
-23.44
-23.30
-23.50
-23.69
-23.51
-22.78
-21.54
-19.99
-18.41
-17.00
-15.85
-14.90
-14.04
-13.16
-12.19
-11.17
-10.22
-9.48
-9.12
-9.25
-9.92
-11.11
-12.74
-14.71
-16.82
-18.89
-20.70
-22.04
-22.72
-22.62
-21.69
-19.95
-17.50
-14.56
-11.35
-8.11
-5.06
-2.37
-0.14
1.62
2.96
3.93
4.62
5.10
5.41
5.57
5.61
5.55
5.44
5.34
5.33
5.42
5.58
5.74
5.82
5.79
5.68
5.59
5.68
6.05
6.72
7.54
8.28
8.73
8.80
8.57
8.32
8.40
9.10
10.45
12.21
13.89
15.02
15.35
14.94
14.28
13.98
14.63
16.44
19.09
21.79
23.72
24.20
23.02
20.44
16.94
13.20
9.53
5.85
1.55
-4.27
-13.00
-26.17
-44.44
-66.69
-89.08
-105.81
-110.44
-100.01
-75.56
-42.08
-6.88
22.91
41.96
47.59
39.71
20.21
-6.99
-36.41
-61.78
-77.74
-81.45
-73.56
-57.61
-37.89
-18.89
-2.88
9.47
18.42
24.20
27.03
27.42
26.35
24.97
24.17
24.34
25.18
25.90
25.75
24.34
21.82
18.81
16.11
14.29
13.58
13.75
14.25
14.41
13.84
12.47
10.60
8.71
7.22
6.42
6.27
6.50
6.72
6.59
5.97
4.91
3.66
2.55
1.87
1.76
2.16
2.81
3.36
3.51
3.11
2.24
1.23
0.51
0.41
1.06
2.21
3.35
3.93
3.59
2.39
0.86
-0.30
-0.39
0.82
2.93
5.11
6.39
6.21
4.64
2.46
0.77
0.37
1.59
3.98
6.63
8.58
8.93
6.86
1.51
-7.55
-19.48
-31.63
-39.79
-39.74
-29.37
-10.32
12.26
31.60
42.16
42.08
33.59
21.30
9.86
1.95
-2.19
-3.89
-4.74
-5.68
-6.70
-7.55
-8.01
-8.01
-7.64
-7.07
-5.83
-2.88
2.74
10.99
19.92
25.83
24.89
15.02
-2.56
-23.33
-41.24
-51.36
-51.82
-43.80
-31.07
-17.03
-3.61
8.63
19.46
28.11
33.26
34.04
30.97
26.24
22.79
22.97
27.44
34.70
41.95
46.30
45.43
38.43
25.94
10.72
-2.72
-8.98
-3.44
15.22
43.16
71.44
89.18
87.56
64.00
23.98
-22.09
-63.63
-94.05
-112.17
-120.33
-121.54
-117.82
-109.34
-96.88
-83.13
-71.91
-66.39
-67.48
-72.24
-75.99
-74.53
-65.97
-51.08
-32.66
-13.80
3.42
17.51
28.28
35.98
41.16
44.62
47.14
49.08
50.84
52.31
53.23
53.48
52.94
51.64
49.84
47.86
46.00
44.74
44.34
44.80
45.88
46.88
46.97
45.35
41.52
35.51
27.93
19.61
11.32
3.39
-4.35
-12.42
-21.31
-31.00
-40.81
-49.25
-54.76
-56.14
-53.00
-46.12
-37.16
-28.49
-22.98
-23.10
-30.17
-43.29
-58.93
-71.46
-75.17
-66.33
-45.10
-15.46
14.41
36.15
43.63
34.82
12.76
-16.29
-44.39
-64.61
-73.10
-69.78
-57.54
-40.33
-23.03
-8.62
1.31
6.56
7.88
7.54
9.25
17.30
34.35
59.49
88.16
113.73
130.17
135.20
129.10
115.14
97.30
78.48
59.91
42.13
25.48
10.40
-2.00
-11.58
-18.85
-24.79
-30.29
-35.88
-41.24
-45.58
-48.14
-48.62
-47.46
-45.44
-43.48
-42.23
-41.80
-41.59
-40.63
-37.97
-32.99
-25.63
-16.34
-5.85
5.00
15.44
24.91
33.00
39.22
43.13
44.22
42.24
37.28
29.82
20.59
10.22
-0.24
-10.33
-19.89
-28.88
-37.19
-44.38
-49.74
-52.66
-52.77
-50.24
-45.92
-40.85
-35.86
-30.94
-25.24
-17.27
-5.80
9.62
28.20
47.80
65.93
80.64
91.19
97.82
102.67
107.57
113.81
121.67
130.40
138.33
142.95
141.14
130.19
108.64
76.93
38.81
-0.18
-34.81
-62.03
-82.03
-97.68
-112.55
-128.03
-143.24
-153.96
-155.05
-143.32
-119.58
-88.79
-58.07
-33.70
-18.63
-11.51
-8.16
-4.65
0.54
5.84
8.01
4.88
-3.12
-12.70
-19.78
-21.40
-17.32
-9.52
-0.60
6.86
10.74
8.63
-1.94
-22.18
-50.08
-79.65
-102.36
-110.70
-102.08
-80.26
-53.65
-30.99
-17.20
-11.72
-9.92
-6.67
0.98
12.50
25.53
37.83
48.75
59.28
70.58
83.39
96.52
109.00
119.32
127.02
132.78
137.94
142.99
146.47
145.32
135.35
114.63
84.82
51.21
20.52
-1.90
-14.35
-18.94
-19.72
-20.30
-22.08
-24.84
-27.69
-30.75
-35.25
-42.86
-54.64
-70.46
-89.26
-109.24
-127.87
-141.48
-146.96
-141.61
-124.97
-99.69
-71.06
-45.18
-26.48
-16.31
-12.85
-13.09
-14.47
-16.09
-18.43
-22.07
-26.68
-30.72
-32.28
-30.24
-25.12
-18.44
-12.01
-7.14
-3.82
-1.05
2.51
7.91
15.33
23.93
32.41
39.44
44.31
47.29
49.17
51.03
53.69
57.31
61.30
64.57
66.02
64.80
60.89
54.58
46.55
37.54
27.97
17.95
7.32
-4.02
-16.38
-28.32
-38.68
-46.33
-50.43
-50.86
-48.20
-43.47
-37.52
-31.01
-23.56
-14.63
-3.51
10.14
25.78
42.06
57.18
69.72
77.85
82.66
85.46
87.58
90.22
94.20
100.10
107.91
116.43
122.74
122.87
112.84
91.03
59.81
25.10
-5.80
-27.19
-37.18
-37.81
-33.09
-26.90
-21.23
-15.94
-10.18
-3.78
2.28
6.43
7.58
5.89
2.54
-1.19
-4.09
-6.11
-8.09
-11.21
-16.35
-23.58
-32.02
-39.77
-45.79
-49.26
-50.25
-49.52
-48.10
-46.80
-45.93
-45.44
-44.52
-42.77
-40.09
-36.96
-34.07
-32.02
-31.04
-30.82
-30.72
-30.08
-28.74
-26.93
-25.36
-24.70
-25.32
-27.00
-29.06
-30.59
-30.99
-30.48
-29.55
-29.16
-29.90
-31.96
-35.12
-39.07
-43.55
-47.98
-51.24
-51.75
-48.32
-41.08
-32.21
-25.28
-23.49
-28.01
-37.06
-46.81
-53.08
-53.78
-48.44
-38.60
-26.20
-12.29
3.13
20.39
39.20
58.51
75.85
89.37
98.11
101.98
101.94
98.91
93.40
85.38
74.27
59.61
41.66
21.42
0.73
-18.24
-33.70
-44.52
-50.59
-52.32
-50.39
-45.13
-36.52
-24.26
-8.21
10.98
32.08
52.34
69.21
80.74
86.23
86.24
82.18
75.56
67.38
57.69
45.90
31.40
13.79
-6.94
-30.51
-56.14
-81.15
-102.42
-115.47
-116.17
-102.74
-77.37
-45.95
-15.97
6.49
18.97
22.78
21.69
19.37
17.68
16.50
14.91
12.46
9.68
8.04
8.41
10.64
13.54
15.61
15.64
13.50
10.07
6.70
4.66
4.41
5.66
7.47
8.76
8.79
7.49
5.39
3.29
1.94
1.59
2.04
2.80
3.27
3.06
2.13
0.72
-0.81
-2.17
-3.25
-4.12
-4.94
-5.88
-7.02
-8.39
-9.96
-11.81
-13.98
-16.54
-19.44
-22.44
-25.30
-27.83
-30.03
-32.17
-34.76
-38.26
-42.99
-48.66
-54.63
-60.14
-64.62
-68.07
-71.06
-74.64
-79.78
-87.00
-95.77
-104.80
-112.49
-117.50
-119.13
-117.62
-113.73
-107.94
-100.16
-89.38
-73.75
-51.84
-23.12
11.98
52.33
96.22
140.98
181.60
212.25
227.10
222.40
198.73
161.59
119.67
81.69
53.69
36.72
28.67
26.02
25.61
25.48
24.58
22.02
17.04
9.49
0.29
-8.48
-14.56
-16.86
-15.89
-13.75
-13.20
-16.57
-24.99
-37.69
-51.63
-61.95
-63.34
-51.94
-27.30
6.75
43.18
74.43
95.41
105.45
107.92
108.00
109.72
113.68
116.72
113.59
99.79
73.99
38.98
0.78
-33.87
-60.09
-76.38
-85.02
-90.24
-96.13
-104.43
-113.61
-119.38
-116.87
-102.98
-78.12
-46.46
-14.36
12.12
29.49
38.05
40.95
42.00
43.52
45.49
46.28
44.43
40.12
35.27
32.55
33.65
38.32
44.60
49.91
52.10
50.62
46.41
41.30
37.34
35.72
36.53
38.80
41.07
41.77
39.93
35.61
28.87
20.69
12.24
4.63
-1.41
-5.69
-8.63
-10.98
-13.41
-16.06
-18.21
-18.69
-16.14
-9.68
0.81
14.85
31.69
50.28
68.07
82.49
89.77
86.50
71.44
46.73
17.58
-9.65
-29.85
-40.98
-43.90
-41.28
-35.54
-28.03
-19.50
-11.01
-4.40
-1.76
-4.33
-11.31
-20.23
-28.03
-32.64
-34.09
-34.55
-36.86
-43.40
-55.06
-70.65
-88.24
-104.04
-112.96
-109.51
-89.90
-55.21
-10.92
32.59
63.83
75.19
66.67
45.43
21.98
4.91
-2.68
-3.44
-2.64
-4.75
-11.01
-19.49
-27.63
-34.15
-39.71
-45.04
-52.26
-60.15
-66.45
-68.73
-65.11
-55.70
-42.18
-27.07
-12.61
-0.10
10.55
20.23
28.88
36.45
42.40
46.00
46.85
44.99
41.07
36.08
30.30
23.58
15.53
5.38
-7.84
-25.00
-46.26
-70.22
-92.06
-107.01
-110.11
-98.74
-74.64
-43.71
-13.86
8.31
19.91
22.33
19.25
14.57
10.37
6.62
2.35
-2.90
-8.46
-12.96
-15.36
-15.91
-15.76
-16.45
-19.28
-24.39
-30.86
-37.14
-41.75
-43.85
-43.57
-41.55
-38.73
-35.78
-32.73
-29.10
-24.09
-17.19
-8.48
1.29
11.11
19.74
26.28
30.41
32.38
32.84
32.49
31.97
31.64
31.86
32.58
33.76
35.38
37.49
40.07
43.02
46.18
48.18
49.50
50.20
50.24
49.68
48.62
47.20
45.46
43.51
41.40
39.34
37.27
35.11
32.86
30.58
28.29
25.99
23.75
21.66
19.85
18.25
16.78
15.35
13.95
12.85
11.66
10.24
8.56
6.59
4.22
1.63
-1.35
-4.66
-8.13
-11.60
-14.76
-17.24
-18.79
-19.26
-18.57
-16.74
-13.88
-10.23
-6.19
-2.84
-0.05
1.88
3.31
3.60
2.50
0.01
-3.70
-8.42
-13.76
-19.16
-24.13
-28.15
-30.70
-31.51
-30.43
-27.52
-23.08
-17.51
-11.12
-4.27
1.89
7.62
12.80
17.25
20.74
22.98
23.86
23.61
22.66
21.58
21.01
21.11
21.76
22.56
22.84
22.12
20.42
18.22
16.29
15.96
16.97
18.92
21.07
22.44
22.54
21.51
20.19
19.62
20.70
23.64
27.72
33.12
39.18
44.68
47.79
46.40
39.01
25.66
8.24
-9.84
-24.97
-35.00
-39.58
-39.89
-37.53
-33.64
-28.56
-22.26
-14.95
-7.21
-0.13
5.37
8.89
10.65
11.24
11.43
11.80
12.36
12.38
10.33
4.68
-5.29
-18.80
-33.52
-46.31
-54.83
-58.49
-58.78
-58.49
-60.45
-66.10
-74.10
-81.72
-84.43
-78.05
-60.40
-32.69
0.47
32.24
55.85
67.12
65.87
55.77
42.10
29.46
19.43
11.11
2.41
-8.13
-20.00
-30.94
-37.77
-39.01
-34.94
-27.67
-19.86
-13.52
-9.45
-7.56
-7.76
-10.34
-15.85
-23.24
-29.78
-31.21
-23.07
-3.00
27.49
62.66
93.92
112.52
113.07
95.21
63.80
27.14
-6.30
-30.47
-43.19
-45.36
-40.90
-33.70
-26.69
-21.84
-19.41
-19.72
-23.17
-29.45
-37.37
-45.06
-50.40
-52.55
-52.64
-53.37
-57.74
-66.91
-78.54
-86.99
-85.79
-70.28
-39.65
0.11
40.65
73.35
92.16
93.74
77.86
47.49
8.78
-29.84
-59.34
-72.70
-67.25
-45.51
-14.18
18.72
46.75
66.82
78.77
84.31
85.19
82.85
78.72
74.42
71.95
73.21
79.52
90.38
103.36
113.87
117.17
110.53
94.06
70.58
44.17
18.23
-6.86
-28.10
-44.56
-56.42
-63.89
-66.56
-64.09
-57.00
-47.06
-36.66
-27.73
-22.08
-19.77
-19.74
-20.17
-19.33
-16.30
-11.44
-6.17
-2.26
-2.65
-7.47
-15.61
-24.83
-33.01
-38.82
-42.47
-45.40
-47.31
-50.94
-57.49
-67.01
-78.24
-88.62
-94.32
-91.07
-75.67
-47.83
-11.40
27.16
60.73
84.44
97.27
102.02
103.46
105.93
111.25
117.67
121.33
117.69
103.62
79.01
47.13
13.57
-15.69
-36.66
-48.88
-54.36
-56.20
-56.71
-56.40
-54.55
-50.60
-45.08
-39.92
-37.32
-38.25
-41.72
-45.48
-47.05
-44.70
-39.00
-30.63
-21.43
-12.99
-5.96
0.24
6.72
14.59
24.65
35.82
46.77
55.78
61.51
63.11
61.05
56.19
49.59
42.12
34.21
26.14
17.83
9.75
1.77
-5.76
-12.37
-17.61
-21.23
-23.35
-24.19
-24.19
-23.84
-23.57
-23.52
-23.67
-23.89
-23.97
-23.84
-23.45
-22.96
-22.98
-23.56
-24.79
-26.56
-28.52
-30.24
-31.43
-32.06
-32.41
-33.07
-34.50
-36.80
-39.55
-41.95
-43.09
-42.47
-40.55
-37.92
-35.82
-35.30
-36.70
-39.43
-42.13
-43.47
-42.85
-40.51
-37.49
-35.06
-33.91
-34.07
-35.21
-37.14
-40.30
-44.86
-49.69
-51.75
-47.09
-32.58
-7.93
23.59
56.52
85.56
108.16
125.12
138.80
150.36
158.01
157.76
145.02
120.86
90.52
61.64
40.73
30.18
28.02
29.98
31.77
31.58
30.00
28.22
26.64
23.94
17.47
4.68
-15.23
-40.32
-65.83
-85.04
-92.33
-85.33
-65.68
-40.64
-18.49
-5.32
-2.78
-8.07
-16.05
-22.51
-25.88
-27.35
-29.22
-32.80
-37.69
-42.27
-44.95
-45.22
-44.00
-42.97
-43.80
-47.21
-52.56
-58.35
-62.98
-65.28
-64.95
-62.52
-58.95
-54.88
-50.52
-45.24
-38.13
-28.46
-15.93
-0.97
15.44
31.96
47.31
59.81
69.20
75.55
79.25
80.93
81.27
80.81
79.78
78.19
76.15
73.13
69.01
64.05
58.95
54.59
51.70
50.46
50.46
50.75
50.26
48.52
45.46
41.59
37.79
34.99
33.68
34.47
37.73
42.94
48.13
49.89
44.63
30.44
8.59
-16.31
-37.77
-50.24
-51.18
-42.42
-28.74
-15.60
-7.03
-4.56
-7.36
-13.36
-20.48
-27.70
-34.19
-40.17
-46.10
-52.26
-58.19
-62.72
-64.59
-63.11
-58.20
-50.44
-40.64
-29.05
-16.01
-3.05
6.79
9.96
4.09
-8.36
-21.35
-27.53
-21.93
-4.83
18.31
39.73
53.74
58.89
58.29
56.71
57.46
60.73
64.26
65.45
63.34
59.05
54.91
53.04
54.32
58.24
63.60
69.53
75.40
80.19
81.76
77.07
63.50
40.46
10.58
-20.74
-47.28
-64.70
-72.14
-72.12
-68.62
-64.91
-62.30
-60.29
-57.77
-54.46
-51.07
-49.01
-49.43
-52.25
-56.71
-62.08
-68.33
-76.04
-85.26
-94.34
-99.31
-96.03
-81.66
-56.85
-26.09
3.87
26.83
39.64
43.08
40.59
36.23
32.97
31.81
32.32
33.51
34.63
35.44
35.93
36.16
36.18
36.20
36.34
37.20
39.70
44.74
52.23
60.31
65.42
63.41
51.61
30.43
3.85
-22.09
-41.44
-51.33
-52.49
-48.16
-42.09
-36.51
-32.07
-28.32
-25.24
-23.66
-25.47
-32.62
-45.61
-62.45
-78.40
-87.13
-82.72
-63.60
-32.98
1.71
31.79
51.13
58.26
56.54
51.76
48.66
49.28
53.23
59.09
65.92
73.25
79.97
83.57
80.56
68.32
47.28
21.28
-3.44
-20.76
-27.84
-25.71
-18.03
-8.94
-1.32
3.81
6.52
6.96
4.94
0.06
-7.57
-17.02
-26.82
-35.66
-42.57
-47.31
-51.01
-54.75
-59.14
-64.03
-68.48
-71.18
-71.56
-68.60
-62.64
-54.84
-46.41
-38.27
-30.68
-23.23
-14.82
-5.44
4.79
14.98
23.80
30.20
33.74
34.73
34.16
33.07
31.90
30.76
28.93
25.54
20.29
13.25
4.45
-6.32
-19.43
-34.53
-49.18
-58.83
-59.01
-46.82
-23.08
7.78
39.71
67.71
89.85
106.33
117.62
122.78
119.59
106.26
83.62
56.87
33.15
18.33
14.17
17.90
23.90
27.51
26.30
20.84
13.29
5.79
-0.69
-6.30
-11.55
-16.56
-20.78
-23.43
-23.70
-21.57
-17.61
-12.98
-9.03
-6.81
-6.78
-8.72
-12.09
-15.39
-18.70
-21.88
-24.94
-27.89
-30.58
-32.78
-34.19
-34.76
-34.60
-34.13
-33.64
-33.28
-33.00
-32.61
-31.90
-30.83
-29.69
-28.90
-28.90
-29.60
-30.55
-30.98
-30.12
-27.90
-24.66
-21.09
-18.32
-17.44
-18.76
-21.89
-25.85
-29.80
-33.34
-35.95
-38.94
-43.28
-49.65
-58.39
-69.72
-83.39
-98.05
-110.67
-117.30
-113.58
-97.46
-70.99
-39.81
-11.44
7.95
15.76
13.52
5.50
-3.71
-11.20
-16.44
-20.21
-23.36
-25.99
-27.44
-26.83
-23.62
-17.61
-8.85
1.97
14.25
27.28
40.26
52.51
63.78
74.10
82.83
90.45
96.69
101.29
104.30
106.25
107.43
106.94
102.22
90.22
70.13
43.79
17.27
-1.82
-7.87
-0.33
16.06
33.73
46.34
51.46
50.54
47.13
44.00
41.74
39.31
35.66
31.09
27.18
25.70
27.05
30.36
33.68
35.03
33.70
30.48
27.20
25.81
27.39
31.46
36.55
40.56
42.00
40.56
37.24
34.01
33.25
36.93
45.52
57.06
67.03
69.55
59.72
36.20
2.53
-33.76
-64.29
-83.15
-89.25
-86.10
-79.23
-73.50
-71.31
-72.80
-76.80
-81.62
-85.28
-85.24
-78.84
-64.54
-43.25
-18.78
3.62
18.94
25.01
22.90
15.77
7.02
-1.13
-7.90
-13.22
-17.01
-18.84
-18.30
-15.65
-12.00
-8.87
-7.42
-8.12
-10.40
-13.06
-14.99
-15.49
-14.63
-13.07
-11.68
-11.10
-11.55
-12.75
-14.19
-15.47
-16.40
-17.04
-17.47
-17.63
-17.34
-16.40
-14.66
-12.21
-9.46
-6.88
-4.63
-2.53
0.09
4.03
9.83
17.39
26.01
34.41
41.60
47.12
51.39
55.41
60.23
66.58
74.23
83.77
94.93
106.23
114.61
115.78
105.89
83.54
51.23
15.08
-17.40
-40.48
-52.22
-54.63
-51.96
-47.95
-44.48
-41.41
-37.83
-33.34
-28.70
-25.23
-23.79
-24.10
-24.91
-24.78
-22.64
-18.54
-13.38
-8.51
-5.03
-3.31
-2.89
-2.75
-1.90
0.21
3.46
7.23
10.77
13.54
15.48
16.84
18.03
19.20
20.12
20.27
19.03
16.24
12.14
7.38
2.56
-1.96
-6.31
-10.93
-16.15
-21.87
-27.02
-30.10
-29.66
-25.15
-17.24
-7.87
0.43
5.55
6.51
4.19
0.62
-2.12
-2.76
-1.60
-0.32
-1.13
-4.76
-12.45
-23.77
-37.16
-49.91
-58.06
-56.93
-42.45
-13.53
26.11
67.56
99.63
113.00
104.33
77.72
42.68
9.76
-13.93
-26.66
-31.33
-32.06
-31.59
-30.25
-27.05
-21.52
-14.83
-9.74
-8.46
-11.71
-17.91
-24.04
-27.25
-26.12
-21.51
-15.97
-12.43
-12.73
-16.92
-23.18
-28.82
-31.61
-30.87
-27.78
-24.61
-23.68
-26.15
-31.56
-38.03
-43.45
-46.20
-46.12
-44.34
-42.61
-42.67
-45.74
-52.40
-62.25
-73.50
-82.70
-85.37
-77.49
-57.51
-27.66
6.31
37.21
59.29
70.39
72.23
68.76
63.81
59.41
55.54
51.37
46.46
41.47
37.69
36.05
36.43
37.65
38.22
36.88
33.49
28.87
24.37
21.24
20.03
20.45
21.52
22.11
21.46
19.43
16.60
13.81
11.87
11.11
11.39
12.12
12.66
12.57
11.77
10.54
9.33
8.52
8.31
8.60
9.16
9.68
9.96
9.98
9.84
9.71
9.73
9.98
10.42
11.00
11.62
12.22
12.78
13.32
13.83
14.34
14.84
15.32
15.79
16.24
16.67
17.11
17.54
17.98
18.44
18.92
19.42
19.95
20.50
21.07
21.65
22.24
22.82
23.39
23.94
24.42
24.84
25.15
25.34
25.40
25.28
24.95
24.38
23.51
22.30
20.71
18.78
16.54
14.02
11.19
7.94
4.13
-0.43
-5.86
-12.22
-19.45
-27.45
-36.14
-45.55
-55.84
-67.27
-80.13
-94.65
-110.93
-128.85
-148.21
-168.78
-190.50
-213.47
-237.81
-263.53
-290.26
-317.02
-342.14
-363.49
-378.95
-386.83
-386.55
-378.07
-361.96
-338.97
-309.76
-274.69
-234.12
-188.99
-141.26
-93.99
-50.82
-15.09
11.26
28.34
38.48
45.22
51.76
59.55
68.01
75.02
78.65
78.49
76.61
77.42
86.23
107.28
142.44
191.28
251.16
317.40
382.92
438.02
473.76
485.30
474.95
452.05
430.10
420.56
427.73
446.68
466.28
475.54
468.84
449.29
423.86
399.59
377.57
354.22
323.55
278.02
213.62
132.35
42.58
-45.06
-118.82
-171.10
-200.45
-211.13
-210.56
-205.74
-201.65
-200.78
-203.90
-209.83
-215.72
-217.22
-210.33
-193.52
-168.46
-139.72
-113.28
-94.59
-86.78
-90.36
-103.03
-120.10
-135.71
-144.02
-141.58
-129.37
-113.20
-101.33
-100.54
-112.38
-132.02
-150.72
-159.92
-155.08
-137.02
-110.08
-79.12
-47.48
-16.87
11.52
36.06
54.53
65.18
67.74
63.94
56.97
50.35
46.45
45.81
47.21
48.43
47.45
43.35
36.68
29.08
22.49
18.26
16.64
16.81
17.33
16.99
15.06
11.70
7.76
4.27
1.97
1.03
1.08
1.42
1.42
0.73
-0.59
-2.16
-3.54
-4.46
-4.90
-5.07
-5.25
-5.66
-6.33
-7.08
-7.67
-7.94
-7.92
-7.84
-8.03
-8.74
-9.99
-11.54
-12.91
-13.67
-13.62
-12.97
-12.30
-12.34
-13.59
-16.08
-19.25
-22.19
-24.02
-24.35
-23.51
-22.52
-22.59
-24.58
-28.56
-33.65
-38.43
-41.68
-42.78
-42.12
-40.80
-40.07
-40.99
-44.21
-50.17
-58.66
-68.31
-76.00
-77.29
-67.98
-46.22
-14.21
22.07
54.95
78.23
89.54
90.70
86.01
79.65
73.88
68.71
63.22
56.91
50.47
45.32
42.55
42.13
42.90
43.23
41.68
37.92
32.64
27.21
23.08
21.08
21.20
22.61
24.10
24.52
23.35
20.74
17.47
14.62
13.11
13.41
15.36
18.21
20.91
22.55
22.63
21.33
19.48
18.24
18.65
21.15
25.38
30.23
34.32
36.73
37.15
36.20
35.03
34.74
36.13
39.64
45.50
53.43
62.04
68.43
68.55
58.75
37.72
7.90
-24.95
-53.84
-73.47
-82.18
-82.09
-77.28
-71.43
-66.28
-61.61
-56.51
-50.62
-44.72
-40.13
-37.72
-37.23
-37.38
-36.70
-34.04
-29.41
-23.74
-18.40
-14.58
-12.68
-12.29
-12.34
-11.71
-9.68
-6.30
-2.18
1.76
4.81
6.76
7.88
8.89
10.52
13.24
17.00
21.43
25.96
30.02
33.28
35.50
36.73
36.96
36.07
33.75
29.69
23.66
15.82
6.89
-2.43
-11.21
-18.68
-24.44
-28.57
-31.46
-33.62
-35.59
-37.18
-38.18
-38.24
-37.25
-35.44
-33.43
-31.99
-31.66
-32.51
-34.00
-35.32
-35.71
-35.02
-33.50
-31.94
-30.98
-30.83
-31.29
-32.17
-33.80
-36.72
-40.82
-44.19
-43.35
-34.36
-14.95
13.59
46.64
78.11
103.27
120.33
130.00
133.23
129.45
116.49
92.58
59.02
21.12
-13.46
-37.96
-49.64
-50.58
-46.04
-41.26
-39.27
-40.00
-40.75
-38.90
-33.16
-23.98
-12.99
-2.21
6.66
12.43
15.18
15.64
14.75
13.45
12.21
10.97
9.16
6.07
1.16
-5.04
-11.19
-15.61
-16.88
-14.92
-10.91
-7.22
-5.24
-7.40
-14.24
-24.83
-37.73
-51.07
-62.33
-67.76
-63.27
-46.35
-18.93
12.25
37.55
48.13
41.84
22.98
0.79
-15.30
-20.18
-15.20
-6.06
1.35
4.08
3.15
1.06
-0.44
-2.21
-7.17
-17.25
-34.04
-56.31
-81.20
-105.12
-124.94
-137.71
-140.80
-132.47
-112.90
-85.14
-54.36
-26.73
-6.91
3.30
5.23
1.87
-3.94
-10.86
-19.21
-29.23
-40.21
-50.30
-57.37
-60.03
-58.38
-53.93
-47.92
-41.49
-34.34
-25.33
-13.03
3.34
23.44
45.73
67.32
86.01
100.02
108.85
113.01
113.67
112.08
109.24
105.61
101.24
96.57
91.11
84.95
78.50
72.29
66.71
62.00
58.03
54.50
51.19
47.80
44.32
40.88
37.64
34.71
32.19
30.06
28.22
26.65
25.21
23.93
22.81
21.90
21.17
20.66
20.39
20.29
20.35
20.42
20.40
20.09
19.65
18.55
16.55
13.51
9.34
4.07
-2.21
-9.26
-16.79
-24.45
-31.92
-38.82
-44.80
-49.66
-53.24
-55.58
-56.73
-56.86
-56.17
-54.96
-53.36
-51.51
-49.55
-47.61
-45.75
-44.07
-42.60
-41.42
-40.65
-40.21
-40.05
-40.17
-40.58
-41.26
-42.22
-43.44
-44.95
-46.86
-48.99
-51.29
-53.80
-56.63
-59.82
-63.42
-67.47
-72.03
-77.25
-82.74
-88.39
-94.21
-100.27
-106.65
-113.39
-120.48
-127.90
-135.71
-143.24
-150.14
-156.17
-161.12
-164.58
-165.81
-163.56
-155.80
-145.40
-133.16
-119.88
-106.53
-94.06
-83.15
-74.04
-66.40
-59.57
-52.95
-45.46
-36.79
-27.25
-17.41
-7.69
2.07
12.63
25.11
40.46
59.57
82.25
107.44
133.83
160.46
187.20
214.69
244.27
277.64
317.02
363.99
418.69
478.87
539.31
592.65
631.44
650.65
649.72
632.75
606.80
579.02
554.76
536.37
523.46
513.75
503.83
490.19
469.77
440.70
402.17
355.11
301.83
245.07
186.90
128.16
69.06
9.60
-49.65
-108.28
-165.11
-218.13
-265.08
-304.25
-335.31
-359.14
-378.25
-395.82
-416.37
-443.21
-476.91
-515.09
-552.77
-583.59
-600.93
-600.38
-580.60
-545.63
-501.80
-454.88
-408.55
-363.48
-318.49
-271.16
-220.09
-157.15
-84.56
-12.85
46.22
86.23
107.07
111.37
104.49
88.63
65.90
37.48
5.68
-25.67
-53.04
-72.26
-81.85
-82.19
-75.24
-62.44
-43.30
-19.13
7.69
34.30
58.53
78.84
94.62
105.61
115.10
124.10
133.15
143.36
155.71
170.48
186.72
203.16
214.03
216.12
207.22
186.80
156.75
120.83
83.80
50.36
24.49
8.83
5.11
12.70
29.06
50.52
73.22
93.82
109.85
119.85
123.03
119.56
109.69
93.96
73.52
50.44
27.60
7.98
-6.08
-13.64
-14.98
-11.58
-5.41
1.35
6.64
8.48
5.03
-5.43
-24.14
-51.13
-84.89
-122.49
-161.10
-198.69
-234.17
-267.01
-296.59
-321.71
-340.03
-348.24
-343.61
-326.18
-298.70
-265.00
-228.06
-189.02
-148.21
-106.12
-64.06
-25.66
2.88
16.06
13.30
1.08
-9.24
-6.60
15.97
59.78
118.70
179.58
226.34
245.55
230.79
182.90
107.62
14.14
-85.60
-167.09
-204.72
-188.59
-132.09
-58.57
14.64
79.13
127.05
162.02
184.70
192.95
184.73
161.24
127.38
91.77
60.15
34.78
15.60
-1.00
-20.63
-47.99
-82.82
-117.71
-140.68
-141.28
-115.75
-69.28
-16.49
24.02
37.06
17.19
-29.36
-88.85
-147.01
-193.55
-223.22
-235.72
-233.03
-217.80
-193.10
-163.04
-132.89
-107.48
-88.53
-72.83
-54.52
-28.23
8.02
51.87
97.51
138.26
169.67
191.00
204.80
214.30
221.75
227.91
232.64
234.53
230.86
219.31
199.56
174.21
147.71
124.07
104.42
86.44
64.74
33.09
-11.13
-67.57
-124.78
-165.82
-182.18
-180.20
-171.40
-162.20
-150.16
-128.88
-89.44
-30.89
38.14
103.05
148.58
167.21
160.76
129.33
80.29
22.58
-36.59
-94.29
-141.77
-172.51
-184.68
-181.09
-165.33
-138.68
-102.28
-59.36
-14.73
27.17
60.69
83.82
98.28
108.67
120.29
135.25
150.89
163.48
170.64
162.17
138.57
107.93
82.14
72.25
83.05
102.73
119.00
121.29
105.44
75.87
40.24
4.59
-28.03
-57.49
-84.54
-105.72
-117.13
-116.82
-104.10
-80.53
-50.34
-18.36
11.08
35.85
59.99
89.53
130.59
183.08
245.43
313.51
382.39
446.71
484.17
479.48
429.32
343.66
239.64
136.35
49.83
-9.50
-45.06
-64.49
-76.12
-89.42
-112.49
-150.60
-198.48
-250.65
-301.80
-348.74
-389.93
-423.35
-447.74
-462.58
-468.51
-466.74
-459.93
-450.03
-436.80
-417.22
-386.69
-342.56
-285.93
-221.72
-156.27
-95.79
-43.97
-0.31
38.66
76.23
113.00
147.29
177.19
202.86
226.15
248.81
271.82
293.47
308.22
308.49
288.08
245.06
182.66
107.87
28.98
-43.73
-100.08
-133.03
-140.06
-122.64
-85.26
-34.33
27.65
85.87
121.99
126.85
104.55
66.82
26.49
-6.56
-27.12
-35.24
-35.47
-31.69
-25.22
-16.27
-5.03
7.62
19.72
29.59
35.86
38.52
39.52
41.58
45.65
50.07
52.16
49.64
43.25
37.00
34.94
39.66
51.10
65.98
79.39
86.71
83.95
70.16
44.28
6.86
-38.75
-86.09
-127.10
-154.65
-160.52
-147.62
-122.92
-94.50
-68.19
-46.35
-28.54
-13.50
-0.55
10.11
17.27
21.34
23.66
26.14
30.60
37.92
47.82
58.96
69.55
76.84
79.39
76.69
69.31
58.41
45.27
30.99
16.53
2.20
-12.53
-27.66
-42.72
-56.65
-68.07
-75.82
-79.45
-79.39
-76.99
-74.20
-72.38
-72.21
-73.85
-77.37
-82.69
-88.94
-93.82
-93.85
-85.52
-66.95
-39.55
-8.07
21.02
42.20
53.24
55.87
54.27
52.29
52.00
53.26
55.01
56.56
58.25
61.08
65.52
70.75
74.45
74.16
68.29
57.27
43.43
30.11
20.39
16.01
17.00
21.61
27.25
31.19
31.37
26.85
18.10
6.57
-5.94
-17.50
-27.12
-34.54
-39.90
-43.29
-44.92
-45.32
-45.61
-48.00
-53.17
-60.67
-68.08
-71.18
-65.69
-49.42
-23.89
5.86
32.77
50.48
55.23
46.80
28.40
4.98
-18.39
-37.88
-51.41
-58.65
-60.59
-59.44
-58.10
-59.11
-63.98
-72.79
-84.31
-96.70
-108.25
-117.86
-123.83
-126.23
-126.33
-126.26
-128.34
-134.64
-146.20
-162.47
-180.94
-197.50
-207.69
-207.65
-195.13
-169.68
-132.48
-85.89
-33.50
19.62
66.88
100.89
115.95
110.50
88.40
58.04
29.23
9.73
2.75
7.05
18.59
33.44
49.42
66.28
84.53
104.24
124.47
143.43
159.37
170.96
177.79
180.29
179.46
176.54
172.91
170.04
169.17
171.28
176.30
182.65
186.80
183.41
166.88
134.17
87.72
36.14
-8.41
-35.87
-43.98
-39.87
-36.37
-44.11
-64.48
-87.76
-98.27
-83.46
-41.65
16.75
75.05
118.68
141.47
145.70
137.42
121.23
98.35
68.08
31.07
-8.87
-46.02
-75.75
-97.14
-113.05
-127.56
-142.65
-156.09
-161.86
-152.61
-123.43
-74.63
-12.73
50.56
101.25
127.07
121.10
84.08
24.07
-46.27
-113.39
-166.37
-199.11
-210.85
-205.20
-188.55
-168.01
-149.61
-137.03
-130.83
-128.79
-127.15
-122.24
-111.58
-94.25
-70.76
-42.24
-9.88
25.26
61.76
97.14
128.19
151.87
166.63
173.00
173.28
170.49
167.48
166.57
169.36
176.57
187.19
197.70
202.05
193.13
165.03
115.73
49.03
-25.99
-97.18
-152.79
-184.80
-190.84
-174.40
-143.53
-108.51
-78.97
-61.48
-58.22
-67.34
-84.52
-104.65
-123.30
-137.23
-143.90
-141.33
-128.40
-105.09
-72.49
-32.52
12.65
60.77
109.19
154.67
193.38
221.38
235.90
236.35
224.51
204.42
180.60
156.86
135.83
119.14
107.90
103.09
105.25
113.94
128.16
144.44
157.44
162.01
155.47
138.81
115.98
91.83
70.31
55.37
47.49
44.39
43.41
43.66
46.43
53.69
66.36
83.66
106.82
134.60
163.83
191.47
216.45
239.70
262.38
284.40
304.31
323.87
341.27
350.56
344.15
316.78
268.20
202.89
128.52
26.37
-100.07
-228.88
-334.19
-404.20
-443.17
-461.40
-467.08
-464.40
-452.53
-424.51
-377.12
-313.15
-239.38
-164.15
-94.83
-36.48
8.50
40.25
63.42
80.34
89.68
88.36
75.07
51.97
23.70
-4.95
-30.94
-51.87
-68.67
-84.41
-101.52
-119.39
-134.50
-142.37
-139.95
-126.70
-103.74
-74.50
-44.05
-18.10
-2.02
0.34
-12.15
-36.95
-68.06
-97.49
-118.87
-129.88
-132.37
-130.08
-125.28
-116.84
-100.83
-73.34
-34.04
11.98
55.41
86.36
98.57
92.34
74.66
56.66
49.42
59.49
86.52
123.60
160.16
186.00
194.37
183.16
154.35
112.49
63.07
12.14
-33.96
-69.44
-90.71
-97.96
-95.41
-89.53
-86.19
-88.99
-97.69
-108.79
-117.81
-121.45
-118.88
-111.68
-102.65
-94.56
-90.77
-93.33
-101.60
-111.80
-117.99
-114.06
-95.82
-62.23
-16.15
34.13
78.92
111.20
129.50
136.90
137.87
135.45
130.17
120.44
101.45
69.18
23.10
-33.21
-95.00
-159.46
-226.17
-295.34
-348.90
-368.01
-345.08
-290.46
-222.46
-155.38
-96.22
-46.66
-5.55
29.40
57.79
78.10
89.29
92.37
89.69
84.10
78.61
77.28
84.81
102.61
128.52
155.67
176.33
184.42
177.57
157.85
130.87
103.18
78.37
57.12
39.18
25.62
17.98
17.42
22.47
28.79
30.41
21.68
0.26
-31.00
-64.78
-92.43
-107.53
-108.32
-97.45
-80.25
-62.93
-50.42
-43.87
-42.94
-45.31
-47.80
-48.14
-45.47
-40.51
-35.24
-31.44
-29.23
-26.98
-22.20
-12.65
1.99
20.80
42.35
64.86
86.93
108.32
129.24
148.90
165.39
174.96
174.58
163.32
141.84
111.89
76.00
35.81
-9.17
-60.05
-118.22
-180.18
-233.31
-264.36
-269.73
-255.28
-228.88
-199.22
-161.63
-111.12
-46.42
28.39
104.83
170.03
213.64
232.29
229.55
213.83
192.49
170.40
149.43
128.84
107.69
87.44
71.47
62.79
62.78
69.16
77.89
84.69
85.93
79.44
65.78
47.62
28.40
11.69
-0.41
-6.87
-8.03
-5.80
-2.93
-1.55
-2.35
-4.72
-7.31
-9.70
-12.81
-18.79
-30.23
-48.43
-72.21
-98.01
-120.97
-136.53
-141.84
-136.05
-120.26
-97.14
-70.31
-43.86
-21.75
-6.84
0.11
0.76
-1.46
-3.14
-2.58
-0.25
1.45
-0.91
-10.34
-27.70
-50.65
-74.05
-92.49
-102.08
-100.98
-89.27
-68.81
-43.15
-16.81
5.96
22.21
30.04
29.67
25.07
23.34
31.31
51.60
80.94
112.15
137.27
148.92
141.89
114.66
68.93
7.58
-66.76
-151.18
-240.21
-314.57
-352.05
-341.85
-292.36
-223.48
-153.37
-92.68
-45.48
-10.92
12.63
29.07
40.08
48.10
57.90
74.86
101.98
134.81
165.04
183.61
184.37
166.23
133.83
95.14
57.68
27.24
3.56
-12.10
-17.55
-11.65
3.87
24.80
45.72
61.47
68.36
63.13
47.96
28.43
11.19
1.42
1.56
10.95
26.38
43.14
56.44
63.79
64.21
58.22
47.60
35.37
25.08
19.94
21.41
28.39
37.99
45.09
44.57
33.90
14.38
-9.27
-30.70
-44.15
-46.08
-35.17
-13.83
13.03
39.91
62.19
76.43
80.97
75.64
61.50
41.08
15.70
-14.55
-49.42
-87.91
-128.92
-171.23
-214.54
-259.43
-295.53
-312.12
-304.18
-274.94
-232.12
-183.58
-134.78
-90.36
-54.24
-28.78
-11.04
2.69
16.97
36.68
64.50
101.16
144.28
182.30
204.00
203.15
181.45
146.85
114.04
86.70
66.63
55.00
53.17
63.87
86.71
118.76
153.55
182.56
196.88
192.01
168.39
131.30
89.76
52.82
26.62
12.77
9.10
10.70
13.56
15.02
13.94
10.52
4.82
-4.02
-17.75
-37.57
-63.09
-90.75
-115.24
-131.66
-137.15
-131.93
-118.73
-101.35
-82.94
-65.59
-50.18
-37.34
-28.08
-23.42
-23.83
-28.75
-36.71
-45.71
-53.95
-60.22
-64.31
-67.02
-69.67
-73.56
-79.35
-86.87
-95.20
-102.99
-108.99
-112.29
-112.60
-110.35
-106.65
-103.14
-101.48
-102.54
-105.78
-109.06
-109.38
-104.19
-92.49
-75.38
-55.39
-35.25
-16.52
0.93
18.84
39.64
65.49
97.47
135.18
176.69
218.82
257.98
290.97
315.84
331.91
339.34
338.26
328.28
308.40
277.44
234.84
180.91
116.95
45.30
-30.69
-106.63
-177.38
-237.80
-284.12
-315.14
-332.54
-340.11
-341.83
-340.14
-335.11
-325.11
-308.40
-284.60
-255.33
-223.42
-191.42
-160.26
-129.14
-96.43
-61.26
-24.28
12.43
46.58
76.61
102.31
124.51
144.23
162.16
178.58
193.66
207.57
220.34
231.37
239.28
242.32
239.11
229.21
213.38
193.24
170.51
146.49
121.74
96.35
70.58
45.33
22.32
3.86
-7.94
-12.19
-9.95
-4.32
0.77
2.32
-0.64
-6.95
-14.44
-21.10
-25.94
-28.82
-30.17
-29.98
-27.29
-20.67
-9.13
7.51
29.22
56.48
90.23
130.24
174.48
219.07
258.72
287.46
300.10
293.68
268.21
226.10
170.21
103.81
30.72
-45.01
-120.14
-192.59
-260.82
-320.94
-361.64
-371.94
-349.31
-301.34
-240.39
-178.14
-122.57
-77.10
-39.49
-6.66
21.22
42.11
54.10
56.87
51.88
42.17
31.61
19.22
5.19
-11.63
-31.86
-54.10
-74.20
-86.93
-87.77
-75.22
-52.40
-26.10
-4.91
5.69
5.29
-1.54
-8.55
-9.74
-1.39
16.10
39.23
63.19
85.57
106.09
125.51
142.20
153.66
157.40
150.42
130.35
96.98
54.19
7.45
-38.49
-83.81
-129.32
-171.36
-201.82
-214.39
-217.74
-216.96
-212.35
-196.63
-167.12
-121.55
-58.33
19.09
101.98
179.85
238.73
266.30
276.03
277.39
266.85
243.19
205.96
156.36
99.06
42.46
-4.88
-37.42
-57.39
-68.66
-72.79
-70.06
-61.25
-46.77
-26.61
-1.25
27.63
54.62
74.71
85.85
87.63
79.36
62.30
40.08
17.28
-2.86
-21.63
-42.99
-70.18
-104.92
-148.20
-197.02
-244.70
-283.31
-306.97
-313.95
-306.09
-285.65
-239.93
-166.08
-74.32
16.02
87.71
132.66
151.52
148.92
132.66
107.16
71.74
25.29
-31.30
-94.25
-158.13
-207.23
-230.29
-222.95
-190.18
-144.65
-98.94
-61.00
-33.03
-13.28
1.87
14.75
28.60
46.80
70.90
100.85
134.60
168.17
196.71
218.42
229.38
227.87
214.66
192.57
166.40
141.88
124.03
115.73
117.20
125.05
135.02
142.66
144.58
139.36
128.26
115.35
106.63
108.39
123.61
151.17
183.97
210.43
218.71
201.46
158.51
96.43
25.41
-45.31
-109.37
-163.66
-207.00
-238.77
-259.09
-269.84
-275.21
-280.60
-290.19
-304.09
-317.78
-323.68
-314.44
-286.61
-242.45
-189.15
-136.01
-91.01
-58.39
-38.63
-29.58
-27.91
-30.51
-34.90
-38.94
-40.56
-38.22
-31.33
-21.50
-12.52
-8.49
-12.02
-22.84
-37.24
-49.40
-53.38
-45.01
-23.84
6.39
38.85
65.28
77.76
71.29
46.85
10.50
-25.55
-49.44
-56.64
-50.63
-38.11
-24.88
-12.60
-0.63
12.10
25.68
37.96
45.50
45.61
38.35
26.80
17.57
17.72
32.19
61.99
102.73
145.68
180.66
200.34
197.04
174.49
141.67
108.00
79.74
58.54
43.94
32.03
21.28
11.89
5.43
1.69
-1.23
-5.74
-13.53
-24.31
-36.15
-46.06
-52.13
-53.79
-52.98
-52.87
-55.88
-62.54
-71.51
-80.85
-88.90
-95.10
-99.14
-100.98
-100.42
-97.21
-91.75
-85.64
-81.55
-82.22
-89.82
-105.20
-128.22
-157.44
-189.70
-219.94
-241.70
-248.95
-238.01
-209.40
-167.73
-120.26
-74.30
-34.76
-3.04
22.19
43.48
63.32
83.35
104.39
126.84
150.88
176.43
202.60
227.24
246.67
256.40
252.43
232.89
199.38
156.98
113.20
75.58
49.50
36.94
36.80
45.93
60.47
76.69
91.02
100.18
101.38
92.62
73.66
46.59
15.08
-16.72
-45.58
-69.37
-86.34
-93.69
-88.24
-66.97
-28.37
26.20
91.58
160.02
223.58
276.97
319.70
354.12
384.49
415.39
449.60
486.01
518.65
538.05
534.33
501.50
437.68
346.50
236.48
118.29
1.73
-106.39
-201.98
-287.39
-354.59
-394.46
-405.20
-394.14
-372.67
-350.01
-330.86
-315.63
-302.00
-285.72
-264.35
-236.99
-203.62
-165.33
-124.54
-85.58
-52.81
-28.90
-13.13
-3.87
0.46
2.40
1.69
-1.36
-6.23
-11.27
-14.57
-14.60
-12.48
-11.21
-14.08
-23.59
-40.53
-64.67
-92.99
-120.36
-140.41
-147.87
-140.30
-118.46
-85.97
-47.70
-9.19
26.78
56.98
78.66
89.64
88.91
77.98
61.48
46.09
37.52
41.14
59.56
92.24
132.49
168.79
189.94
190.37
178.16
154.89
122.93
86.85
50.64
20.89
2.36
-3.74
-0.37
5.99
6.22
-6.18
-33.97
-75.51
-124.81
-173.43
-212.32
-234.72
-238.47
-227.66
-209.22
-191.42
-181.53
-183.40
-196.23
-214.27
-228.85
-231.90
-220.14
-195.34
-163.70
-132.55
-106.60
-86.38
-68.93
-50.76
-30.55
-10.24
7.27
20.21
29.26
37.31
47.61
62.39
82.45
107.45
136.33
168.42
203.43
241.29
281.68
323.17
362.52
394.39
412.21
410.00
385.34
340.65
282.60
219.37
157.15
97.90
40.24
-18.08
-76.98
-131.76
-175.45
-202.57
-211.90
-206.78
-193.76
-178.81
-166.30
-158.20
-152.83
-148.15
-144.14
-143.28
-148.86
-163.54
-185.78
-211.83
-236.94
-253.88
-256.87
-244.07
-217.40
-179.77
-134.80
-83.10
-26.41
31.40
89.46
148.26
208.81
272.04
339.02
408.51
480.72
553.17
597.79
591.63
531.07
434.16
324.08
228.59
142.99
62.78
-13.56
-86.54
-152.15
-206.04
-248.33
-283.16
-314.46
-344.53
-368.86
-382.44
-382.99
-368.79
-340.83
-302.99
-260.50
-217.45
-177.19
-139.08
-102.59
-68.49
-36.32
-5.59
23.55
50.14
72.90
89.94
101.34
107.46
108.20
104.45
97.83
90.70
85.75
85.34
90.25
100.49
114.49
128.68
138.64
140.27
131.28
111.47
82.46
47.17
10.10
-23.13
-48.04
-62.37
-66.04
-60.04
-45.63
-24.08
3.30
35.47
71.85
110.62
148.22
180.17
202.28
211.00
203.49
178.12
130.13
65.55
1.69
-42.78
-59.42
-51.42
-28.16
0.75
26.48
47.50
64.18
75.88
80.45
75.62
60.77
36.58
5.44
-30.80
-70.36
-111.36
-152.48
-193.62
-235.41
-277.81
-318.87
-354.15
-377.74
-383.78
-369.43
-337.58
-296.83
-258.01
-229.16
-212.14
-202.84
-194.73
-182.58
-164.87
-143.61
-121.52
-98.94
-72.93
-39.32
3.22
50.13
91.18
114.37
111.44
82.30
35.81
-14.01
-53.72
-75.39
-78.55
-68.44
-52.75
-38.46
-30.05
-29.07
-34.77
-44.34
-53.17
-55.83
-47.66
-26.53
6.47
47.71
93.11
138.94
182.72
223.03
258.78
288.49
310.07
321.57
322.30
314.36
301.34
287.80
277.97
274.20
276.43
281.96
287.15
289.43
289.20
287.23
284.14
279.56
272.09
260.14
242.19
217.78
188.19
157.44
127.29
97.96
67.70
33.90
-5.56
-51.98
-104.95
-168.33
-234.67
-293.24
-333.82
-352.76
-354.37
-341.95
-317.90
-285.93
-251.92
-219.98
-200.19
-199.49
-219.92
-256.50
-298.23
-332.07
-346.76
-335.46
-294.35
-230.50
-153.00
-71.95
4.57
72.39
130.50
179.57
207.33
229.26
240.41
238.80
225.89
207.54
192.45
187.94
196.61
215.32
239.56
260.54
275.07
284.29
291.71
299.49
305.65
304.24
287.98
253.64
198.89
127.09
44.09
-43.53
-129.24
-206.53
-268.76
-309.58
-323.28
-309.85
-272.61
-218.39
-155.63
-92.51
-35.46
10.70
42.35
57.34
53.42
31.08
-5.88
-50.35
-93.38
-126.24
-142.92
-141.57
-124.09
-96.12
-63.93
-32.60
-5.13
17.14
33.07
40.96
38.18
25.16
6.65
-9.18
-15.02
-7.85
9.74
30.70
46.99
52.76
48.63
37.52
23.63
10.19
-1.60
-12.10
-21.93
-30.78
-37.23
-36.03
-25.48
-7.20
14.05
32.67
45.14
51.74
56.00
62.22
72.66
84.93
93.68
93.01
79.67
54.52
22.09
-11.32
-39.77
-59.11
-68.12
-67.76
-60.44
-48.87
-35.26
-20.86
-6.15
8.32
20.81
27.59
24.17
7.15
-23.84
-65.77
-113.05
-159.81
-201.08
-233.59
-255.69
-266.74
-266.88
-256.76
-237.99
-212.63
-183.27
-151.95
-120.36
-90.21
-63.72
-43.28
-30.25
-24.59
-24.02
-25.31
-24.72
-19.52
-9.08
4.77
18.53
28.87
33.13
34.85
36.30
38.97
43.20
48.85
56.03
62.86
71.66
85.01
104.32
128.45
155.18
181.42
205.21
227.06
248.84
271.66
293.05
307.62
309.11
294.39
264.95
225.69
181.65
135.10
85.53
31.54
-25.20
-78.36
-118.14
-136.01
-129.32
-103.30
-68.97
-37.82
-17.20
-8.02
-6.27
-6.16
-3.86
0.82
5.10
5.14
-1.68
-15.69
-34.83
-55.84
-75.68
-92.94
-108.72
-126.39
-150.12
-182.89
-224.77
-272.52
-320.75
-363.38
-395.32
-413.60
-417.95
-410.92
-397.16
-381.75
-367.86
-355.01
-339.05
-314.19
-276.56
-226.64
-169.41
-112.00
-60.30
-16.75
19.69
51.62
80.93
107.75
131.16
150.64
167.17
182.99
200.21
219.07
237.39
250.99
255.84
250.27
236.08
218.04
201.57
190.09
183.61
179.20
173.22
163.82
152.30
142.45
138.41
142.30
152.87
166.05
176.65
180.40
175.49
162.46
143.41
120.80
96.71
72.69
50.18
30.71
15.89
6.66
2.53
1.14
-1.00
-7.07
-18.30
-33.04
-47.35
-56.69
-57.94
-50.80
-37.81
-23.01
-10.05
-0.83
5.00
9.36
14.64
22.85
34.98
51.04
70.05
90.03
108.00
120.38
123.68
115.60
95.96
66.92
32.42
-3.11
-35.96
-63.77
-85.39
-100.33
-108.26
-108.95
-102.70
-90.71
-75.11
-58.57
-43.74
-32.69
-26.62
-25.66
-28.92
-34.59
-40.40
-44.17
-44.50
-41.15
-34.92
-27.12
-18.92
-11.02
-3.59
3.36
9.79
15.51
20.44
24.75
28.78
32.89
37.10
40.88
43.22
43.04
39.55
32.70
23.36
13.07
3.79
-2.49
-4.25
-0.64
8.14
20.81
35.14
48.48
58.36
63.27
63.13
59.34
54.31
50.56
49.80
52.35
57.10
61.95
64.68
63.72
58.58
50.05
39.91
30.55
24.49
23.57
28.37
37.87
49.51
59.68
64.57
61.31
49.00
29.35
6.30
-15.09
-30.34
-37.48
-38.15
-37.19
-40.41
-51.63
-70.33
-91.75
-109.15
-116.87
-112.91
-99.51
-81.44
-63.03
-45.88
-28.25
-7.10
19.46
51.05
84.58
114.99
136.24
142.66
130.06
97.42
46.68
-17.07
-85.76
-150.10
-202.09
-237.70
-256.97
-262.64
-257.22
-242.84
-221.18
-193.20
-159.46
-120.48
-77.16
-30.12
20.42
74.51
128.99
172.59
188.68
167.16
113.82
46.41
-14.38
-58.50
-80.40
-80.20
-64.08
-39.44
-17.13
-7.52
-17.65
-48.11
-91.82
-134.60
-162.42
-167.46
-149.97
-116.63
-76.15
-36.22
-1.67
25.77
48.41
69.07
88.66
106.06
119.03
125.41
122.96
109.90
86.66
59.62
38.80
33.19
47.29
80.22
126.95
179.59
229.25
256.80
246.41
198.12
129.98
64.67
16.37
-12.38
-27.67
-38.81
-52.98
-70.21
-86.00
-96.81
-102.92
-107.60
-114.20
-123.34
-131.72
-133.02
-119.31
-83.96
-29.77
31.85
85.21
116.27
117.44
89.44
40.73
-14.50
-61.41
-90.18
-98.43
-90.47
-74.22
-57.37
-44.32
-35.02
-26.04
-13.80
1.78
17.23
27.70
30.10
24.68
14.43
2.83
-7.73
-16.78
-25.26
-33.49
-40.19
-43.02
-39.25
-29.71
-20.28
-17.32
-22.52
-32.57
-42.58
-49.46
-53.12
-56.05
-58.41
-57.89
-50.15
-31.25
-0.37
39.22
81.70
121.02
149.52
163.06
161.07
145.89
121.02
89.36
52.64
12.23
-29.93
-71.13
-107.58
-135.67
-152.31
-155.43
-144.38
-120.17
-86.00
-47.34
-11.35
15.32
28.44
28.10
18.77
7.38
0.48
1.67
10.53
23.60
36.58
46.54
53.09
58.29
64.91
74.47
86.10
96.71
102.88
102.94
98.05
91.40
86.21
83.67
82.30
78.69
69.54
53.69
33.08
11.98
-4.93
-14.27
-14.86
-7.29
6.69
24.79
44.83
64.71
81.97
93.51
96.50
89.61
74.05
52.47
26.91
-2.27
-36.32
-76.57
-122.33
-168.57
-206.02
-223.81
-214.55
-178.03
-121.08
-53.96
13.72
75.00
123.11
148.43
145.03
115.38
68.94
17.93
-25.95
-54.41
-67.41
-69.79
-68.13
-67.94
-71.92
-79.63
-88.30
-94.93
-95.29
-88.86
-77.53
-64.34
-51.94
-42.44
-37.67
-38.64
-44.34
-51.04
-53.38
-45.38
-23.51
11.44
53.76
94.57
125.30
140.51
138.82
121.44
91.15
51.16
5.77
-39.20
-76.71
-100.26
-106.39
-96.19
-75.03
-49.68
-25.44
-4.64
12.50
25.58
32.82
31.37
19.86
0.50
-19.93
-32.64
-30.53
-11.44
20.80
58.40
92.71
117.73
131.53
136.24
136.09
135.18
135.34
135.06
130.26
116.41
92.35
61.67
31.42
8.34
-4.83
-10.37
-13.96
-20.88
-33.08
-47.24
-58.03
-62.11
-60.81
-59.10
-61.58
-70.07
-83.92
-102.99
-127.47
-158.43
-195.79
-235.63
-269.11
-283.93
-269.57
-223.06
-152.22
-70.24
8.83
75.16
125.21
157.06
170.43
169.88
168.89
169.71
170.35
165.50
153.50
134.96
112.10
88.38
67.12
49.96
35.79
24.24
15.87
12.20
14.10
20.78
29.88
37.89
40.88
35.61
22.73
5.61
-11.87
-28.42
-46.26
-69.37
-100.33
-138.13
-177.98
-212.05
-233.58
-239.91
-233.35
-218.57
-199.09
-175.08
-144.79
-107.84
-67.18
-29.16
-0.31
16.59
24.84
32.56
48.54
77.42
117.51
162.26
203.97
237.20
260.22
274.00
280.14
279.13
269.94
251.00
221.66
183.13
138.83
93.74
53.12
21.20
0.07
-10.84
-14.28
-13.91
-13.03
-13.56
-15.85
-19.17
-22.36
-24.47
-24.89
-23.18
-18.99
-12.17
-2.98
7.58
17.89
26.20
31.29
33.03
32.51
31.54
31.83
34.27
38.77
44.48
50.39
55.65
59.63
61.65
60.54
54.51
41.45
19.45
-12.55
-54.33
-103.99
-158.08
-211.64
-258.74
-293.51
-311.27
-309.60
-288.63
-250.82
-200.35
-142.66
-84.00
-31.04
10.18
35.59
44.28
39.07
25.58
10.14
-2.69
-11.27
-16.27
-18.95
-20.22
-20.60
-21.07
-23.22
-29.03
-39.98
-55.95
-74.70
-92.16
-104.34
-109.23
-107.50
-101.33
-92.52
-81.63
-68.29
-51.82
-31.56
-7.87
17.40
41.93
64.24
84.11
101.32
113.14
114.39
100.29
68.33
19.30
-42.71
-111.47
-173.08
-211.06
-217.12
-197.20
-164.83
-130.68
-97.97
-64.34
-25.86
19.61
70.46
123.36
172.15
212.17
242.28
264.34
281.73
297.49
301.55
291.76
268.96
235.50
194.96
151.05
106.55
63.45
23.35
-11.08
-35.17
-46.44
-45.53
-35.15
-19.24
-1.99
13.09
23.08
25.12
17.48
-2.08
-34.75
-78.18
-125.93
-169.28
-196.51
-202.61
-189.33
-162.55
-130.34
-99.88
-75.28
-57.58
-45.96
-38.61
-33.47
-27.31
-16.21
3.43
32.65
69.37
108.85
145.27
173.94
192.27
200.49
200.95
196.80
190.83
185.04
179.92
174.48
166.58
153.07
131.22
99.55
58.69
10.77
-40.09
-88.00
-126.57
-148.92
-148.32
-119.67
-62.81
15.69
102.38
180.11
232.35
249.85
233.63
192.82
139.76
83.43
27.68
-27.96
-84.96
-144.09
-201.90
-251.31
-285.18
-299.53
-297.03
-284.45
-269.44
-257.44
-251.74
-250.38
-247.69
-237.79
-217.34
-188.77
-157.01
-126.52
-86.03
-31.83
32.12
97.32
151.77
195.88
228.90
249.09
255.03
246.89
224.74
190.76
148.24
100.36
50.19
-0.76
-49.71
-92.05
-122.39
-138.22
-139.12
-126.94
-105.30
-78.08
-49.81
-23.57
-0.87
17.48
29.75
34.91
33.41
27.34
19.70
12.13
4.78
-3.42
-13.63
-26.07
-38.51
-46.97
-47.71
-39.39
-24.65
-8.71
2.90
6.71
2.33
-7.60
-19.04
-28.40
-33.61
-34.52
-32.01
-27.22
-20.93
-13.27
-3.81
8.03
22.37
38.42
54.08
66.05
70.26
62.93
41.99
8.56
-32.33
-72.56
-103.34
-118.50
-117.05
-103.80
-87.07
-75.00
-71.97
-77.20
-86.22
-93.86
-97.12
-95.78
-91.36
-85.22
-77.73
-68.75
-58.56
-48.33
-39.17
-30.71
-20.34
-4.14
20.49
52.52
86.68
115.36
132.05
134.19
123.81
105.73
84.72
63.66
43.78
26.32
13.90
10.00
16.61
31.62
48.38
58.03
53.58
33.37
1.72
-33.27
-63.57
-84.04
-93.38
-93.11
-85.84
-74.22
-60.59
-46.87
-34.09
-21.69
-7.27
12.33
39.05
71.83
106.49
137.31
159.64
171.88
175.49
173.86
170.36
167.26
166.11
168.74
177.95
196.85
227.04
266.31
308.12
342.73
360.00
352.78
319.30
263.92
195.87
126.72
67.01
23.23
-3.87
-19.00
-29.69
-42.62
-60.26
-79.68
-94.14
-96.80
-84.48
-59.50
-28.76
-0.42
19.48
29.20
31.12
29.66
28.56
28.91
28.81
24.51
12.58
-8.49
-37.85
-72.86
-110.93
-150.76
-192.04
-233.88
-272.98
-303.36
-318.38
-314.19
-292.49
-260.63
-228.33
-203.08
-186.51
-174.33
-159.49
-136.74
-105.87
-71.68
-41.06
-19.12
-6.95
-1.72
0.86
4.14
9.11
14.90
20.25
24.89
29.65
35.58
42.69
49.85
55.26
57.85
58.23
58.62
62.05
70.82
85.40
103.94
122.71
137.03
142.56
136.32
117.43
87.51
50.01
9.27
-30.32
-64.85
-91.33
-107.99
-114.66
-112.99
-106.14
-98.09
-92.51
-91.64
-95.93
-104.50
-116.06
-129.84
-145.86
-164.10
-184.08
-204.37
-222.78
-237.04
-245.81
-249.00
-247.37
-241.71
-231.43
-215.59
-193.56
-165.25
-130.95
-91.29
-47.42
-1.46
43.31
84.14
117.28
138.76
146.14
140.04
124.17
103.96
85.08
72.24
70.90
83.26
107.75
140.17
176.13
212.86
249.28
285.15
319.68
353.50
383.90
405.55
413.25
405.18
383.73
353.51
319.03
264.83
189.25
105.37
32.45
-18.58
-49.69
-70.51
-91.87
-120.82
-158.30
-196.85
-229.50
-253.22
-268.01
-274.82
-273.62
-263.41
-242.76
-211.13
-167.68
-115.03
-58.76
-5.71
37.73
69.15
90.03
104.52
116.93
131.10
147.24
162.17
171.43
171.99
163.96
149.75
132.49
114.31
96.31
77.74
57.02
33.24
7.41
-17.43
-37.78
-51.37
-58.33
-60.64
-61.19
-62.23
-64.29
-66.16
-65.69
-61.31
-52.72
-41.02
-27.82
-14.59
-2.43
7.90
15.72
20.18
20.41
16.06
7.72
-2.95
-13.57
-21.76
-26.07
-26.43
-24.05
-20.46
-16.35
-10.97
-2.54
10.23
27.02
45.59
62.61
75.43
83.78
90.13
98.26
110.47
124.76
135.14
133.79
114.61
76.11
22.72
-36.41
-89.87
-127.50
-144.06
-139.11
-116.36
-82.46
-45.96
-15.80
0.30
-1.94
-22.74
-59.83
-107.28
-156.84
-199.74
-229.58
-243.52
-243.11
-232.58
-217.99
-207.18
-205.48
-214.31
-231.77
-255.34
-283.13
-315.23
-351.50
-372.33
-360.56
-308.82
-224.74
-124.26
-22.44
71.61
151.13
221.10
285.05
341.60
387.59
420.39
440.36
442.11
426.94
399.36
365.84
331.41
297.42
263.78
230.51
198.95
170.83
148.16
130.04
113.18
92.31
62.48
22.89
-22.01
-64.23
-96.52
-115.17
-122.74
-126.05
-132.88
-148.07
-170.92
-195.93
-215.91
-225.56
-222.79
-209.06
-187.08
-159.07
-126.01
-88.15
-46.56
-4.12
34.68
65.55
85.96
96.35
99.66
99.74
99.38
99.28
98.31
94.76
87.66
77.35
65.22
53.24
43.07
35.48
30.01
24.96
17.76
5.76
-12.92
-38.60
-69.69
-103.05
-134.69
-160.82
-178.80
-187.40
-186.78
-178.15
-163.06
-142.92
-118.77
-91.32
-61.22
-29.33
3.26
35.39
65.87
93.45
116.63
133.56
142.38
142.00
132.74
116.62
96.75
76.35
57.86
42.54
30.63
21.88
16.01
12.84
12.16
13.47
15.91
18.53
20.55
21.66
22.02
21.91
21.48
20.55
18.73
15.81
12.22
9.12
8.18
10.75
17.01
25.69
34.42
40.62
42.57
39.85
33.31
24.59
15.57
7.97
3.26
2.43
5.65
12.01
19.54
25.82
28.94
28.35
24.97
20.69
17.34
15.81
15.82
16.28
16.09
14.82
13.06
12.35
14.50
20.84
31.54
45.16
58.96
69.77
74.99
73.29
64.76
50.44
31.58
9.34
-15.26
-40.96
-65.85
-87.47
-103.49
-112.56
-114.87
-112.05
-106.43
-100.24
-94.94
-91.07
-88.62
-87.36
-87.01
-87.03
-86.54
-84.19
-79.03
-70.84
-60.31
-48.62
-36.87
-25.56
-14.29
-2.81
8.70
18.39
23.69
22.80
16.15
6.49
-2.16
-5.90
-3.49
3.84
11.85
15.67
12.14
1.43
-13.49
-28.07
-37.56
-40.20
-36.58
-30.98
-29.09
-36.03
-54.46
-84.59
-124.43
-169.94
-218.49
-256.41
-270.09
-253.09
-212.36
-163.10
-118.93
-90.56
-70.06
-47.85
-16.16
27.48
81.25
140.41
198.14
242.32
261.58
252.89
222.52
183.06
144.20
109.22
76.61
46.88
18.26
-6.51
-22.01
-25.13
-15.47
4.25
30.31
57.77
83.71
105.72
122.39
132.77
135.63
131.37
122.33
112.60
106.22
105.35
108.58
112.62
114.04
110.37
101.31
88.09
72.30
54.97
36.50
16.89
-2.88
-20.88
-35.05
-44.27
-49.08
-51.48
-54.04
-58.47
-64.89
-71.29
-74.32
-70.65
-58.30
-37.23
-9.25
22.80
55.96
87.73
116.31
140.47
159.48
173.28
182.87
190.51
199.23
211.71
228.63
247.56
262.96
267.77
255.90
224.73
176.22
116.13
51.95
-9.71
-64.76
-111.91
-151.80
-185.71
-214.95
-240.45
-262.77
-281.83
-296.70
-305.32
-305.10
-293.82
-270.50
-235.80
-191.82
-141.47
-88.13
-35.49
12.54
52.23
80.78
97.03
101.58
96.07
82.29
61.55
34.93
3.95
-29.22
-62.63
-95.83
-130.45
-169.25
-213.50
-260.57
-303.42
-332.85
-341.31
-326.19
-290.63
-241.54
-186.14
-129.52
-74.61
-24.01
18.20
46.48
56.14
46.39
22.27
-5.90
-25.86
-27.77
-7.71
31.13
79.79
126.94
162.42
180.05
178.77
161.94
135.68
106.90
81.60
63.73
54.85
54.46
60.75
71.49
84.53
98.17
111.16
122.34
130.42
134.38
133.64
128.72
121.03
111.91
101.87
90.38
76.32
59.07
39.31
18.75
-0.61
-17.88
-34.29
-52.33
-74.09
-99.60
-126.35
-150.16
-167.26
-175.42
-174.32
-165.65
-151.32
-132.20
-108.01
-78.62
-44.72
-8.94
25.96
58.37
86.61
109.74
127.78
141.31
150.43
155.07
153.60
145.72
133.24
116.98
97.54
76.33
55.96
39.18
28.84
24.31
23.99
25.45
21.40
2.56
-37.80
-100.45
-180.44
-268.14
-355.76
-436.14
-483.69
-478.40
-419.10
-326.01
-226.07
-149.66
-96.10
-60.79
-38.46
-22.82
-8.05
8.98
31.88
64.93
110.12
166.07
220.92
258.72
269.69
253.59
218.10
173.34
128.00
90.72
62.27
41.42
28.77
26.63
35.54
53.85
77.47
103.14
127.98
149.17
163.29
168.35
164.73
153.94
137.82
118.29
97.29
75.78
53.52
29.68
4.25
-21.25
-44.78
-65.12
-82.34
-97.30
-110.93
-123.38
-133.13
-137.49
-133.69
-120.32
-98.17
-69.64
-37.29
-2.96
32.21
67.43
101.22
131.32
155.39
172.08
181.77
186.37
188.09
188.20
186.61
182.02
172.91
158.30
138.07
112.88
83.97
52.95
21.76
-7.72
-34.42
-58.68
-82.10
-106.64
-133.07
-160.13
-184.85
-204.16
-216.69
-223.42
-226.76
-228.45
-227.94
-222.31
-207.92
-182.76
-147.92
-107.34
-65.95
-27.67
5.73
34.19
58.17
77.56
91.63
99.78
102.34
100.90
97.53
93.67
89.48
83.81
74.92
61.24
41.79
16.48
-13.71
-46.68
-79.29
-107.61
-127.81
-137.05
-134.32
-120.86
-99.47
-73.59
-46.56
-21.45
-1.07
12.29
17.31
14.08
3.78
-10.79
-25.49
-35.69
-37.51
-28.90
-10.34
15.39
43.66
68.00
83.15
86.96
80.91
68.97
55.84
45.31
39.86
40.09
43.30
46.65
48.86
50.31
51.30
50.72
45.60
32.77
9.71
-26.81
-77.31
-138.26
-202.68
-262.51
-310.25
-340.23
-348.44
-321.27
-257.64
-173.10
-92.57
-34.33
-2.91
10.97
16.32
19.47
23.95
28.02
30.62
33.25
39.53
52.46
72.06
94.69
115.47
130.37
136.60
135.87
134.13
138.54
153.13
176.49
202.72
225.51
241.10
248.22
248.55
244.87
238.78
229.22
213.22
188.06
153.83
113.91
73.18
36.70
7.97
-12.11
-25.34
-35.21
-45.31
-57.58
-71.93
-86.86
-100.18
-109.92
-114.78
-114.31
-108.64
-98.23
-83.65
-65.77
-45.90
-25.72
-6.88
9.52
23.27
35.02
45.77
56.26
66.38
75.06
80.94
83.18
82.34
80.54
80.59
84.80
93.69
105.58
117.16
124.91
126.41
121.10
110.12
95.23
77.87
58.79
38.17
15.92
-7.84
-32.79
-58.58
-84.74
-110.92
-136.71
-161.50
-184.73
-206.56
-228.36
-252.63
-281.36
-313.56
-344.03
-364.25
-365.56
-343.47
-300.73
-246.78
-194.35
-153.57
-127.61
-113.03
-103.34
-93.45
-82.10
-70.57
-59.75
-48.91
-35.10
-14.89
11.90
40.93
65.11
77.90
77.38
67.04
52.23
38.39
29.33
25.18
23.36
20.85
16.13
10.78
8.66
12.03
22.03
39.66
64.46
94.85
128.43
157.10
170.45
172.04
165.91
151.19
131.09
110.69
94.84
86.55
86.05
92.14
103.05
115.02
124.45
129.08
126.75
115.82
96.17
69.79
41.10
15.28
-5.38
-21.08
-33.22
-44.05
-55.21
-66.90
-78.12
-87.20
-92.82
-95.39
-95.81
-94.08
-89.54
-81.09
-67.67
-49.08
-26.24
-1.21
22.74
42.33
55.51
61.73
62.20
59.39
56.13
54.53
55.20
56.94
57.58
55.26
49.44
41.28
33.34
28.42
28.38
33.25
41.34
50.19
57.78
63.36
67.65
72.10
77.89
85.09
92.64
98.88
102.75
104.44
105.22
106.49
108.32
108.52
102.70
85.60
53.00
3.77
-59.19
-129.43
-198.57
-258.77
-304.45
-332.91
-343.85
-338.55
-319.26
-289.27
-253.00
-215.76
-182.70
-157.31
-140.39
-130.04
-122.85
-115.58
-106.49
-95.69
-84.46
-74.19
-65.42
-57.46
-48.87
-37.99
-23.59
-5.15
17.10
42.43
69.91
98.71
128.11
157.18
184.63
208.69
227.28
238.69
242.04
237.78
227.63
214.09
199.87
187.20
177.40
170.82
166.88
164.35
161.64
157.20
150.05
140.17
128.56
116.60
105.29
94.55
83.07
68.85
49.98
25.54
-4.01
-36.95
-70.88
-103.27
-131.91
-155.11
-171.87
-182.10
-186.64
-187.07
-185.18
-182.24
-178.62
-173.88
-167.25
-158.25
-146.98
-134.08
-120.30
-106.26
-92.31
-78.66
-65.62
-53.62
-42.80
-32.91
-23.49
-14.21
-5.36
2.26
7.72
10.44
10.53
8.72
6.00
3.38
1.77
1.97
4.70
10.26
18.18
27.04
34.74
39.22
39.40
35.60
29.30
22.51
16.97
13.40
11.73
11.13
10.64
9.60
7.93
5.87
3.77
1.91
0.30
-0.98
-1.72
-1.50
0.17
3.46
7.98
12.73
16.53
18.37
18.03
16.07
13.79
12.62
13.62
17.21
23.06
30.19
37.33
43.34
47.57
50.03
51.36
52.46
54.15
56.91
60.76
65.23
69.90
74.40
78.61
82.69
86.85
91.25
95.63
99.11
100.20
97.29
89.14
75.25
56.31
33.77
9.37
-15.38
-39.24
-61.07
-79.63
-93.74
-102.65
-106.30
-105.51
-101.66
-96.08
-89.70
-82.87
-75.58
-67.79
-59.72
-51.65
-43.91
-36.72
-30.31
-25.19
-22.14
-21.90
-24.74
-30.20
-37.04
-43.69
-48.64
-50.71
-49.26
-44.03
-35.25
-24.05
-12.81
-5.07
-4.65
-13.91
-32.13
-55.62
-79.17
-98.41
-111.63
-119.85
-125.38
-129.75
-132.50
-131.21
-123.45
-108.89
-89.79
-70.16
-53.48
-41.14
-32.18
-24.40
-15.16
-3.55
8.95
19.41
24.91
24.24
18.55
10.96
5.64
8.15
22.57
49.95
88.05
132.36
177.68
219.11
252.68
275.66
289.29
296.17
299.27
301.06
303.39
307.20
311.80
314.34
310.48
299.30
281.55
259.48
236.45
217.07
206.82
210.52
230.05
243.07
231.27
187.12
118.80
42.48
-27.66
-83.94
-125.06
-154.57
-178.41
-198.33
-213.76
-223.27
-227.35
-227.90
-227.28
-227.48
-229.40
-232.97
-234.38
-229.96
-218.27
-201.08
-182.10
-165.06
-152.70
-143.89
-137.80
-131.68
-123.19
-111.58
-98.15
-85.31
-75.41
-69.66
-67.98
-69.42
-71.32
-71.16
-67.51
-60.67
-52.31
-44.64
-39.37
-37.03
-37.03
-37.27
-35.27
-29.05
-17.76
-1.78
17.47
37.81
56.59
70.68
77.07
73.28
58.06
32.11
-1.53
-37.69
-69.98
-92.33
-100.53
-93.21
-72.00
-40.67
-3.74
34.75
71.97
106.11
135.89
160.18
177.94
188.49
191.69
187.93
177.90
162.37
142.03
117.68
90.38
61.21
30.82
-0.78
-33.77
-67.57
-99.96
-127.17
-144.98
-150.41
-143.24
-126.12
-103.44
-79.53
-57.19
-37.42
-20.05
-4.94
7.42
15.88
19.32
17.39
10.74
0.83
-10.71
-22.44
-33.49
-43.61
-53.00
-61.99
-70.65
-78.64
-85.18
-89.41
-90.78
-89.10
-84.47
-76.87
-65.80
-50.24
-29.29
-2.87
27.54
59.17
88.99
114.79
135.84
152.75
166.66
178.23
187.15
191.99
190.99
183.08
168.27
147.63
122.85
96.03
69.46
45.22
24.45
7.15
-7.48
-20.37
-31.77
-40.87
-46.10
-46.17
-40.89
-32.16
-25.59
-27.15
-40.02
-62.32
-88.87
-114.34
-135.21
-149.09
-153.81
-146.42
-124.22
-86.63
-37.21
16.19
64.81
100.18
117.69
118.57
109.39
98.48
92.11
92.38
97.42
103.79
109.07
113.52
115.45
115.16
112.24
105.01
91.71
72.13
48.58
25.25
6.62
-4.55
-8.21
-7.50
-7.21
-11.60
-22.42
-38.44
-56.36
-72.67
-85.72
-96.69
-109.88
-130.93
-164.44
-211.75
-270.21
-333.69
-393.76
-441.22
-467.57
-467.02
-437.86
-383.20
-310.50
-229.80
-150.97
-81.15
-23.47
22.63
59.55
89.82
114.96
135.40
151.02
162.01
169.47
175.24
181.44
189.25
198.40
206.81
211.38
209.25
199.09
181.71
159.66
135.96
112.63
89.98
66.59
40.40
10.03
-24.61
-62.28
-101.14
-139.45
-176.07
-210.06
-239.89
-262.97
-275.70
-274.67
-258.19
-227.15
-184.80
-135.31
-82.04
-26.53
31.33
91.84
153.87
213.99
266.93
307.05
330.22
335.20
323.83
300.24
269.38
235.48
201.37
168.58
137.82
109.69
84.87
64.00
47.29
34.37
24.43
16.57
10.33
5.81
3.51
3.98
7.37
13.12
19.89
25.66
28.10
25.22
16.15
1.54
-16.29
-33.93
-47.73
-54.82
-53.65
-44.20
-27.76
-6.55
16.56
38.54
56.70
69.37
76.33
78.82
78.96
78.92
80.14
83.02
87.11
91.46
95.05
96.90
96.15
92.02
84.08
72.57
58.57
43.85
30.15
18.52
8.83
-0.13
-10.20
-22.95
-39.01
-58.07
-79.27
-101.70
-124.80
-148.22
-171.50
-193.85
-214.00
-230.33
-241.08
-244.25
-237.46
-218.04
-183.70
-133.84
-70.85
-0.41
69.46
130.55
176.99
206.56
220.43
221.68
213.44
198.06
177.03
151.74
123.88
95.24
66.74
38.03
8.01
-23.86
-56.44
-86.94
-112.15
-130.29
-141.92
-149.63
-156.57
-164.52
-172.96
-179.27
-180.12
-172.90
-156.72
-132.44
-102.48
-70.17
-39.20
-13.14
5.37
15.20
17.05
13.42
8.00
4.68
6.26
13.45
24.29
34.56
39.21
34.29
18.96
-3.51
-26.20
-40.83
-40.81
-24.03
5.91
40.84
70.78
87.46
86.74
69.50
40.56
6.41
-27.25
-56.80
-80.78
-98.95
-111.08
-116.77
-115.56
-107.45
-93.15
-73.91
-51.05
-25.44
2.55
32.96
65.67
99.79
133.31
163.14
185.71
197.99
198.65
188.48
170.25
147.62
123.82
100.58
77.99
55.38
32.32
9.14
-13.43
-34.90
-55.33
-74.59
-91.20
-101.69
-101.32
-86.27
-56.21
-15.68
26.78
61.33
80.35
80.90
65.11
38.74
8.66
-19.29
-41.32
-55.61
-61.72
-60.15
-52.32
-40.80
-29.22
-21.53
-20.64
-27.31
-39.68
-53.82
-65.20
-70.26
-67.61
-58.00
-43.70
-27.28
-10.70
4.89
19.00
31.37
41.49
48.45
50.96
47.62
37.29
19.77
-3.92
-31.33
-58.92
-82.86
-99.95
-108.39
-107.88
-99.32
-84.02
-63.51
-39.62
-14.93
7.11
22.58
28.35
23.63
10.84
-4.93
-17.94
-24.26
-23.28
-17.53
-11.08
-8.04
-10.82
-19.47
-32.00
-45.50
-57.07
-64.20
-64.65
-56.66
-40.63
-18.98
4.69
27.15
46.48
62.27
75.42
87.66
100.50
112.78
121.88
125.38
122.79
115.31
104.60
92.18
79.92
69.57
59.62
46.23
24.32
-10.42
-60.45
-125.97
-204.57
-290.55
-366.32
-411.99
-414.23
-374.50
-304.58
-217.56
-124.65
-36.28
38.69
100.30
148.17
183.60
209.94
231.90
253.70
278.28
300.29
317.61
329.75
335.01
331.28
316.91
292.39
260.94
227.52
197.16
174.52
161.52
155.79
153.02
148.97
141.18
129.01
112.54
92.12
69.09
44.76
19.66
-5.78
-31.08
-55.50
-78.27
-99.05
-117.84
-134.27
-147.98
-159.12
-168.27
-176.16
-183.46
-190.46
-196.85
-201.62
-203.01
-199.32
-189.48
-173.12
-150.29
-121.24
-86.56
-47.68
-6.98
32.51
67.70
96.40
117.64
131.94
140.67
144.99
145.22
140.94
131.67
117.61
99.91
79.77
58.96
39.20
21.46
5.51
-9.60
-24.72
-39.97
-54.53
-68.69
-81.97
-93.80
-104.26
-114.36
-125.20
-136.99
-148.97
-160.17
-172.87
-188.76
-208.37
-231.39
-257.19
-285.16
-314.74
-345.44
-376.41
-408.48
-437.84
-456.23
-454.59
-427.53
-376.02
-307.16
-231.81
-141.52
-43.05
49.29
123.41
176.58
213.33
238.95
256.25
265.75
268.25
261.97
247.59
228.03
206.58
185.16
164.62
145.94
130.89
121.93
118.76
121.30
129.22
140.33
150.04
153.65
148.96
137.19
121.50
103.85
86.58
72.00
61.94
56.84
55.81
56.93
58.12
57.59
53.77
47.68
40.12
32.48
25.92
20.92
17.31
14.52
11.83
8.50
4.29
-0.59
-5.43
-9.43
-11.89
-12.27
-10.20
-5.78
0.57
8.03
15.46
21.94
26.93
30.41
32.81
34.76
36.77
39.06
41.49
43.66
45.29
46.28
46.76
46.98
47.11
47.05
46.34
44.31
40.23
33.84
25.57
16.57
8.47
2.98
1.24
3.58
9.34
17.09
25.21
32.33
37.60
40.97
43.10
45.15
48.33
53.18
58.90
63.13
62.10
51.60
28.26
-9.24
-59.51
-118.70
-181.48
-242.18
-295.72
-338.02
-366.00
-377.68
-372.42
-351.52
-318.22
-277.28
-233.40
-189.49
-145.51
-98.68
-45.25
16.82
85.75
155.45
216.93
260.96
280.65
273.33
241.39
191.91
135.44
84.20
49.19
37.14
48.80
79.41
121.28
167.33
213.22
256.81
295.87
325.92
340.11
332.02
299.30
245.80
180.44
113.29
51.47
-2.71
-50.53
-93.79
-132.06
-162.25
-180.29
-183.89
-174.25
-155.94
-135.17
-117.56
-106.36
-102.14
-103.62
-108.91
-116.42
-125.30
-135.25
-145.95
-156.55
-165.67
-171.69
-173.39
-170.53
-163.86
-154.76
-144.65
-134.53
-124.75
-115.08
-105.23
-95.18
-85.40
-76.56
-69.17
-63.35
-58.69
-54.48
-50.00
-44.70
-38.18
-29.99
-19.56
-6.16
10.79
31.45
55.33
81.38
108.27
134.67
159.26
180.65
197.26
207.53
210.30
205.11
192.48
173.71
150.60
124.93
98.29
72.07
47.49
25.65
7.44
-6.61
-16.35
-21.98
-23.84
-22.28
-17.62
-10.24
-0.74
10.08
21.26
31.83
40.92
47.93
52.60
54.91
54.97
52.92
48.79
42.50
34.01
23.41
11.08
-2.29
-15.81
-28.51
-39.57
-48.35
-54.52
-58.05
-59.20
-58.46
-56.46
-53.77
-50.78
-47.67
-44.52
-41.40
-38.43
-35.84
-33.82
-32.48
-31.80
-31.63
-31.69
-31.70
-31.34
-30.36
-28.65
-26.27
-23.40
-20.31
-17.18
-14.14
-11.18
-8.35
-5.67
-3.22
-1.07
0.81
2.55
4.28
6.10
7.90
9.40
10.22
10.02
8.71
6.54
4.12
2.19
1.48
2.37
4.80
8.35
12.40
16.34
19.73
22.34
24.10
25.10
25.39
25.00
23.94
22.24
19.94
17.23
14.37
11.63
9.28
7.38
5.88
4.64
3.51
2.39
1.24
0.06
-1.21
-2.65
-4.40
-6.54
-9.01
-11.65
-14.23
-16.62
-18.85
-21.14
-23.76
-26.90
-30.52
-34.29
-37.68
-40.02
-40.81
-39.77
-36.94
-32.70
-27.57
-22.13
-16.82
-11.89
-7.43
-3.51
-0.30
1.83
2.44
1.16
-2.05
-6.83
-12.47
-18.06
-22.80
-26.22
-28.17
-28.85
-28.55
-27.53
-25.89
-23.64
-20.82
-17.58
-14.29
-11.38
-9.24
-8.00
-7.50
-7.39
-7.23
-6.70
-5.69
-4.29
-2.73
-1.31
-0.29
0.23
0.35
0.43
1.05
2.81
6.15
11.11
17.25
23.82
29.98
35.11
38.98
41.73
43.71
45.23
46.43
47.23
47.43
46.80
45.08
42.00
37.29
30.84
22.95
14.44
6.62
0.86
-1.98
-1.92
0.06
2.46
3.85
3.41
1.11
-2.48
-6.61
-10.64
-14.21
-17.10
-19.22
-20.50
-21.04
-21.14
-21.27
-21.92
-23.33
-25.34
-27.41
-28.82
-28.95
-27.53
-24.67
-20.71
-16.08
-11.12
-6.00
-0.88
4.10
8.69
12.64
15.79
18.13
19.81
21.01
21.86
22.39
22.56
22.39
21.96
21.38
20.69
19.69
18.07
15.46
11.73
7.10
2.10
-2.56
-6.31
-8.87
-10.21
-10.51
-9.99
-8.91
-7.60
-6.48
-6.11
-6.97
-9.34
-13.09
-17.73
-22.47
-26.52
-29.31
-30.62
-30.57
-29.53
-27.98
-26.33
-24.88
-23.76
-22.92
-22.18
-21.29
-20.04
-18.35
-16.43
-14.67
-13.59
-13.65
-15.11
-17.96
-22.03
-27.05
-32.62
-38.07
-42.32
-43.91
-41.20
-32.82
-18.28
1.70
25.24
49.79
72.80
92.41
107.66
118.32
124.44
125.97
122.65
114.15
100.37
81.83
59.54
35.00
9.95
-13.85
-34.65
-50.89
-61.29
-65.26
-63.06
-55.95
-45.95
-35.36
-26.16
-19.44
-15.22
-12.63
-10.52
-7.94
-4.60
-0.83
2.79
5.82
8.20
10.13
11.88
13.42
14.46
14.55
13.38
11.02
7.86
4.38
0.86
-2.82
-7.10
-12.43
-18.95
-26.33
-33.80
-40.49
-45.66
-48.89
-50.10
-49.37
-46.78
-42.38
-36.25
-28.58
-19.87
-10.88
-2.45
4.71
10.25
14.33
17.49
20.38
23.53
27.13
31.04
35.00
38.77
42.26
45.55
48.70
51.68
54.33
56.39
57.67
58.11
57.80
56.90
55.58
53.89
51.82
49.30
46.31
42.87
39.07
34.98
30.71
26.31
21.85
17.39
12.97
8.67
4.55
0.69
-2.85
-5.97
-8.63
-10.82
-12.61
-14.11
-15.49
-16.87
-18.35
-19.95
-21.59
-23.03
-23.95
-24.03
-23.06
-21.10
-18.46
-15.56
-12.84
-10.54
-8.71
-7.28
-6.15
-5.35
-4.94
-4.99
-5.50
-6.30
-7.16
-7.87
-8.30
-8.39
-8.18
-7.77
-7.24
-6.66
-6.10
-5.56
-5.07
-4.69
-4.58
-4.99
-6.26
-8.70
-12.48
-17.53
-23.59
-30.25
-37.17
-44.14
-51.10
-58.09
-65.14
-72.17
-78.97
-85.29
-90.91
-95.67
-99.44
-102.09
-103.56
-103.81
-102.96
-101.09
-98.04
-93.20
-85.36
-73.00
-54.82
-30.36
-0.48
32.63
65.90
96.21
121.08
139.24
150.65
156.19
157.26
155.35
151.82
147.82
144.18
141.48
139.94
139.46
139.68
140.11
140.36
140.23
139.75
139.02
138.08
136.81
134.89
131.98
127.81
122.38
115.98
109.18
102.70
97.19
93.02
90.03
87.40
83.85
78.05
69.26
57.84
45.23
33.42
24.12
18.00
14.49
12.20
9.61
5.76
0.36
-6.42
-14.33
-23.07
-32.10
-40.36
-46.34
-48.71
-47.15
-42.95
-38.76
-37.65
-41.71
-51.21
-64.53
-78.92
-91.74
-101.34
-107.41
-110.58
-111.82
-111.90
-111.24
-110.05
-108.50
-106.90
-105.54
-104.51
-103.53
-102.04
-99.36
-95.02
-88.92
-81.34
-72.80
-63.81
-54.62
-45.34
-35.99
-26.69
-17.72
-9.44
-2.19
3.86
8.78
12.78
16.10
18.88
21.12
22.73
23.54
23.45
22.36
20.32
17.45
13.98
10.14
6.16
2.20
-1.70
-5.56
-9.51
-13.67
-18.10
-22.66
-27.10
-31.06
-34.18
-36.23
-37.26
-37.61
-37.80
-38.30
-39.28
-40.52
-41.46
-41.34
-39.52
-35.60
-29.56
-21.69
-12.64
-3.28
5.33
12.07
16.08
16.84
14.41
9.39
2.76
-4.34
-10.83
-15.85
-18.88
-19.73
-18.64
-16.04
-12.39
-8.07
-3.31
1.77
7.00
11.97
16.09
18.68
19.32
18.01
15.29
12.07
9.36
8.05
8.69
11.43
16.09
22.24
29.29
36.56
43.22
48.30
50.72
49.37
43.48
32.81
17.94
0.19
-18.65
-36.68
-52.19
-63.90
-71.03
-73.36
-71.44
-66.47
-60.08
-53.70
-47.85
-41.66
-33.06
-19.68
-0.08
25.23
53.64
81.40
105.12
123.03
135.27
143.02
147.13
147.27
142.22
130.89
113.62
92.47
70.50
50.25
32.76
17.50
3.47
-9.87
-21.89
-31.07
-35.89
-35.58
-30.63
-22.59
-13.51
-5.44
-0.06
1.59
-1.02
-8.33
-20.95
-39.58
-64.28
-93.56
-123.90
-150.33
-167.91
-173.68
-167.72
-152.74
-132.35
-109.47
-85.47
-60.70
-35.70
-12.04
7.72
20.98
26.54
25.13
19.20
11.88
5.78
2.42
2.09
4.37
8.62
14.42
21.38
29.01
36.60
43.45
49.08
53.52
57.09
60.23
63.15
65.70
67.46
67.97
66.98
64.45
60.49
55.23
48.89
41.84
34.60
27.67
21.41
15.94
11.15
6.75
2.44
-1.92
-6.18
-9.90
-12.62
-14.09
-14.53
-14.76
-16.15
-20.02
-26.89
-35.91
-45.03
-51.96
-55.24
-54.90
-52.36
-49.73
-48.72
-49.72
-51.47
-50.51
-43.36
-28.05
-4.54
25.47
58.88
91.07
116.20
128.50
124.25
103.66
71.09
34.05
0.73
-22.82
-34.35
-35.26
-29.12
-20.43
-11.66
-4.52
0.19
2.56
3.25
3.07
2.59
2.12
0.86
-2.13
-7.54
-14.84
-22.49
-28.77
-32.73
-34.26
-33.57
-31.53
-26.95
-19.04
-8.00
4.49
15.52
21.86
21.48
14.52
3.39
-7.73
-14.83
-15.30
-8.72
3.11
17.02
29.83
39.43
45.23
48.23
49.79
51.11
52.99
55.54
57.79
57.46
51.19
35.62
9.05
-27.23
-68.23
-106.31
-133.74
-145.61
-141.70
-126.35
-106.52
-88.83
-77.12
-71.45
-68.77
-65.01
-57.20
-44.67
-28.90
-12.50
2.09
13.62
22.29
29.14
35.12
40.47
44.53
46.69
46.76
45.11
42.33
38.61
33.17
24.60
11.82
-4.84
-22.74
-38.54
-50.16
-58.12
-65.16
-74.60
-88.25
-105.14
-121.74
-132.70
-134.41
-127.15
-114.62
-101.32
-90.01
-80.69
-71.44
-60.08
-43.83
-21.96
3.91
31.03
57.36
82.19
105.32
126.18
144.03
160.89
179.44
201.37
226.00
250.61
270.97
282.15
280.04
250.55
190.71
112.81
38.54
-15.93
-47.14
-61.04
-65.81
-67.21
-67.14
-62.96
-52.83
-38.17
-23.96
-14.97
-13.11
-17.20
-24.35
-31.42
-34.48
-31.16
-20.44
-4.67
13.53
31.94
48.69
61.90
69.85
72.18
66.46
53.73
34.88
11.56
-13.58
-37.26
-56.46
-69.45
-75.67
-76.10
-72.35
-66.84
-61.16
-56.16
-52.25
-49.88
-49.49
-50.95
-53.38
-55.03
-55.20
-53.04
-48.79
-43.54
-38.57
-34.61
-31.61
-28.84
-25.31
-20.73
-15.35
-9.95
-5.35
-2.06
-0.19
0.53
0.55
0.29
-0.06
-0.34
-0.40
0.05
1.30
3.50
6.51
9.89
12.94
15.09
16.11
16.21
15.88
15.65
15.88
16.31
16.62
16.38
15.37
13.61
11.30
8.70
5.94
3.09
0.05
-3.20
-6.61
-10.06
-13.38
-16.43
-19.12
-21.44
-23.38
-24.94
-26.06
-26.65
-26.64
-26.01
-24.79
-23.08
-21.09
-19.00
-16.95
-14.85
-12.43
-9.33
-5.24
-0.21
5.22
10.03
13.13
13.69
11.61
7.56
2.68
-1.84
-5.32
-7.75
-9.61
-11.46
-13.52
-15.53
-16.85
-16.85
-15.19
-12.00
-7.79
-3.22
1.13
4.93
8.10
10.65
12.48
13.40
13.08
11.42
8.65
5.48
2.79
1.34
1.36
2.52
4.25
6.05
7.74
9.39
11.02
12.35
12.92
12.39
10.96
9.45
8.97
10.31
13.35
17.07
19.91
20.45
17.89
12.26
4.16
-5.47
-15.61
-25.17
-33.07
-38.33
-40.36
-39.08
-35.01
-29.12
-22.53
-16.29
-11.20
-7.81
-6.41
-7.06
-9.61
-13.73
-19.07
-25.38
-32.57
-40.66
-49.65
-59.31
-69.14
-78.27
-85.67
-90.30
-91.41
-88.67
-82.22
-72.55
-60.35
-46.29
-30.96
-14.88
1.44
17.47
32.71
46.81
59.56
70.94
80.96
89.57
96.60
101.87
105.23
106.71
106.52
105.05
102.88
100.62
98.90
98.21
98.76
100.57
103.52
107.53
112.77
119.59
128.45
139.62
152.80
166.91
179.97
189.30
191.93
185.18
167.39
138.44
100.11
55.22
6.86
-42.25
-89.73
-133.13
-169.69
-196.40
-210.66
-210.81
-197.42
-173.50
-143.53
-111.83
-81.27
-52.98
-26.65
-1.14
25.60
55.19
88.19
123.76
159.67
192.22
216.33
226.70
219.68
196.13
160.85
121.07
83.82
53.46
30.12
9.76
-13.65
-50.21
-101.80
-160.32
-211.82
-245.19
-257.80
-254.37
-242.62
-229.10
-217.58
-208.31
-200.05
-191.23
-179.95
-163.36
-138.15
-102.45
-57.47
-6.95
43.33
86.79
118.43
136.13
140.89
135.78
124.32
110.08
95.36
81.92
70.68
61.61
54.00
46.99
40.63
32.77
24.58
17.77
13.42
11.30
10.11
8.19
4.37
-1.71
-9.55
-17.70
-25.02
-30.56
-33.60
-33.32
-29.29
-21.67
-11.64
-1.19
7.78
13.46
14.81
11.97
6.49
0.72
-3.50
-5.40
-5.47
-4.48
-3.14
-1.62
0.47
4.06
10.03
18.18
27.59
36.93
45.68
53.94
62.13
67.81
68.42
63.06
52.37
38.19
21.26
1.83
-20.09
-43.64
-67.09
-89.29
-107.69
-120.77
-128.03
-131.09
-131.90
-132.16
-132.79
-133.99
-135.32
-132.54
-124.11
-106.18
-79.64
-48.73
-19.13
4.81
21.46
31.52
36.87
38.54
37.55
34.59
31.48
30.51
33.38
40.29
50.02
60.92
70.89
79.57
85.66
88.49
87.92
84.46
79.19
73.79
70.13
69.01
70.07
71.70
72.13
70.21
65.78
59.54
50.84
41.07
31.36
22.32
13.93
5.94
-1.75
-9.22
-16.47
-23.25
-29.09
-33.48
-37.00
-38.99
-39.20
-37.94
-36.12
-34.80
-34.58
-35.55
-37.33
-39.72
-43.18
-49.45
-61.06
-80.52
-109.51
-144.48
-180.63
-211.78
-231.59
-234.76
-218.48
-182.95
-131.33
-69.10
-2.87
60.41
115.12
157.68
186.48
201.45
203.41
193.50
172.85
142.58
103.48
56.99
5.65
-46.41
-93.78
-130.82
-153.04
-158.46
-148.09
-125.63
-95.75
-62.68
-29.21
3.55
35.84
68.59
102.54
137.50
171.71
202.02
224.64
236.28
235.28
222.01
198.55
167.76
132.39
94.61
56.04
17.88
-19.29
-55.59
-91.77
-128.25
-163.90
-195.04
-215.82
-219.98
-203.23
-165.22
-110.05
-45.21
20.59
79.65
126.60
158.65
175.29
177.83
168.94
152.29
131.60
110.22
90.50
73.36
58.10
42.91
26.01
6.67
-14.21
-35.09
-53.99
-69.27
-80.24
-87.41
-92.03
-95.06
-96.54
-95.71
-92.98
-89.46
-86.60
-85.43
-86.15
-88.00
-89.52
-89.23
-86.46
-83.31
-82.74
-87.05
-96.47
-109.37
-123.49
-136.85
-148.59
-149.44
-133.80
-102.53
-62.83
-22.58
13.66
44.28
68.80
86.79
97.78
100.39
93.65
78.14
57.06
34.86
16.13
4.48
1.61
7.26
18.98
32.70
43.78
48.83
46.62
37.98
25.96
15.62
13.13
24.13
50.27
86.93
124.48
151.23
157.27
137.63
93.92
29.50
-40.72
-97.77
-131.01
-141.78
-137.66
-125.54
-109.25
-90.61
-71.47
-53.94
-40.26
-32.11
-26.54
-17.63
1.01
32.82
76.08
124.33
164.09
185.32
184.71
166.20
138.05
108.71
83.77
65.21
52.54
44.90
41.40
40.05
37.99
32.32
21.17
4.29
-16.37
-37.99
-56.55
-68.05
-70.70
-65.27
-54.39
-41.24
-28.27
-16.41
-5.19
6.55
19.42
32.12
41.82
45.71
42.71
34.17
23.16
12.77
4.45
-2.25
-9.57
-20.30
-36.02
-55.61
-75.54
-91.28
-99.37
-98.68
-91.33
-81.70
-74.60
-72.57
-74.35
-75.71
-71.60
-58.33
-34.48
-1.57
37.11
76.91
112.47
137.86
146.80
134.92
102.57
56.67
8.95
-28.75
-49.69
-54.94
-52.12
-52.03
-63.64
-90.54
-125.81
-157.06
-172.84
-170.16
-154.67
-133.80
-112.77
-93.41
-75.76
-59.47
-43.81
-29.05
-13.28
5.87
31.47
64.98
105.37
148.77
183.34
200.79
199.11
181.89
155.29
125.67
97.53
73.45
54.71
41.94
35.87
35.77
39.20
42.93
44.58
43.08
38.94
33.75
29.45
28.34
31.14
36.19
39.81
37.77
27.09
7.56
-17.77
-43.65
-64.57
-76.72
-79.48
-75.14
-67.29
-59.06
-51.91
-45.88
-40.31
-34.68
-29.19
-24.62
-21.63
-20.23
-19.48
-17.89
-14.14
-7.81
0.53
9.44
17.07
21.93
23.21
21.08
16.57
11.05
5.96
2.49
1.41
3.00
8.30
17.73
31.27
48.34
67.68
87.71
106.95
124.68
141.08
156.82
172.01
185.50
194.87
197.32
191.06
176.34
155.45
131.43
106.33
80.14
51.25
18.19
-18.74
-56.94
-92.46
-121.86
-143.75
-159.06
-170.03
-178.55
-185.13
-188.96
-188.83
-184.23
-175.85
-165.26
-154.12
-143.20
-132.14
-119.74
-104.86
-87.09
-66.96
-45.68
-24.70
-5.29
11.62
25.56
36.43
44.37
49.26
50.56
47.26
38.33
23.45
3.67
-18.36
-38.91
-54.23
-61.81
-61.34
-54.88
-46.24
-39.76
-38.85
-44.77
-56.21
-69.82
-81.56
-88.15
-88.26
-82.63
-73.57
-63.76
-55.04
-47.79
-40.99
-33.15
-23.44
-12.24
-0.92
8.89
16.35
21.77
26.23
30.45
33.78
34.21
29.86
20.64
9.11
-0.46
-4.32
-1.39
6.22
14.46
19.79
20.98
19.33
17.35
16.99
18.76
22.03
26.18
31.32
38.27
47.60
58.81
70.31
80.20
87.16
91.08
92.83
93.59
94.11
94.30
93.38
90.47
85.00
76.96
66.78
55.18
42.96
31.01
20.08
10.75
3.35
-2.18
-6.18
-9.17
-11.57
-13.64
-15.47
-17.14
-18.70
-20.10
-21.23
-21.91
-21.94
-21.24
-19.99
-18.60
-17.59
-17.38
-18.10
-19.44
-20.91
-21.92
-22.02
-21.02
-19.00
-16.22
-13.03
-9.75
-6.59
-3.68
-1.11
1.06
2.77
3.94
4.56
4.65
4.35
3.88
3.44
3.14
2.97
2.83
2.59
2.21
1.67
1.03
0.28
-0.63
-1.75
-3.07
-4.46
-5.74
-6.67
-7.22
-7.51
-7.78
-8.30
-9.22
-10.55
-12.16
-13.88
-15.48
-16.78
-17.56
-17.59
-16.72
-14.85
-12.05
-8.56
-4.79
-1.14
1.96
4.27
5.71
6.37
6.39
5.95
5.20
4.21
3.07
1.83
0.62
-0.47
-1.35
-1.98
-2.40
-2.67
-2.90
-3.24
-3.86
-5.01
-6.90
-9.65
-13.23
-17.40
-21.80
-26.04
-29.86
-33.25
-36.50
-39.98
-44.02
-48.62
-53.40
-57.63
-60.47
-61.24
-59.67
-55.87
-50.23
-43.23
-35.32
-26.91
-18.36
-10.14
-2.76
3.29
7.58
9.91
10.27
8.91
6.36
3.43
1.03
-0.13
0.27
1.98
4.39
6.82
8.80
10.20
11.19
11.94
12.49
12.76
12.57
11.90
10.91
9.83
8.86
7.99
7.03
5.74
3.99
1.88
-0.20
-1.73
-2.13
-1.04
1.64
5.67
10.49
15.43
19.84
23.34
25.98
28.15
30.52
33.65
37.93
43.34
49.51
55.79
61.49
65.98
68.77
69.59
68.32
65.12
60.31
54.41
47.97
41.46
35.16
29.11
23.18
17.10
10.67
3.83
-3.31
-10.51
-17.50
-24.18
-30.54
-36.64
-42.51
-47.99
-52.74
-56.37
-58.49
-58.92
-57.67
-54.91
-50.91
-45.90
-40.12
-33.83
-27.32
-20.87
-14.71
-8.86
-3.30
2.02
7.03
11.52
15.17
17.77
19.28
19.85
19.75
19.25
18.51
17.61
16.64
15.70
14.93
14.31
13.68
12.73
11.18
8.98
6.32
3.63
1.33
-0.31
-1.26
-1.73
-2.04
-2.50
-3.29
-4.44
-5.81
-7.04
-7.68
-7.28
-5.58
-2.64
1.20
5.35
9.23
12.38
14.62
15.99
16.69
16.94
16.95
16.83
16.64
16.38
16.07
15.72
15.33
14.95
14.64
14.43
14.32
14.23
14.06
13.74
13.21
12.47
11.55
10.46
9.20
7.69
5.90
3.86
1.68
-0.46
-2.41
-4.08
-5.49
-6.73
-7.96
-9.33
-10.96
-12.89
-15.01
-17.03
-18.49
-18.93
-18.06
-15.83
-12.48
-8.42
-4.13
0.06
3.93
7.37
10.29
12.62
14.28
15.20
15.38
14.85
13.76
12.27
10.60
8.97
7.52
6.33
5.37
4.62
4.05
3.67
3.47
3.42
3.37
3.12
2.51
1.43
-0.07
-1.84
-3.63
-5.22
-6.50
-7.49
-8.39
-9.38
-10.60
-12.08
-13.75
-15.54
-17.34
-18.99
-20.31
-20.97
-20.62
-18.97
-15.96
-11.80
-6.95
-1.97
2.65
6.57
9.65
11.88
13.34
14.16
14.47
14.39
14.03
13.48
12.84
12.22
11.70
11.34
11.18
11.15
11.17
11.12
10.91
10.47
9.78
8.83
7.68
6.36
4.93
3.40
1.81
0.26
-1.14
-2.29
-3.18
-3.87
-4.59
-5.54
-6.84
-8.44
-10.15
-11.73
-12.99
-13.89
-14.54
-15.16
-15.98
-17.21
-18.92
-21.01
-23.20
-25.04
-25.98
-25.55
-23.51
-19.95
-15.27
-10.10
-5.07
-0.65
2.93
5.69
7.81
9.47
10.85
12.01
13.00
13.84
14.49
14.95
15.19
15.25
15.16
15.02
14.95
15.02
15.29
15.67
16.09
16.42
16.53
16.32
15.74
14.81
13.61
12.23
10.78
9.33
7.93
6.62
5.44
4.43
3.62
2.97
2.43
1.88
1.23
0.42
-0.57
-1.66
-2.75
-3.75
-4.63
-5.41
-6.14
-6.94
-7.84
-8.89
-10.06
-11.30
-12.54
-13.72
-14.76
-15.62
-16.36
-17.13
-18.19
-19.75
-21.84
-24.22
-26.35
-27.58
-27.33
-25.33
-21.64
-16.67
-11.00
-5.24
0.07
4.59
8.09
10.56
12.06
12.83
13.07
13.01
12.81
12.49
12.03
11.36
10.52
9.62
8.86
8.43
8.37
8.61
8.94
9.12
8.99
8.50
7.72
6.74
5.63
4.42
3.13
1.86
0.82
0.23
0.31
1.07
2.37
3.88
5.22
6.08
6.30
5.91
5.10
4.03
2.83
1.53
0.05
-1.68
-3.66
-5.79
-7.90
-9.81
-11.44
-12.87
-14.28
-15.93
-17.95
-20.31
-22.70
-24.67
-25.69
-25.35
-23.51
-20.27
-16.01
-11.25
-6.48
-2.09
1.67
4.74
7.17
9.05
10.49
11.48
12.02
12.12
11.82
11.25
10.55
9.85
9.23
8.76
8.50
8.45
8.56
8.72
8.74
8.49
7.96
7.30
6.71
6.32
6.11
5.90
5.49
4.79
3.88
2.90
1.95
1.05
0.09
-1.07
-2.48
-4.13
-5.94
-7.82
-9.76
-11.79
-14.02
-16.48
-19.17
-21.88
-24.25
-25.81
-26.05
-24.66
-21.62
-17.29
-12.29
-7.28
-2.82
0.87
3.77
6.10
8.03
9.69
11.05
11.97
12.37
12.24
11.76
11.17
10.71
10.50
10.48
10.51
10.41
10.08
9.51
8.76
7.93
7.09
6.24
5.39
4.49
3.51
2.50
1.54
0.68
-0.08
-0.85
-1.83
-3.13
-4.74
-6.45
-7.95
-9.06
-9.82
-10.47
-11.34
-12.65
-14.43
-16.52
-18.72
-20.84
-22.71
-24.10
-24.70
-24.20
-22.45
-19.56
-15.91
-11.99
-8.15
-4.55
-1.13
2.24
5.54
8.63
11.28
13.31
14.65
15.40
15.75
15.89
15.96
16.07
16.23
16.43
16.56
16.56
16.42
16.18
15.90
15.61
15.28
14.79
13.97
12.69
10.97
8.99
7.00
5.24
3.81
2.63
1.47
0.07
-1.74
-3.98
-6.46
-8.94
-11.20
-13.10
-14.64
-15.88
-16.86
-17.68
-18.45
-19.37
-20.72
-22.66
-25.18
-27.90
-30.17
-31.26
-30.62
-28.11
-24.00
-18.91
-13.52
-8.47
-4.15
-0.77
1.71
3.46
4.75
5.82
6.87
7.93
8.97
9.94
10.83
11.74
12.79
14.11
15.76
17.74
20.00
22.43
24.86
27.10
28.87
29.90
30.07
29.40
28.07
26.36
24.48
22.56
20.60
18.54
16.29
13.84
11.17
8.30
5.28
2.19
-0.84
-3.61
-5.92
-7.66
-8.80
-9.46
-9.79
-9.98
-10.17
-10.56
-11.33
-12.65
-14.52
-16.64
-18.51
-19.46
-18.93
-16.75
-13.16
-8.74
-4.16
-0.04
3.30
5.76
7.48
8.71
9.74
10.77
11.85
12.91
13.73
14.17
14.16
13.84
13.38
12.95
12.61
12.37
12.13
11.82
11.42
10.94
10.41
9.85
9.25
8.57
7.76
6.74
5.44
3.85
2.05
0.17
-1.63
-3.29
-4.83
-6.34
-7.93
-9.64
-11.39
-13.07
-14.56
-15.78
-16.73
-17.46
-18.08
-18.71
-19.53
-20.67
-22.19
-23.95
-25.58
-26.54
-26.33
-24.59
-21.29
-16.68
-11.28
-5.67
-0.43
4.04
7.50
9.87
11.26
11.88
11.98
11.85
11.70
11.60
11.56
11.50
11.34
11.04
10.65
10.23
9.86
9.62
9.51
9.51
9.55
9.48
9.17
8.50
7.45
6.12
4.70
3.36
2.18
1.12
0.07
-1.09
-2.42
-3.93
-5.53
-7.19
-8.87
-10.55
-12.21
-13.79
-15.20
-16.38
-17.28
-17.89
-18.17
-18.09
-17.64
-16.88
-15.98
-15.20
-14.83
-15.00
-15.62
-16.27
-16.37
-15.37
-12.97
-9.24
-4.62
0.23
4.65
8.20
10.68
12.16
12.90
13.17
13.21
13.15
13.01
12.78
12.46
12.07
11.66
11.25
10.79
10.18
9.32
8.17
6.75
5.19
3.60
2.06
0.54
-1.04
-2.84
-4.96
-7.47
-10.32
-13.32
-16.16
-18.46
-19.78
-19.72
-18.08
-14.87
-10.29
-4.71
1.51
8.04
14.68
21.23
27.42
32.91
37.30
40.29
41.81
41.97
41.01
39.21
36.80
34.03
31.17
28.59
26.61
25.45
25.13
25.43
25.97
26.44
26.61
26.43
25.98
25.50
25.27
25.57
26.47
27.81
29.13
29.87
29.63
28.42
26.72
25.18
24.30
24.14
24.25
23.95
22.68
20.33
17.23
13.92
10.86
8.18
5.68
2.87
-1.05
-7.38
-18.05
-35.49
-61.80
-97.63
-141.26
-188.61
-234.34
-273.42
-302.62
-320.90
-329.00
-328.40
-320.71
-307.54
-290.92
-273.47
-258.00
-246.54
-239.29
-234.21
-227.61
-215.43
-194.75
-164.95
-127.89
-87.37
-47.72
-12.38
17.21
41.79
63.56
84.92
107.41
131.13
154.96
177.22
196.38
211.43
221.95
228.00
229.95
228.38
224.09
217.96
210.78
203.24
195.81
188.68
181.72
174.45
166.10
155.88
143.42
129.14
114.44
101.25
91.39
85.79
84.16
85.19
87.07
88.33
88.16
86.48
83.55
79.63
74.78
68.94
62.12
54.56
46.71
39.10
32.23
26.37
21.57
17.73
14.61
11.96
9.48
6.90
3.99
0.63
-3.12
-6.95
-10.32
-12.52
-12.81
-10.68
-5.94
1.14
9.94
19.64
29.37
38.37
46.10
52.34
57.22
61.23
65.04
69.29
74.29
79.84
85.28
89.76
92.55
93.33
92.23
89.62
85.93
81.34
75.71
68.63
59.48
47.63
32.48
13.67
-8.64
-33.73
-60.16
-85.98
-108.96
-127.05
-138.66
-143.07
-140.48
-131.86
-118.69
-102.62
-85.25
-68.19
-53.25
-42.42
-37.65
-40.02
-48.99
-61.98
-74.92
-83.49
-84.71
-78.04
-65.37
-50.20
-36.06
-25.35
-18.82
-15.79
-14.92
-14.96
-15.23
-15.70
-16.67
-18.47
-21.14
-24.45
-28.02
-31.56
-34.99
-38.35
-41.48
-43.91
-44.75
-43.14
-38.65
-31.68
-23.50
-15.90
-10.51
-8.30
-9.25
-12.54
-17.02
-21.66
-25.94
-29.94
-34.12
-39.07
-45.11
-52.12
-59.50
-66.37
-71.82
-75.23
-76.40
-75.51
-72.88
-68.76
-63.17
-56.04
-47.48
-37.95
-28.27
-19.33
-11.76
-5.70
-0.82
3.40
7.45
11.46
15.29
18.59
21.01
22.36
22.68
22.19
21.29
20.39
19.85
19.84
20.37
21.26
22.27
23.22
23.99
24.53
24.79
24.75
24.35
23.59
22.50
21.21
19.83
18.47
17.08
15.49
13.45
10.73
7.29
3.32
-0.77
-4.47
-7.46
-9.63
-11.25
-12.81
-14.83
-17.68
-21.37
-25.51
-29.36
-32.06
-32.88
-31.40
-27.66
-22.06
-15.26
-7.97
-0.81
5.82
11.65
16.59
20.67
24.02
26.84
29.28
31.46
33.34
34.81
35.71
36.00
35.79
35.27
34.71
34.32
34.20
34.31
34.53
34.75
34.84
34.77
34.50
34.01
33.29
32.34
31.19
29.93
28.62
27.28
25.87
24.27
22.42
20.39
18.43
16.87
15.98
15.82
16.19
16.72
17.02
16.87
16.18
15.06
13.61
11.90
9.99
7.93
5.83
3.78
1.87
0.09
-1.62
-3.29
-4.92
-6.52
-8.12
-9.80
-11.69
-13.83
-16.16
-18.57
-20.88
-22.95
-24.74
-26.30
-27.70
-29.03
-30.43
-32.02
-33.87
-35.86
-37.61
-38.49
-37.81
-35.04
-30.12
-23.45
-15.81
-8.07
-1.01
4.95
9.68
13.29
15.98
17.98
19.48
20.64
21.57
22.35
23.00
23.51
23.83
23.90
23.71
23.28
22.67
22.02
21.45
21.10
20.95
20.93
20.83
20.40
19.50
18.12
16.39
14.55
12.83
11.31
10.00
8.81
7.63
6.42
5.17
3.90
2.64
1.42
0.24
-0.85
-1.84
-2.74
-3.62
-4.54
-5.61
-6.85
-8.27
-9.78
-11.34
-12.90
-14.47
-16.12
-17.96
-20.09
-22.55
-25.19
-27.68
-29.51
-30.08
-28.96
-25.97
-21.38
-15.81
-10.04
-4.72
-0.22
3.43
6.41
8.89
11.00
12.72
13.98
14.75
15.11
15.17
15.06
14.82
14.43
13.84
13.11
12.34
11.68
11.23
11.03
10.99
10.94
10.71
10.14
9.18
7.84
6.24
4.48
2.65
0.85
-0.88
-2.53
-4.06
-5.48
-6.82
-8.08
-9.30
-10.49
-11.64
-12.73
-13.75
-14.75
-15.82
-17.10
-18.69
-20.67
-22.99
-25.43
-27.56
-28.85
-28.74
-26.86
-23.21
-18.18
-12.45
-6.79
-1.82
2.12
5.00
7.03
8.49
9.64
10.65
11.57
12.42
13.16
13.76
14.15
14.33
14.24
13.89
13.35
12.76
12.28
12.04
12.06
12.28
12.55
12.69
12.57
12.06
11.04
9.42
7.24
4.66
1.96
-0.50
-2.51
-4.07
-5.36
-6.63
-8.08
-9.74
-11.52
-13.28
-14.88
-16.30
-17.57
-18.81
-20.13
-21.71
-23.66
-26.00
-28.53
-30.79
-32.15
-31.96
-29.83
-25.79
-20.34
-14.24
-8.25
-2.95
1.47
5.07
8.04
10.55
12.67
14.40
15.73
16.64
17.05
16.98
16.46
15.64
14.80
14.26
14.28
14.94
16.08
17.39
18.59
19.50
20.06
20.31
20.22
19.74
18.78
17.31
15.37
13.13
10.85
8.73
6.94
5.52
4.42
3.47
2.48
1.25
-0.31
-2.18
-4.28
-6.45
-8.59
-10.67
-12.72
-14.73
-16.67
-18.45
-20.07
-21.61
-23.29
-25.35
-27.89
-30.71
-33.25
-34.79
-34.67
-32.57
-28.60
-23.28
-17.33
-11.41
-5.96
-1.20
2.83
6.15
8.72
10.51
11.57
11.98
11.97
11.79
11.60
11.50
11.43
11.28
10.95
10.41
9.67
8.82
7.96
7.16
6.41
5.69
4.91
4.04
3.01
1.76
0.20
-1.71
-3.97
-6.33
-8.38
-9.59
-9.51
-7.96
-5.14
-1.57
2.10
5.30
7.74
9.44
10.54
11.21
11.46
11.22
10.43
9.18
7.79
6.66
6.18
6.52
7.63
9.29
11.25
13.32
15.37
17.29
18.93
20.10
20.67
20.60
19.98
18.96
17.65
16.18
14.61
12.98
11.36
9.85
8.46
7.17
5.91
4.56
3.11
1.62
0.19
-1.05
-2.05
-2.86
-3.62
-4.49
-5.55
-6.83
-8.22
-9.59
-10.81
-11.82
-12.68
-13.51
-14.47
-15.59
-16.83
-18.09
-19.26
-20.29
-21.23
-22.17
-23.16
-24.25
-25.51
-26.96
-28.66
-30.55
-32.29
-33.36
-33.12
-31.07
-27.13
-21.65
-15.35
-8.98
-3.18
1.75
5.72
8.76
10.92
12.27
12.92
13.05
12.89
12.67
12.56
12.63
12.91
13.37
13.93
14.55
15.14
15.68
16.16
16.63
17.09
17.54
17.88
17.97
17.66
16.88
15.67
14.15
12.53
10.97
9.56
8.36
7.32
6.36
5.43
4.44
3.35
2.13
0.80
-0.59
-1.93
-3.15
-4.24
-5.25
-6.33
-7.55
-9.00
-10.66
-12.47
-14.30
-16.06
-17.65
-19.01
-20.23
-21.40
-22.71
-24.29
-26.09
-27.90
-29.29
-29.71
-28.66
-25.88
-21.45
-15.80
-9.61
-3.59
1.70
5.96
9.20
11.63
13.46
14.88
15.93
16.61
16.88
16.74
16.25
15.52
14.72
13.98
13.45
13.23
13.30
13.60
14.01
14.38
14.65
14.77
14.73
14.49
13.98
13.12
11.92
10.47
8.93
7.50
6.28
5.28
4.43
3.67
2.93
2.21
1.46
0.60
-0.49
-1.95
-3.79
-5.93
-8.16
-10.31
-12.25
-13.94
-15.43
-16.76
-17.92
-18.92
-19.80
-20.65
-21.60
-22.74
-24.00
-25.07
-25.51
-24.84
-22.79
-19.37
-14.93
-10.00
-5.12
-0.67
3.09
6.11
8.34
9.87
10.76
11.16
11.24
11.22
11.23
11.34
11.52
11.66
11.68
11.49
11.09
10.55
9.99
9.56
9.37
9.41
9.58
9.68
9.51
8.94
7.96
6.67
5.28
3.95
2.83
1.97
1.26
0.54
-0.40
-1.67
-3.26
-5.03
-6.80
-8.44
-9.95
-11.40
-12.94
-14.69
-16.69
-18.88
-21.13
-23.25
-24.95
-25.90
-25.75
-24.21
-21.22
-16.99
-11.99
-6.85
-2.13
1.79
4.81
7.07
8.84
10.34
11.66
12.76
13.53
13.89
13.84
13.46
12.87
12.17
11.47
10.87
10.44
10.21
10.18
10.24
10.26
10.04
9.49
8.58
7.41
6.10
4.79
3.59
2.52
1.53
0.45
-0.86
-2.54
-4.55
-6.77
-8.98
-10.96
-12.62
-13.99
-15.23
-16.49
-17.97
-19.76
-21.83
-24.04
-26.07
-27.47
-27.79
-26.66
-23.95
-19.85
-14.79
-9.33
-4.02
0.72
4.67
7.81
10.28
12.27
13.92
15.29
16.32
16.90
17.00
16.67
16.09
15.51
15.10
14.85
14.69
14.49
14.20
13.89
13.63
13.47
13.33
13.11
12.70
12.05
11.20
10.24
9.24
8.19
7.08
5.87
4.59
3.23
1.83
0.34
-1.28
-3.08
-5.08
-7.22
-9.43
-11.57
-13.49
-15.08
-16.33
-17.34
-18.33
-19.54
-21.10
-22.94
-24.65
-25.63
-25.28
-23.26
-19.62
-14.82
-9.52
-4.37
0.14
3.76
6.46
8.38
9.74
10.78
11.69
12.61
13.57
14.50
15.27
15.79
16.09
16.28
16.55
17.00
17.67
18.44
19.14
19.64
19.85
19.76
19.43
18.93
18.29
17.52
16.57
15.45
14.22
12.94
11.71
10.59
9.53
8.44
7.20
5.72
4.01
2.23
0.55
-0.89
-2.08
-3.13
-4.25
-5.58
-7.18
-8.97
-10.81
-12.55
-14.10
-15.43
-16.55
-17.54
-18.50
-19.58
-20.86
-22.35
-23.88
-25.07
-25.43
-24.53
-22.16
-18.43
-13.78
-8.79
-4.01
0.13
3.45
5.97
7.81
9.15
10.13
10.87
11.38
11.70
11.75
11.46
10.76
9.65
8.21
6.66
5.30
4.41
4.18
4.59
5.43
6.39
7.18
7.55
7.46
6.93
6.07
4.99
3.77
2.53
1.39
0.41
-0.43
-1.19
-2.03
-3.06
-4.35
-5.85
-7.39
-8.74
-9.74
-10.39
-10.85
-11.41
-12.38
-13.94
-16.03
-18.35
-20.41
-21.67
-21.72
-20.30
-17.44
-13.42
-8.69
-3.82
0.66
4.38
7.20
9.18
10.54
11.47
12.06
12.38
12.39
12.14
11.74
11.32
10.98
10.79
10.71
10.69
10.70
10.72
10.75
10.85
11.02
11.22
11.33
11.18
10.61
9.56
8.07
6.31
4.49
2.77
1.26
-0.06
-1.27
-2.42
-3.58
-4.77
-6.00
-7.30
-8.65
-10.03
-11.32
-12.43
-13.30
-14.05
-14.90
-16.18
-18.07
-20.51
-23.10
-25.17
-26.04
-25.24
-22.69
-18.72
-13.93
-8.97
-4.35
-0.34
3.01
5.78
8.09
10.07
11.74
13.10
14.12
14.80
15.21
15.43
15.54
15.53
15.41
15.11
14.67
14.22
13.92
13.94
14.34
15.07
15.90
16.57
16.78
16.32
15.09
13.12
10.54
7.59
4.52
1.54
-1.14
-3.38
-5.07
-6.19
-6.87
-7.33
-7.83
-8.57
-9.59
-10.75
-11.83
-12.64
-13.14
-13.50
-14.00
-14.98
-16.64
-18.91
-21.36
-23.36
-24.13
-23.15
-20.23
-15.68
-10.20
-4.58
0.50
4.69
7.89
10.20
11.77
12.75
13.30
13.62
13.92
14.38
15.01
15.70
16.23
16.37
16.02
15.24
14.19
13.09
12.11
11.28
10.54
9.75
8.76
7.46
5.82
3.91
1.90
-0.02
-1.67
-2.91
-3.75
-4.27
-4.63
-5.02
-5.60
-6.42
-7.47
-8.69
-10.03
-11.47
-13.06
-14.85
-16.90
-19.17
-21.48
-23.50
-24.81
-24.98
-23.72
-21.00
-17.02
-12.25
-7.23
-2.48
1.65
4.96
7.47
9.26
10.49
11.31
11.76
11.89
11.75
11.42
11.08
10.91
11.01
11.35
11.75
12.00
11.97
11.74
11.46
11.26
11.19
11.11
10.80
10.08
8.88
7.27
5.40
3.42
1.40
-0.62
-2.62
-4.56
-6.43
-8.18
-9.78
-11.20
-12.44
-13.53
-14.59
-15.81
-17.41
-19.50
-21.99
-24.48
-26.40
-27.09
-26.06
-23.15
-18.61
-12.98
-6.99
-1.27
3.69
7.70
10.73
12.90
14.38
15.31
15.79
15.92
15.69
15.16
14.41
13.55
12.75
12.16
11.86
11.86
12.08
12.38
12.64
12.77
12.72
12.43
11.88
11.05
9.92
8.55
7.04
5.46
3.90
2.36
0.85
-0.66
-2.20
-3.80
-5.46
-7.20
-9.00
-10.78
-12.42
-13.79
-14.86
-15.72
-16.62
-17.83
-19.55
-21.70
-23.90
-25.60
-26.12
-25.04
-22.23
-17.94
-12.75
-7.30
-2.15
2.31
5.95
8.81
11.02
12.69
13.93
14.76
15.24
15.43
15.40
15.20
14.91
14.57
14.24
13.97
13.83
13.85
13.97
14.09
14.09
13.93
13.65
13.32
12.97
12.54
11.87
10.82
9.39
7.73
6.10
4.73
3.71
2.92
2.09
0.97
-0.59
-2.55
-4.70
-6.82
-8.72
-10.33
-11.68
-12.88
-14.09
-15.46
-17.14
-19.19
-21.54
-23.85
-25.59
-26.15
-25.08
-22.23
-17.88
-12.57
-6.99
-1.74
2.82
6.51
9.29
11.19
12.33
12.81
12.81
12.53
12.15
11.83
11.62
11.54
11.53
11.61
11.77
12.04
12.39
12.78
13.07
13.11
12.77
11.98
10.83
9.44
7.99
6.63
5.42
4.37
3.44
2.50
1.39
-0.02
-1.84
-4.06
-6.53
-9.03
-11.35
-13.35
-15.10
-16.75
-18.52
-20.57
-22.88
-25.23
-27.18
-28.23
-27.89
-25.90
-22.28
-17.37
-11.76
-6.05
-0.77
3.73
7.39
10.25
12.43
14.05
15.17
15.78
15.89
15.57
14.93
14.15
13.37
12.68
12.07
11.52
10.97
10.48
10.10
9.84
9.66
9.39
8.87
7.97
6.74
5.33
3.96
2.78
1.87
1.20
0.60
-0.14
-1.19
-2.65
-4.49
-6.56
-8.64
-10.51
-12.06
-13.35
-14.57
-15.97
-17.74
-19.92
-22.32
-24.57
-26.19
-26.69
-25.74
-23.26
-19.42
-14.68
-9.55
-4.55
-0.03
3.78
6.82
9.14
10.86
12.12
13.08
13.83
14.40
14.76
14.88
14.73
14.40
13.98
13.57
13.22
12.96
12.79
12.70
12.67
12.65
12.53
12.18
11.47
10.39
8.99
7.43
5.86
4.40
3.11
2.00
1.00
-0.01
-1.14
-2.46
-3.97
-5.63
-7.39
-9.17
-10.91
-12.60
-14.27
-15.95
-17.72
-19.60
-21.53
-23.29
-24.53
-24.81
-23.79
-21.37
-17.69
-13.13
-8.21
-3.40
0.89
4.47
7.23
9.28
10.79
11.95
12.94
13.82
14.56
15.10
15.38
15.41
15.29
15.14
15.00
14.82
14.51
14.02
13.37
12.72
12.23
12.03
12.05
12.07
11.80
11.02
9.70
8.00
6.14
4.34
2.75
1.36
0.06
-1.27
-2.72
-4.33
-6.05
-7.80
-9.47
-11.02
-12.47
-13.97
-15.69
-17.76
-20.17
-22.72
-25.01
-26.55
-26.88
-25.69
-22.97
-18.98
-14.23
-9.26
-4.54
-0.31
3.34
6.43
8.94
10.75
11.74
11.85
11.26
10.28
9.29
8.50
7.87
7.21
6.29
5.09
3.76
2.57
1.74
1.33
1.22
1.22
1.10
0.69
-0.16
-1.56
-3.53
-5.98
-8.60
-10.86
-12.19
-12.14
-10.57
-7.63
-3.75
0.51
4.59
8.06
10.68
12.45
13.48
13.94
13.98
13.72
13.16
12.34
11.36
10.42
9.74
9.50
9.74
10.35
11.08
11.73
12.18
12.41
12.48
12.49
12.44
12.27
11.83
10.99
9.76
8.25
6.70
5.31
4.24
3.49
2.92
2.34
1.56
0.50
-0.83
-2.34
-3.91
-5.40
-6.73
-7.89
-8.96
-10.08
-11.38
-12.94
-14.74
-16.66
-18.52
-20.13
-21.38
-22.25
-22.87
-23.46
-24.29
-25.56
-27.37
-29.56
-31.71
-33.23
-33.45
-31.91
-28.47
-23.35
-17.13
-10.52
-4.21
1.30
5.75
9.12
11.51
13.08
14.07
14.66
15.06
15.36
15.65
15.90
16.08
16.13
16.01
15.74
15.37
15.01
14.74
14.55
14.39
14.11
13.58
12.75
11.63
10.29
8.88
7.49
6.17
4.87
3.54
2.08
0.44
-1.38
-3.37
-5.48
-7.62
-9.64
-11.39
-12.78
-13.83
-14.71
-15.67
-17.02
-18.85
-21.03
-23.10
-24.45
-24.51
-22.92
-19.75
-15.33
-10.24
-5.06
-0.24
3.93
7.34
9.96
11.87
13.16
13.96
14.40
14.62
14.68
14.59
14.37
14.01
13.62
13.25
12.98
12.84
12.82
12.86
12.91
12.88
12.67
12.24
11.50
10.44
9.12
7.63
6.09
4.59
3.13
1.63
-0.00
-1.86
-3.94
-6.13
-8.27
-10.15
-11.71
-12.98
-14.15
-15.42
-16.98
-18.88
-20.94
-22.79
-23.96
-23.97
-22.51
-19.56
-15.39
-10.49
-5.42
-0.71
3.30
6.51
8.94
10.72
11.95
12.72
13.10
13.16
12.96
12.53
11.92
11.17
10.39
9.66
9.09
8.69
8.41
8.15
7.73
7.06
6.10
4.96
3.76
2.67
1.77
1.03
0.32
-0.54
-1.69
-3.18
-4.93
-6.80
-8.62
-10.31
-11.91
-13.54
-15.33
-17.32
-19.47
-21.63
-23.58
-24.99
-25.51
-24.82
-22.66
-19.06
-14.30
-8.91
-3.52
1.32
5.29
8.31
10.49
12.01
13.02
13.65
14.01
14.18
14.25
14.29
14.31
14.33
14.40
14.53
14.71
14.86
14.89
14.71
14.29
13.67
12.90
11.99
10.95
9.74
8.39
6.96
5.54
4.19
2.88
1.48
-0.16
-2.11
-4.35
-6.75
-9.13
-11.31
-13.17
-14.72
-16.10
-17.56
-19.31
-21.49
-23.97
-26.34
-28.02
-28.36
-26.94
-23.69
-18.91
-13.17
-7.14
-1.35
3.81
8.15
11.60
14.21
16.00
17.06
17.49
17.43
17.09
16.68
16.37
16.28
16.49
16.95
17.62
18.38
19.14
19.85
20.44
20.85
20.96
20.72
20.09
19.11
17.92
16.68
15.56
14.62
13.83
13.07
12.23
11.24
10.14
9.02
7.97
7.05
6.31
5.76
5.38
5.16
4.99
4.74
4.27
3.46
2.32
0.96
-0.45
-1.74
-2.81
-3.66
-4.34
-4.89
-5.37
-5.84
-6.36
-7.01
-7.87
-8.96
-10.28
-11.79
-13.37
-14.96
-16.47
-17.82
-18.98
-20.02
-21.09
-22.38
-24.09
-26.26
-28.63
-30.69
-31.77
-31.29
-29.02
-25.09
-20.01
-14.42
-8.92
-3.88
0.54
4.29
7.38
9.80
11.57
12.74
13.51
14.04
14.50
14.90
15.19
15.28
15.12
14.78
14.39
14.12
14.04
14.14
14.33
14.48
14.53
14.42
14.13
13.63
12.92
12.06
11.10
10.18
9.35
8.59
7.79
6.76
5.37
3.64
1.77
0.02
-1.35
-2.24
-2.75
-3.08
-3.50
-4.18
-5.19
-6.44
-7.75
-8.96
-10.01
-10.93
-11.81
-12.78
-13.92
-15.26
-16.70
-18.05
-19.03
-19.30
-18.57
-16.66
-13.58
-9.57
-5.02
-0.35
4.10
8.10
11.62
14.70
17.48
20.08
22.58
24.97
27.16
29.04
30.57
31.80
32.92
34.17
35.80
37.91
40.52
43.46
46.53
49.48
52.10
54.20
55.75
56.93
58.08
59.61
61.66
63.97
65.79
66.34
65.22
62.95
60.91
60.63
62.89
67.05
71.11
72.44
68.96
59.80
45.36
26.89
5.93
-15.56
-35.08
-49.62
-56.69
-55.67
-48.93
-41.54
-39.38
-46.43
-62.77
-84.54
-105.65
-120.59
-126.47
-123.53
-114.09
-100.85
-85.77
-69.83
-53.79
-38.72
-26.15
-17.42
-12.94
-11.79
-12.00
-11.53
-9.21
-5.30
-1.24
1.22
0.92
-2.32
-7.65
-13.75
-19.35
-23.65
-26.44
-27.95
-28.80
-29.71
-31.19
-33.18
-34.98
-35.43
-33.54
-28.96
-22.19
-14.36
-6.52
0.81
7.73
14.63
21.71
28.71
35.09
40.37
44.27
46.85
48.16
48.01
45.91
41.36
34.14
24.58
13.50
1.98
-8.88
-18.17
-25.25
-29.77
-31.65
-31.16
-28.88
-25.63
-22.24
-19.35
-17.20
-15.73
-14.63
-13.60
-12.41
-11.02
-9.45
-7.78
-6.09
-4.46
-2.99
-1.74
-0.74
0.03
0.64
1.15
1.55
1.77
1.70
1.30
0.65
-0.13
-0.91
-1.68
-2.50
-3.45
-4.48
-5.49
-6.32
-6.97
-7.61
-8.55
-10.00
-11.96
-14.14
-16.12
-17.59
-18.48
-19.06
-19.70
-20.73
-22.23
-24.05
-25.81
-27.05
-27.33
-26.26
-23.70
-19.76
-14.85
-9.55
-4.47
-0.07
3.48
6.21
8.32
9.94
11.22
12.20
12.92
13.45
13.84
14.12
14.29
14.36
14.37
14.39
14.50
14.69
14.89
15.00
14.92
14.66
14.22
13.64
12.87
11.80
10.36
8.59
6.64
4.71
2.93
1.23
-0.56
-2.63
-5.01
-7.50
-9.83
-11.72
-13.10
-14.13
-15.08
-16.22
-17.72
-19.59
-21.75
-24.08
-26.34
-28.15
-29.03
-28.49
-26.21
-22.29
-17.15
-11.47
-5.95
-1.08
2.91
6.01
8.39
10.25
11.81
13.26
14.77
16.39
18.03
19.48
20.53
21.09
21.18
20.95
20.58
20.15
19.67
19.15
18.61
18.10
17.67
17.24
16.70
15.93
14.91
13.74
12.59
11.62
10.87
10.22
9.46
8.41
7.01
5.36
3.67
2.16
0.97
0.09
-0.58
-1.17
-1.80
-2.51
-3.29
-4.11
-4.94
-5.83
-6.85
-8.10
-9.66
-11.57
-13.74
-16.04
-18.22
-20.08
-21.53
-22.57
-23.36
-24.08
-24.93
-26.09
-27.65
-29.58
-31.67
-33.48
-34.41
-33.92
-31.70
-27.84
-22.81
-17.27
-11.86
-6.96
-2.77
0.80
3.88
6.60
9.09
11.42
13.59
15.57
17.22
18.45
19.26
19.75
20.09
20.47
20.92
21.39
21.76
21.89
21.73
21.34
20.80
20.13
19.34
18.38
17.24
15.95
14.67
13.52
12.61
11.95
11.46
11.03
10.57
10.04
9.49
8.96
8.44
7.84
7.01
5.85
4.37
2.73
1.12
-0.28
-1.40
-2.35
-3.29
-4.38
-5.70
-7.23
-8.89
-10.61
-12.35
-14.09
-15.79
-17.36
-18.74
-19.92
-21.02
-22.33
-24.16
-26.67
-29.68
-32.61
-34.61
-34.86
-32.86
-28.69
-23.03
-16.87
-11.21
-6.61
-3.20
-0.64
1.49
3.53
5.60
7.60
9.39
10.95
12.36
13.74
15.04
16.12
16.79
16.91
16.56
15.97
15.46
15.20
15.22
15.34
15.30
14.92
14.16
13.14
12.02
10.89
9.76
8.55
7.19
5.68
4.08
2.53
1.10
-0.21
-1.53
-3.00
-4.70
-6.55
-8.32
-9.82
-10.94
-11.76
-12.55
-13.66
-15.37
-17.81
-20.87
-24.16
-27.09
-28.95
-29.12
-27.29
-23.59
-18.54
-12.90
-7.36
-2.37
1.92
5.53
8.55
11.03
13.00
14.48
15.52
16.20
16.55
16.58
16.29
15.75
15.06
14.33
13.66
13.14
12.82
12.75
12.92
13.22
13.45
13.35
12.75
11.62
10.13
8.49
6.92
5.51
4.24
2.96
1.51
-0.26
-2.40
-4.86
-7.48
-10.04
-12.32
-14.17
-15.61
-16.79
-17.95
-19.34
-21.12
-23.35
-25.85
-28.22
-29.86
-30.09
-28.47
-24.93
-19.92
-14.23
-8.66
-3.81
0.14
3.30
5.91
8.17
10.11
11.73
13.03
14.04
14.82
15.38
15.64
15.52
15.00
14.17
13.17
12.17
11.30
10.59
10.02
9.49
8.94
8.29
7.54
6.71
5.86
5.01
4.12
3.05
1.62
-0.25
-2.38
-4.36
-5.66
-5.93
-5.25
-4.07
-3.21
-3.42
-5.19
-8.56
-13.11
-18.11
-22.70
-26.05
-27.53
-26.79
-23.85
-19.12
-13.34
-7.29
-1.67
3.11
6.92
9.88
12.16
13.91
15.27
16.32
17.17
17.88
18.43
18.80
18.87
18.59
17.99
17.26
16.59
16.19
16.14
16.39
16.78
17.08
17.09
16.68
15.85
14.68
13.31
11.89
10.51
9.21
7.96
6.66
5.15
3.26
0.86
-2.03
-5.21
-8.41
-11.27
-13.59
-15.36
-16.81
-18.39
-20.50
-23.37
-26.81
-30.23
-32.75
-33.46
-31.83
-27.87
-22.23
-15.86
-9.72
-4.38
0.05
3.76
7.02
9.99
12.65
14.89
16.65
17.98
19.04
19.88
20.50
20.83
20.83
20.57
20.20
19.93
19.85
19.93
20.05
20.03
19.75
19.15
18.26
17.14
15.82
14.36
12.80
11.20
9.61
8.08
6.61
5.14
3.57
1.76
-0.34
-2.75
-5.30
-7.77
-9.97
-11.81
-13.31
-14.63
-16.03
-17.68
-19.72
-22.13
-24.71
-27.13
-28.86
-29.32
-28.03
-24.87
-20.13
-14.51
-8.83
-3.78
0.32
3.49
6.00
8.13
10.02
11.62
12.84
13.61
14.03
14.24
14.42
14.66
14.95
15.22
15.42
15.52
15.57
15.62
15.72
15.82
15.82
15.59
14.98
13.96
12.58
10.97
9.26
7.57
5.96
4.49
3.19
2.02
0.89
-0.35
-1.88
-3.82
-6.10
-8.51
-10.74
-12.56
-13.88
-14.87
-15.87
-17.27
-19.37
-22.25
-25.73
-29.34
-32.38
-34.13
-33.97
-31.61
-27.22
-21.39
-14.93
-8.66
-3.12
1.47
5.22
8.39
11.18
13.66
15.81
17.55
18.82
19.65
20.12
20.32
20.28
20.03
19.61
19.13
18.80
18.81
19.29
20.14
21.10
21.79
21.93
21.41
20.35
19.03
17.72
16.56
15.52
14.46
13.22
11.71
9.97
8.12
6.31
4.66
3.26
2.07
1.02
-0.02
-1.09
-2.17
-3.16
-3.97
-4.62
-5.18
-5.86
-6.88
-8.30
-10.09
-12.10
-14.13
-16.02
-17.71
-19.14
-20.37
-21.49
-22.71
-24.22
-26.23
-28.73
-31.40
-33.60
-34.49
-33.36
-29.83
-24.18
-17.17
-9.90
-3.36
1.89
5.77
8.66
11.05
13.37
15.80
18.31
20.73
22.88
24.64
25.94
26.73
26.98
26.69
25.97
24.95
23.81
22.65
21.42
19.89
17.83
15.06
11.63
7.86
4.18
1.03
-1.27
-2.62
-3.07
-2.76
-1.91
-0.76
0.46
1.52
2.28
2.68
2.72
2.45
1.92
1.07
-0.12
-1.67
-3.51
-5.41
-7.10
-8.30
-8.87
-8.85
-8.49
-8.16
-8.14
-8.62
-9.55
-10.77
-12.08
-13.37
-14.61
-15.86
-17.17
-18.52
-19.94
-21.53
-23.41
-25.72
-28.38
-30.95
-32.76
-33.00
-31.13
-27.11
-21.46
-15.13
-9.11
-4.10
-0.36
2.29
4.23
5.87
7.47
9.12
10.76
12.30
13.61
14.55
14.99
14.84
14.13
13.00
11.83
10.98
10.79
11.36
12.55
14.04
15.38
16.19
16.24
15.53
14.26
12.78
11.43
10.37
9.61
8.92
8.07
6.84
5.23
3.42
1.65
0.15
-1.03
-1.97
-2.88
-3.91
-5.15
-6.57
-8.07
-9.58
-11.03
-12.46
-13.93
-15.52
-17.31
-19.35
-21.68
-24.22
-26.74
-28.80
-29.82
-29.21
-26.66
-22.28
-16.60
-10.42
-4.58
0.36
4.17
6.91
8.83
10.18
11.11
11.72
12.03
12.07
11.87
11.52
11.07
10.65
10.35
10.29
10.57
11.21
12.17
13.28
14.26
14.84
14.86
14.26
13.16
11.78
10.31
8.92
7.70
6.65
5.73
4.88
3.97
2.89
1.57
-0.05
-1.90
-3.90
-5.92
-7.88
-9.78
-11.65
-13.60
-15.68
-17.93
-20.26
-22.59
-24.80
-26.89
-28.93
-30.94
-32.80
-34.12
-34.31
-32.83
-29.47
-24.46
-18.50
-12.47
-7.10
-2.80
0.42
2.79
4.62
6.16
7.59
9.02
10.48
11.93
13.23
14.19
14.64
14.50
13.84
12.89
11.92
11.11
10.51
10.03
9.46
8.56
7.21
5.43
3.41
1.40
-0.44
-2.05
-3.51
-5.01
-6.75
-8.88
-11.44
-14.34
-17.33
-19.97
-21.67
-21.87
-20.16
-16.60
-11.64
-6.07
-0.71
3.87
7.46
10.22
12.47
14.50
16.42
18.20
19.78
21.06
22.08
22.89
23.50
23.91
24.06
23.97
23.74
23.54
23.55
23.87
24.39
24.89
25.10
24.88
24.21
23.21
22.01
20.73
19.43
18.20
17.13
16.33
15.81
15.48
15.14
14.55
13.56
12.18
10.57
8.93
7.46
6.26
5.33
4.64
4.10
3.59
2.96
2.06
0.79
-0.84
-2.68
-4.47
-6.01
-7.22
-8.26
-9.40
-10.85
-12.66
-14.67
-16.65
-18.38
-19.80
-21.03
-22.19
-23.45
-24.96
-26.85
-29.31
-32.35
-35.72
-38.75
-40.57
-40.31
-37.52
-32.44
-25.86
-18.82
-12.23
-6.67
-2.29
1.02
3.48
5.32
6.76
7.99
9.16
10.34
11.49
12.52
13.36
13.97
14.38
14.62
14.74
14.77
14.78
14.81
14.93
15.12
15.29
15.25
14.87
14.04
12.80
11.23
9.49
7.73
6.09
4.68
3.54
2.57
1.60
0.46
-1.01
-2.81
-4.82
-6.84
-8.70
-10.30
-11.69
-13.00
-14.43
-16.15
-18.28
-20.84
-23.66
-26.40
-28.54
-29.52
-28.88
-26.48
-22.55
-17.63
-12.32
-7.17
-2.53
1.50
4.95
7.92
10.44
12.51
14.14
15.36
16.21
16.70
16.83
16.65
16.24
15.75
15.38
15.30
15.53
16.01
16.58
17.02
17.18
16.98
16.50
15.83
15.04
14.12
12.99
11.53
9.67
7.47
5.07
2.68
0.48
-1.40
-2.93
-4.14
-5.17
-6.20
-7.47
-9.14
-11.24
-13.64
-16.09
-18.38
-20.39
-22.18
-23.89
-25.72
-27.80
-30.22
-32.88
-35.55
-37.70
-38.65
-37.73
-34.52
-29.09
-22.08
-14.44
-7.13
-0.82
4.26
8.24
11.40
14.03
16.28
18.23
19.91
21.32
22.42
23.17
23.51
23.49
23.21
22.83
22.48
22.23
22.13
22.19
22.38
22.62
22.80
22.79
22.47
21.81
20.91
19.90
18.93
18.02
17.18
16.33
15.43
14.49
13.51
12.55
11.60
10.67
9.76
8.87
7.98
7.04
6.02
4.89
3.73
2.64
1.71
0.96
0.33
-0.39
-1.30
-2.46
-3.86
-5.37
-6.92
-8.48
-10.11
-11.92
-13.99
-16.27
-18.60
-20.75
-22.55
-23.90
-24.92
-25.88
-27.10
-28.88
-31.33
-34.22
-37.06
-39.08
-39.55
-38.00
-34.41
-29.22
-23.16
-17.02
-11.39
-6.52
-2.42
1.03
3.95
6.48
8.70
10.68
12.47
14.10
15.47
16.50
17.17
17.51
17.66
17.79
17.96
18.17
18.39
18.55
18.65
18.71
18.73
18.63
18.30
17.66
16.66
15.41
14.02
12.64
11.35
10.10
8.79
7.34
5.71
4.01
2.39
0.95
-0.27
-1.36
-2.48
-3.75
-5.23
-6.92
-8.69
-10.35
-11.78
-12.87
-13.71
-14.50
-15.55
-17.20
-19.66
-22.81
-26.20
-29.14
-30.83
-30.70
-28.56
-24.67
-19.66
-14.32
-9.33
-5.06
-1.63
1.11
3.37
5.31
7.06
8.69
10.21
11.63
12.89
13.83
14.37
14.42
14.06
13.48
12.92
12.59
12.58
12.89
13.41
14.03
14.61
15.01
15.15
15.01
14.68
14.28
13.96
13.75
13.62
13.38
12.84
11.87
10.44
8.63
6.56
4.37
2.11
-0.23
-2.68
-5.24
-7.83
-10.36
-12.65
-14.61
-16.18
-17.44
-18.56
-19.79
-21.39
-23.55
-26.30
-29.36
-32.16
-33.92
-33.91
-31.78
-27.70
-22.38
-16.72
-11.51
-7.14
-3.61
-0.57
2.29
5.17
8.06
10.81
13.31
15.47
17.31
18.82
20.05
20.96
21.53
21.78
21.77
21.62
21.50
21.51
21.63
21.73
21.58
21.02
19.99
18.63
17.16
15.82
14.70
13.81
13.06
12.36
11.69
11.08
10.53
10.00
9.38
8.52
7.35
5.87
4.20
2.49
0.88
-0.59
-1.92
-3.11
-4.21
-5.22
-6.25
-7.47
-9.09
-11.19
-13.70
-16.35
-18.82
-20.84
-22.34
-23.41
-24.33
-25.39
-26.85
-28.89
-31.55
-34.60
-37.56
-39.68
-40.16
-38.44
-34.46
-28.68
-21.98
-15.29
-9.32
-4.39
-0.45
2.77
5.56
8.11
10.54
12.83
14.92
16.75
18.22
19.28
19.93
20.21
20.21
20.08
19.95
19.95
20.17
20.61
21.21
21.83
22.33
22.56
22.47
22.05
21.33
20.40
19.31
18.12
16.90
15.70
14.54
13.47
12.48
11.52
10.58
9.62
8.60
7.53
6.45
5.42
4.52
3.79
3.13
2.41
1.45
0.19
-1.29
-2.76
-4.06
-5.12
-6.11
-7.32
-9.01
-11.21
-13.74
-16.24
-18.39
-20.12
-21.52
-22.86
-24.44
-26.46
-28.99
-31.96
-35.05
-37.75
-39.38
-39.21
-36.81
-32.24
-26.11
-19.41
-13.15
-7.96
-4.00
-1.03
1.40
3.63
5.82
7.97
9.97
11.75
13.28
14.51
15.41
15.97
16.21
16.19
16.10
16.04
16.12
16.38
16.78
17.21
17.48
17.39
16.77
15.64
14.17
12.67
11.44
10.61
10.12
9.72
9.13
8.15
6.76
5.09
3.34
1.64
0.04
-1.51
-3.07
-4.67
-6.31
-7.93
-9.49
-11.01
-12.55
-14.22
-16.11
-18.28
-20.76
-23.57
-26.60
-29.61
-32.16
-33.63
-33.45
-31.22
-27.08
-21.58
-15.59
-9.93
-5.16
-1.39
1.60
4.15
6.58
9.05
11.60
14.11
16.37
18.12
19.12
19.26
18.61
17.43
16.10
14.92
14.10
13.69
13.65
13.89
14.30
14.74
15.04
15.04
14.64
13.87
12.82
11.59
10.23
8.78
7.21
5.56
3.85
2.11
0.36
-1.46
-3.37
-5.38
-7.42
-9.43
-11.31
-13.01
-14.53
-15.90
-17.19
-18.53
-20.11
-22.12
-24.69
-27.75
-30.99
-33.82
-35.54
-35.50
-33.37
-29.27
-23.75
-17.65
-11.77
-6.65
-2.49
0.92
3.86
6.58
9.17
11.54
13.61
15.36
16.85
18.19
19.44
20.51
21.32
21.81
21.99
22.04
22.14
22.37
22.71
23.02
23.07
22.68
21.79
20.50
18.99
17.51
16.19
15.06
14.00
12.86
11.50
9.87
8.03
6.11
4.28
2.64
1.23
-0.03
-1.30
-2.74
-4.49
-6.54
-8.79
-11.04
-13.11
-14.90
-16.45
-17.91
-19.46
-21.32
-23.67
-26.55
-29.86
-33.17
-35.76
-36.74
-35.46
-31.66
-25.80
-18.85
-11.90
-5.85
-1.09
2.50
5.25
7.51
9.41
11.02
12.40
13.70
15.08
16.60
18.11
19.33
20.01
20.09
19.77
19.36
19.16
19.23
19.50
19.73
19.70
19.31
18.51
17.37
15.99
14.54
13.19
12.05
11.14
10.34
9.47
8.33
6.87
5.16
3.35
1.59
-0.05
-1.62
-3.23
-4.97
-6.86
-8.84
-10.79
-12.58
-14.12
-15.39
-16.51
-17.73
-19.36
-21.71
-24.90
-28.65
-32.31
-34.95
-35.69
-34.02
-30.01
-24.31
-17.86
-11.61
-6.17
-1.72
1.92
5.06
7.93
10.59
12.91
14.73
15.94
16.60
16.89
17.05
17.27
17.60
17.95
18.17
18.14
17.85
17.40
16.90
16.41
15.90
15.22
14.22
12.80
10.96
8.81
6.51
4.25
2.22
0.59
-0.53
-1.15
-1.42
-1.59
-2.00
-2.89
-4.33
-6.20
-8.22
-10.17
-11.90
-13.50
-15.18
-17.20
-19.73
-22.82
-26.25
-29.61
-32.33
-33.77
-33.39
-30.91
-26.49
-20.70
-14.38
-8.38
-3.27
0.77
3.94
6.56
8.95
11.23
13.36
15.23
16.74
17.87
18.63
19.04
19.13
18.94
18.59
18.25
18.09
18.16
18.46
18.85
19.18
19.30
19.12
18.62
17.82
16.78
15.53
14.11
12.52
10.78
8.93
7.06
5.23
3.48
1.81
0.17
-1.49
-3.20
-5.00
-6.94
-9.01
-11.19
-13.38
-15.41
-17.20
-18.72
-20.11
-21.64
-23.60
-26.20
-29.44
-33.02
-36.38
-38.75
-39.39
-37.79
-33.90
-28.18
-21.47
-14.70
-8.58
-3.39
0.93
4.66
8.00
11.00
13.61
15.76
17.45
18.81
19.94
20.89
21.66
22.23
22.61
22.92
23.29
23.81
24.43
25.01
25.33
25.20
24.59
23.59
22.38
21.17
20.11
19.24
18.52
17.85
17.12
16.24
15.11
13.66
11.91
9.90
7.73
5.52
3.37
1.36
-0.49
-2.16
-3.65
-4.97
-6.26
-7.68
-9.40
-11.51
-13.95
-16.53
-19.01
-21.16
-22.89
-24.27
-25.47
-26.77
-28.42
-30.61
-33.29
-36.17
-38.66
-40.01
-39.53
-36.85
-32.08
-25.85
-19.04
-12.53
-6.92
-2.37
1.26
4.32
7.15
9.95
12.70
15.26
17.42
19.01
19.92
20.23
20.13
19.88
19.74
19.84
20.17
20.55
20.80
20.76
20.43
19.84
19.07
18.15
17.01
15.57
13.79
11.74
9.60
7.60
5.93
4.60
3.54
2.53
1.39
0.00
-1.64
-3.43
-5.25
-7.02
-8.77
-10.56
-12.48
-14.55
-16.70
-18.82
-20.89
-23.01
-25.35
-27.97
-30.63
-32.78
-33.69
-32.69
-29.53
-24.49
-18.30
-11.91
-6.11
-1.35
2.29
5.05
7.28
9.31
11.31
13.27
15.08
16.57
17.59
18.10
18.17
17.92
17.50
17.06
16.71
16.57
16.65
16.95
17.37
17.74
17.82
17.42
16.39
14.78
12.74
10.50
8.31
6.31
4.60
3.18
2.00
0.95
-0.10
-1.34
-2.93
-4.90
-7.17
-9.56
-11.87
-13.98
-15.89
-17.69
-19.55
-21.64
-24.08
-26.92
-30.04
-33.09
-35.43
-36.33
-35.18
-31.79
-26.56
-20.34
-14.13
-8.68
-4.31
-0.85
2.10
4.91
7.76
10.57
13.19
15.46
17.30
18.75
19.81
20.51
20.86
20.91
20.79
20.62
20.52
20.51
20.56
20.52
20.26
19.69
18.81
17.66
16.33
14.89
13.43
12.04
10.79
9.66
8.60
7.46
6.12
4.52
2.72
0.86
-0.90
-2.45
-3.89
-5.38
-7.12
-9.17
-11.43
-13.66
-15.64
-17.29
-18.72
-20.21
-22.07
-24.52
-27.58
-30.96
-34.12
-36.30
-36.76
-34.96
-30.85
-24.90
-18.02
-11.30
-5.55
-1.12
2.17
4.81
7.31
9.97
12.81
15.61
18.15
20.27
21.88
22.98
23.60
23.78
23.59
23.15
22.58
22.04
21.65
21.47
21.51
21.69
21.87
21.83
21.36
20.33
18.77
16.92
15.12
13.64
12.57
11.80
11.06
10.06
8.64
6.78
4.67
2.55
0.62
-1.07
-2.60
-4.13
-5.81
-7.73
-9.82
-11.93
-13.90
-15.61
-17.02
-18.23
-19.41
-20.73
-22.37
-24.50
-27.13
-30.12
-33.04
-35.23
-35.97
-34.73
-31.33
-26.15
-19.96
-13.73
-8.25
-3.99
-0.94
1.19
2.82
4.28
5.72
7.09
8.24
9.05
9.47
9.58
9.51
9.40
9.38
9.50
9.74
10.01
10.25
10.30
10.06
9.35
8.04
6.08
3.54
0.66
-2.17
-4.53
-6.07
-6.59
-6.10
-4.85
-3.25
-1.74
-0.70
-0.31
-0.55
-1.19
-1.93
-2.47
-2.67
-2.58
-2.41
-2.38
-2.73
-3.59
-5.10
-7.35
-10.39
-14.11
-18.02
-21.37
-23.21
-22.81
-19.96
-15.12
-9.25
-3.45
1.48
5.31
8.26
10.82
13.44
16.27
19.28
22.31
25.21
27.85
30.12
31.84
32.84
32.99
32.39
31.31
30.20
29.46
29.27
29.53
29.87
29.87
29.19
27.70
25.49
22.80
19.95
17.20
14.66
12.35
10.13
7.85
5.38
2.65
-0.25
-3.10
-5.66
-7.73
-9.30
-10.49
-11.52
-12.56
-13.74
-15.05
-16.43
-17.82
-19.16
-20.45
-21.69
-22.91
-24.18
-25.59
-27.17
-28.76
-30.00
-30.32
-29.16
-26.23
-21.66
-16.04
-10.22
-5.03
-0.97
1.77
3.32
3.98
4.08
3.93
3.81
3.93
4.44
5.36
6.57
7.84
8.96
9.79
10.31
10.65
10.96
11.32
11.79
12.39
13.08
13.81
14.48
14.89
14.92
14.51
13.69
12.63
11.49
10.41
9.43
8.50
7.51
6.39
5.08
3.59
2.01
0.48
-0.86
-1.96
-2.89
-3.83
-5.01
-6.60
-8.62
-10.93
-13.27
-15.41
-17.22
-18.74
-20.17
-21.78
-23.73
-26.09
-28.65
-30.98
-32.50
-32.65
-31.01
-27.55
-22.58
-16.76
-10.83
-5.47
-1.10
2.20
4.54
6.19
7.39
8.34
9.14
9.88
10.60
11.29
11.90
12.35
12.60
12.62
12.46
12.22
11.99
11.87
11.91
12.10
12.35
12.51
12.39
11.87
10.93
9.68
8.28
6.90
5.65
4.51
3.39
2.20
0.84
-0.74
-2.57
-4.59
-6.68
-8.63
-10.24
-11.39
-12.14
-12.74
-13.50
-14.74
-16.59
-18.96
-21.50
-23.68
-24.87
-24.52
-22.37
-18.56
-13.62
-8.38
-3.62
0.13
2.76
4.54
5.87
7.11
8.41
9.74
10.95
11.89
12.47
12.66
12.49
12.01
11.31
10.49
9.74
9.21
9.00
9.10
9.34
9.44
9.16
8.38
7.21
5.85
4.53
3.35
2.29
1.18
-0.17
-1.90
-3.99
-6.36
-8.81
-11.11
-13.07
-14.60
-15.73
-16.66
-17.68
-19.08
-21.11
-23.83
-27.04
-30.35
-33.12
-34.68
-34.43
-32.17
-28.07
-22.75
-16.99
-11.48
-6.66
-2.62
0.77
3.72
6.46
9.13
11.81
14.54
17.29
19.93
22.28
24.17
25.41
25.93
25.77
25.07
24.08
23.08
22.25
21.68
21.29
20.85
20.13
18.98
17.37
15.44
13.41
11.44
9.61
7.85
5.96
3.72
0.98
-2.20
-5.56
-8.71
-11.39
-13.46
-15.07
-16.48
-17.94
-19.66
-21.75
-24.26
-27.12
-30.07
-32.60
-34.01
-33.60
-31.01
-26.47
-20.68
-14.63
-9.17
-4.76
-1.39
1.25
3.55
5.75
8.00
10.26
12.44
14.44
16.18
17.56
18.58
19.24
19.62
19.83
19.98
20.10
20.23
20.34
20.38
20.29
20.02
19.54
18.86
18.00
17.00
15.87
14.57
13.01
11.19
9.11
6.88
4.65
2.58
0.72
-0.94
-2.51
-4.13
-5.88
-7.78
-9.75
-11.62
-13.26
-14.61
-15.72
-16.74
-17.93
-19.55
-21.81
-24.73
-28.03
-31.14
-33.26
-33.63
-31.74
-27.63
-21.81
-15.17
-8.67
-3.02
1.41
4.70
7.14
9.16
11.05
12.97
14.87
16.53
17.76
18.42
18.56
18.35
18.01
17.75
17.65
17.70
17.86
18.02
18.15
18.18
18.05
17.68
17.02
16.06
14.87
13.52
12.12
10.70
9.25
7.77
6.23
4.68
3.14
1.70
0.32
-1.03
-2.44
-4.02
-5.80
-7.76
-9.77
-11.72
-13.52
-15.21
-16.87
-18.65
-20.70
-23.13
-25.96
-29.06
-32.04
-34.35
-35.30
-34.26
-30.96
-25.62
-18.98
-12.06
-5.83
-0.88
2.69
5.19
7.11
8.88
10.68
12.42
13.90
14.90
15.34
15.34
15.12
14.99
15.13
15.63
16.40
17.28
18.06
18.60
18.82
18.74
18.37
17.69
16.70
15.41
13.90
12.28
10.68
9.18
7.77
6.37
4.90
3.35
1.73
0.08
-1.57
-3.26
-5.05
-6.97
-8.99
-11.00
-12.86
-14.54
-16.06
-17.51
-18.99
-20.60
-22.44
-24.60
-27.07
-29.65
-31.87
-33.09
-32.62
-30.11
-25.66
-19.87
-13.63
-7.74
-2.72
1.36
4.73
7.73
10.52
13.14
15.44
17.28
18.63
19.56
20.15
20.49
20.62
20.46
20.02
19.37
18.63
18.02
17.71
17.77
18.14
18.65
19.04
19.12
18.76
17.90
16.63
15.10
13.51
12.05
10.83
9.88
9.06
8.21
7.14
5.78
4.12
2.32
0.52
-1.15
-2.67
-4.12
-5.62
-7.33
-9.32
-11.52
-13.77
-15.84
-17.54
-18.82
-19.77
-20.59
-21.55
-22.86
-24.71
-27.17
-30.12
-33.16
-35.67
-36.86
-36.05
-32.97
-27.90
-21.62
-15.11
-9.22
-4.33
-0.42
2.83
5.75
8.54
11.20
13.65
15.82
17.70
19.30
20.56
21.38
21.65
21.31
20.46
19.34
18.25
17.48
17.16
17.25
17.58
17.91
18.05
17.92
17.58
17.07
16.48
15.85
15.14
14.32
13.38
12.33
11.18
9.96
8.64
7.18
5.57
3.87
2.19
0.64
-0.66
-1.72
-2.66
-3.68
-5.00
-6.71
-8.83
-11.19
-13.60
-15.86
-17.86
-19.58
-21.13
-22.61
-24.17
-25.92
-27.90
-29.99
-31.87
-33.07
-33.06
-31.39
-27.94
-23.01
-17.24
-11.39
-6.11
-1.73
1.74
4.49
6.76
8.68
10.32
11.73
12.96
14.02
14.88
15.49
15.75
15.70
15.48
15.30
15.36
15.71
16.28
16.93
17.48
17.83
17.88
17.54
16.73
15.37
13.54
11.42
9.30
7.44
5.94
4.73
3.57
2.23
0.60
-1.23
-3.09
-4.81
-6.35
-7.85
-9.47
-11.30
-13.26
-15.11
-16.68
-17.94
-19.12
-20.52
-22.47
-25.11
-28.28
-31.54
-34.24
-35.69
-35.30
-32.84
-28.45
-22.73
-16.48
-10.49
-5.27
-1.01
2.44
5.32
7.86
10.17
12.24
14.02
15.47
16.60
17.43
18.01
18.36
18.53
18.54
18.44
18.31
18.26
18.37
18.68
19.12
19.51
19.63
19.32
18.53
17.38
16.13
14.95
13.93
12.96
11.88
10.56
8.89
6.91
4.71
2.37
-0.01
-2.38
-4.70
-6.97
-9.17
-11.35
-13.51
-15.64
-17.74
-19.78
-21.74
-23.62
-25.54
-27.61
-29.94
-32.51
-35.00
-36.83
-37.30
-35.83
-32.21
-26.82
-20.38
-13.81
-7.87
-2.92
1.02
4.18
6.84
9.20
11.35
13.39
15.37
17.28
19.00
20.36
21.18
21.40
21.08
20.43
19.72
19.17
18.89
18.94
19.25
19.67
20.04
20.15
19.91
19.28
18.35
17.25
16.10
14.89
13.54
11.92
9.94
7.68
5.30
3.05
1.11
-0.49
-1.89
-3.36
-5.05
-7.08
-9.34
-11.64
-13.73
-15.44
-16.75
-17.83
-18.98
-20.57
-22.91
-26.09
-29.86
-33.64
-36.61
-37.93
-37.01
-33.74
-28.50
-22.04
-15.25
-8.86
-3.32
1.28
5.03
8.14
10.75
13.00
14.92
16.49
17.69
18.46
18.85
18.94
18.89
18.85
18.90
19.02
19.10
19.02
18.75
18.34
17.88
17.42
16.89
16.14
15.06
13.67
12.11
10.62
9.38
8.42
7.60
6.69
5.44
3.75
1.58
-1.00
-3.83
-6.72
-9.48
-11.88
-13.80
-15.27
-16.44
-17.61
-19.10
-21.15
-23.84
-26.98
-30.14
-32.64
-33.79
-33.00
-30.05
-25.13
-18.90
-12.23
-5.97
-0.71
3.36
6.32
8.55
10.36
11.99
13.50
14.82
15.82
16.40
16.56
16.39
16.03
15.60
15.18
14.76
14.38
14.06
13.91
14.01
14.33
14.68
14.78
14.33
13.18
11.43
9.33
7.22
5.35
3.78
2.39
0.96
-0.72
-2.77
-5.19
-7.88
-10.69
-13.40
-15.86
-17.96
-19.71
-21.29
-23.06
-25.35
-28.30
-31.70
-34.88
-36.98
-37.11
-34.79
-30.12
-23.75
-16.62
-9.69
-3.59
1.44
5.47
8.66
11.18
13.08
14.38
15.15
15.56
15.79
16.02
16.30
16.57
16.74
16.78
16.78
16.93
17.38
18.14
19.09
19.98
20.55
20.57
19.90
18.53
16.54
14.10
11.47
8.94
6.74
4.92
3.39
1.84
0.00
-2.28
-4.96
-7.79
-10.44
-12.66
-14.41
-15.82
-17.20
-18.89
-21.20
-24.26
-28.01
-32.04
-35.73
-38.24
-38.74
-36.79
-32.48
-26.54
-20.03
-13.98
-9.05
-5.29
-2.33
0.35
3.14
6.11
9.12
11.97
14.53
16.74
18.57
19.96
20.89
21.37
21.52
21.50
21.49
21.57
21.71
21.84
21.89
21.84
21.63
21.21
20.48
19.38
17.92
16.19
14.39
12.67
11.12
9.74
8.47
7.17
5.70
3.95
1.85
-0.60
-3.30
-6.09
-8.77
-11.23
-13.48
-15.64
-17.92
-20.57
-23.69
-27.22
-30.80
-33.80
-35.46
-35.11
-32.39
-27.46
-20.95
-13.79
-6.83
-0.72
4.31
8.32
11.45
13.88
15.70
16.99
17.83
18.33
18.60
18.72
18.72
18.58
18.33
18.04
17.80
17.71
17.79
17.94
17.94
17.59
16.73
15.37
13.65
11.79
10.01
8.34
6.71
4.95
2.93
0.53
-2.19
-5.12
-8.13
-11.08
-13.82
-16.23
-18.23
-19.82
-21.20
-22.66
-24.55
-27.04
-29.95
-32.67
-34.29
-33.94
-31.11
-25.95
-19.16
-11.80
-4.83
1.06
5.66
9.09
11.61
13.51
14.99
16.16
17.06
17.69
18.04
18.08
17.81
17.30
16.66
16.03
15.55
15.27
15.18
15.19
15.13
14.79
14.02
12.77
11.15
9.33
7.50
5.79
4.17
2.50
0.65
-1.46
-3.73
-5.99
-8.08
-9.92
-11.59
-13.28
-15.20
-17.58
-20.55
-24.14
-28.16
-32.14
-35.31
-36.81
-35.91
-32.37
-26.56
-19.44
-12.17
-5.71
-0.49
3.55
6.82
9.73
12.52
15.14
17.43
19.19
20.41
21.11
21.36
21.21
20.69
19.91
19.03
18.27
17.78
17.63
17.73
17.90
17.91
17.56
16.73
15.38
13.59
11.51
9.37
7.34
5.45
3.58
1.43
-1.25
-4.51
-8.15
-11.77
-14.99
-17.61
-19.72
-21.62
-23.68
-26.18
-29.22
-32.71
-36.31
-39.48
-41.52
-41.72
-39.60
-35.15
-28.96
-21.96
-15.12
-9.07
-3.89
0.77
5.35
10.06
14.76
19.02
22.43
24.78
26.14
26.74
26.83
26.58
26.10
25.56
25.14
25.07
25.41
26.04
26.64
26.80
26.28
25.04
23.27
21.28
19.34
17.59
16.01
14.46
12.81
10.94
8.84
6.59
4.35
2.29
0.55
-0.89
-2.19
-3.64
-5.53
-8.02
-11.06
-14.35
-17.46
-20.03
-21.93
-23.33
-24.61
-26.21
-28.49
-31.55
-35.12
-38.61
-41.18
-41.97
-40.33
-36.11
-29.80
-22.31
-14.76
-8.01
-2.51
1.79
5.23
8.21
10.97
13.55
15.88
17.89
19.57
20.91
21.92
22.47
22.50
21.96
21.00
19.92
19.09
18.79
19.13
19.99
21.01
21.77
21.90
21.26
20.03
18.64
17.61
17.31
17.83
18.92
20.15
21.06
21.39
21.11
20.31
19.11
17.51
15.39
12.61
9.13
5.04
0.51
-4.18
-8.77
-13.07
-16.95
-20.39
-23.40
-26.12
-28.75
-31.60
-34.93
-38.78
-42.81
-46.23
-48.05
-47.39
-43.95
-38.08
-30.72
-23.06
-16.06
-10.24
-5.63
-2.00
0.92
3.30
5.23
6.74
7.88
8.70
9.22
9.45
9.39
9.09
8.58
7.93
7.15
6.19
5.02
3.71
2.42
1.32
0.59
0.16
-0.22
-0.94
-2.34
-4.50
-7.17
-9.74
-11.53
-11.91
-10.57
-7.59
-3.35
1.60
6.73
11.61
15.96
19.62
22.53
24.60
25.79
26.02
25.32
23.80
21.74
19.55
17.63
16.31
15.70
15.69
16.03
16.43
16.67
16.71
16.59
16.42
16.27
16.15
15.94
15.54
14.82
13.77
12.47
11.06
9.69
8.42
7.23
5.97
4.52
2.84
0.97
-0.96
-2.81
-4.50
-6.04
-7.49
-9.02
-10.84
-13.11
-15.91
-19.17
-22.62
-25.93
-28.75
-30.92
-32.44
-33.55
-34.61
-36.06
-38.26
-41.39
-45.30
-49.37
-52.65
-53.99
-52.52
-47.94
-40.75
-32.03
-23.08
-14.99
-8.25
-2.80
1.71
5.69
9.33
12.59
15.36
17.52
19.10
20.21
20.96
21.40
21.54
21.44
21.23
21.08
21.14
21.49
22.08
22.72
23.24
23.45
23.18
22.35
20.94
19.05
16.88
14.70
12.71
10.96
9.33
7.54
5.31
2.54
-0.67
-4.03
-7.19
-9.90
-12.05
-13.71
-15.06
-16.33
-17.76
-19.57
-21.97
-25.04
-28.60
-32.12
-34.77
-35.70
-34.21
-30.15
-23.92
-16.44
-8.74
-1.72
4.12
8.69
12.17
14.90
17.17
19.11
20.74
21.98
22.74
23.00
22.84
22.43
21.99
21.63
21.38
21.21
21.06
20.95
20.93
21.05
21.28
21.44
21.23
20.35
18.65
16.22
13.35
10.53
8.13
6.36
5.07
3.87
2.30
0.06
-2.90
-6.36
-9.89
-13.14
-15.89
-18.12
-20.01
-21.81
-23.76
-26.06
-28.81
-31.92
-35.05
-37.58
-38.72
-37.76
-34.37
-28.74
-21.67
-14.17
-7.18
-1.28
3.46
7.30
10.61
13.60
16.27
18.48
20.07
21.01
21.40
21.42
21.24
20.95
20.55
20.00
19.29
18.48
17.65
16.90
16.26
15.61
14.77
13.59
12.01
10.16
8.24
6.44
4.80
3.20
1.42
-0.72
-3.22
-5.95
-8.69
-11.25
-13.52
-15.50
-17.30
-19.12
-21.19
-23.74
-26.89
-30.49
-34.09
-36.96
-38.25
-37.33
-34.01
-28.60
-21.86
-14.67
-7.82
-1.77
3.36
7.68
11.36
14.50
17.12
19.14
20.56
21.42
21.84
21.94
21.82
21.55
21.14
20.65
20.11
19.66
19.39
19.40
19.65
19.99
20.12
19.72
18.54
16.56
14.02
11.29
8.78
6.68
4.87
3.05
0.84
-1.98
-5.35
-8.94
-12.35
-15.22
-17.41
-19.01
-20.27
-21.53
-23.12
-25.34
-28.33
-31.98
-35.80
-39.00
-40.65
-39.94
-36.55
-30.77
-23.45
-15.70
-8.47
-2.25
2.92
7.32
11.25
14.84
18.04
20.66
22.59
23.86
24.63
25.04
25.18
25.06
24.71
24.14
23.46
22.75
22.13
21.65
21.29
21.06
20.88
20.65
20.22
19.53
18.59
17.53
16.49
15.50
14.59
13.68
12.74
11.74
10.72
9.73
8.82
7.98
7.03
5.95
4.68
3.37
2.06
0.80
-0.37
-1.44
-2.35
-3.25
-3.71
-3.40
-1.94
0.25
2.29
3.23
2.50
0.36
-2.24
-2.83
0.31
7.06
14.27
17.47
13.06
0.19
-19.06
-41.71
-63.98
-85.00
-105.28
-125.03
