1533744183.00
64.000000
-0.00
-0.00
-0.00
-0.00
-0.00
-0.00
-0.00
-0.00
-0.00
-0.00
0.00
0.01
0.01
-0.00
-0.03
-0.05
-0.05
0.00
0.13
0.36
0.66
1.01
1.37
1.72
2.06
2.40
2.79
3.24
3.80
4.42
5.06
5.66
6.20
6.68
7.15
7.68
8.31
9.14
10.09
11.04
11.88
12.56
13.14
13.76
14.65
15.96
17.91
20.32
22.90
25.38
27.58
29.57
31.68
34.32
37.81
42.54
48.15
54.10
59.83
64.97
69.58
74.14
79.34
85.71
93.76
103.00
112.62
121.73
129.77
136.75
143.30
150.75
157.77
166.64
177.95
191.79
206.97
220.57
228.25
225.36
208.53
176.87
132.76
80.05
23.07
-34.95
-92.44
-149.15
-205.22
-260.35
-313.71
-363.82
-409.76
-450.80
-486.36
-515.55
-536.99
-548.92
-549.60
-537.94
-513.71
-478.11
-433.24
-381.73
-326.23
-268.97
-211.67
-155.61
-101.82
-51.14
-4.57
37.02
72.99
103.05
127.34
146.39
160.89
171.56
179.02
183.67
185.80
185.63
183.45
179.60
174.49
168.54
162.08
155.36
148.53
141.65
134.76
127.92
121.17
114.60
108.26
102.23
96.51
91.14
86.12
81.45
77.15
73.25
69.76
66.68
63.99
61.68
59.68
57.93
56.31
54.70
52.92
50.81
48.20
44.94
40.91
36.08
30.44
24.03
17.01
9.57
1.96
-5.54
-12.65
-19.09
-24.63
-29.07
-32.29
-34.20
-34.81
-34.13
-32.25
-29.29
-25.39
-20.71
-15.41
-9.66
-3.61
2.53
8.56
14.30
19.59
24.27
28.24
31.43
33.81
35.43
36.28
36.45
36.09
35.37
34.52
33.76
33.31
33.42
34.24
35.78
37.97
40.73
43.93
47.43
51.02
54.55
57.90
61.01
63.66
65.76
67.34
68.55
69.58
70.67
72.08
74.07
76.90
80.42
84.53
89.07
93.84
98.53
102.73
105.89
107.25
108.11
108.84
109.61
110.49
111.48
112.61
113.86
115.28
116.89
118.74
120.49
121.83
122.48
122.15
120.57
117.58
113.05
107.03
99.66
91.01
81.32
70.93
60.26
49.69
39.59
30.24
21.85
14.55
8.24
2.80
-1.93
-6.12
-9.95
-13.59
-17.15
-20.63
-23.93
-26.89
-29.31
-30.97
-31.71
-31.46
-30.24
-28.11
-25.12
-21.30
-16.69
-11.33
-5.33
1.01
7.29
12.95
17.49
20.58
22.19
22.61
22.27
21.54
20.51
18.89
16.06
11.38
4.45
-4.61
-15.19
-26.41
-37.60
-48.63
-60.09
-73.07
-88.55
-106.87
-127.39
-148.57
-168.62
-186.23
-201.19
-214.44
-227.57
-242.14
-259.00
-278.26
-299.42
-321.57
-343.26
-362.36
-376.09
-381.84
-378.31
-366.48
-349.42
-330.82
-312.88
-295.18
-275.10
-250.09
-220.15
-189.05
-163.12
-148.09
-145.80
-152.50
-160.13
-159.69
-145.40
-117.01
-79.61
-40.84
-7.24
18.38
37.19
52.53
67.18
81.32
92.36
96.51
91.02
75.35
51.35
22.12
-9.08
-39.09
-64.35
-80.44
-82.56
-67.48
-35.88
6.56
50.60
86.82
109.32
117.68
115.64
107.57
95.17
76.34
47.69
8.53
-36.22
-76.43
-100.86
-102.40
-81.45
-45.46
-5.18
30.09
55.51
70.96
79.27
83.49
85.33
84.68
80.14
69.88
52.69
28.96
1.33
-25.43
-45.72
-55.30
-52.88
-40.39
-21.83
-0.98
20.02
40.41
59.55
75.49
85.30
86.47
78.71
64.47
47.76
32.05
18.77
7.58
-2.45
-11.33
-17.77
-19.80
-15.99
-6.28
8.03
25.10
43.38
61.69
78.59
91.50
96.76
90.84
72.54
44.68
14.21
-10.17
-21.93
-19.89
-9.06
2.24
7.25
4.82
-0.08
0.15
10.26
28.58
47.56
58.27
55.56
40.82
20.18
0.07
-16.60
-30.92
-45.02
-58.44
-67.01
-64.99
-49.23
-22.15
8.79
34.75
49.74
52.62
46.15
34.39
20.43
6.09
-7.24
-17.59
-22.87
-22.20
-17.04
-10.79
-7.11
-7.96
-12.91
-19.84
-26.46
-31.34
-33.98
-34.01
-30.59
-22.80
-10.67
3.73
16.29
22.26
18.44
4.93
-14.29
-32.82
-44.57
-46.15
-37.93
-22.95
-4.85
13.96
32.64
50.72
66.49
76.47
76.97
66.58
48.07
27.74
12.57
6.75
9.60
16.36
21.30
20.83
15.12
6.92
-0.51
-5.20
-6.76
-5.55
-1.74
4.51
12.09
18.09
18.17
8.77
-10.47
-35.35
-58.13
-70.60
-67.45
-48.55
-18.68
14.64
44.37
66.09
78.37
81.95
78.47
69.73
57.56
44.08
30.96
19.36
9.16
-1.37
-14.43
-30.88
-48.67
-62.95
-68.00
-61.55
-45.37
-25.09
-7.62
2.07
2.73
-3.76
-14.97
-30.03
-51.75
-82.37
-120.44
-159.64
-190.93
-207.28
-207.92
-199.19
-191.38
-195.66
-216.57
-250.56
-288.53
-320.93
-342.44
-353.93
-360.76
-354.08
-328.51
-280.56
-210.95
-125.49
-33.41
55.51
133.84
197.87
247.69
283.55
307.31
321.14
326.94
326.14
319.87
309.25
295.80
281.51
266.73
251.85
237.00
222.10
206.98
191.48
175.69
160.03
145.22
130.93
116.94
102.87
88.38
73.25
57.43
41.08
24.51
8.10
-8.33
-24.91
-41.92
-59.64
-78.24
-97.75
-118.08
-139.06
-160.49
-182.32
-204.17
-225.59
-245.97
-264.37
-279.63
-290.43
-295.41
-293.39
-284.70
-268.76
-245.33
-214.77
-178.09
-136.81
-92.84
-48.23
-4.96
35.20
71.07
101.72
126.62
145.66
159.10
167.55
171.79
172.64
170.83
167.09
161.82
155.24
147.40
138.36
128.17
117.01
105.10
92.67
79.99
67.18
54.21
41.02
27.67
14.33
1.39
-10.66
-21.45
-30.80
-38.86
-46.07
-52.95
-59.79
-66.44
-72.30
-76.47
-78.24
-77.40
-74.30
-69.89
-65.27
-61.09
-57.10
-52.14
-44.48
-32.50
-16.25
3.38
24.86
46.48
67.11
86.65
106.02
126.74
150.52
178.91
213.01
252.60
295.42
336.85
370.51
389.97
391.02
373.38
341.08
301.06
260.57
224.78
195.64
172.32
152.77
135.20
118.91
104.06
90.95
79.31
68.18
56.45
43.57
30.08
17.70
8.54
4.09
4.30
7.33
10.30
10.32
5.94
-2.48
-12.95
-22.62
-28.93
-30.41
-27.24
-21.16
-14.77
-10.64
-10.12
-12.80
-16.72
-19.35
-18.81
-14.90
-8.99
-3.14
1.20
4.02
6.56
10.37
16.18
23.33
30.05
34.37
35.08
32.33
27.41
21.98
17.28
13.56
10.16
6.17
1.18
-4.26
-8.72
-10.78
-9.99
-7.46
-5.48
-6.41
-11.32
-19.34
-28.30
-35.91
-41.20
-44.77
-47.95
-51.55
-55.14
-57.37
-57.36
-55.80
-54.95
-57.45
-64.68
-75.72
-87.85
-97.98
-104.10
-106.01
-104.76
-101.62
-97.45
-92.54
-87.19
-82.10
-78.26
-76.40
-76.53
-77.73
-78.55
-77.69
-74.32
-68.31
-60.24
-51.04
-42.07
-34.83
-30.52
-29.50
-31.04
-33.41
-34.72
-33.60
-29.90
-24.72
-19.75
-16.57
-15.93
-17.51
-20.21
-22.72
-24.14
-24.28
-23.83
-23.80
-24.78
-26.51
-27.75
-26.93
-23.28
-17.52
-11.86
-8.89
-9.95
-14.27
-19.19
-21.47
-19.12
-12.58
-4.40
2.04
4.18
1.56
-4.37
-11.10
-16.26
-18.48
-17.28
-12.74
-5.12
5.06
16.67
27.73
35.74
38.69
35.76
27.98
18.05
9.21
4.17
4.08
8.07
13.81
18.40
19.68
17.11
12.00
6.70
3.53
3.58
6.14
9.23
10.79
9.75
6.49
2.40
-1.19
-3.75
-5.71
-7.90
-10.63
-13.20
-13.99
-11.34
-4.58
5.22
15.52
23.33
26.53
24.91
20.22
15.21
12.29
12.38
14.64
17.21
18.23
16.86
13.55
9.57
6.36
4.82
5.18
7.02
9.57
12.10
13.90
14.55
13.82
11.78
8.73
5.02
1.02
-3.02
-6.74
-9.68
-11.04
-10.13
-6.71
-1.44
4.19
8.37
9.86
8.63
5.79
2.93
1.16
0.54
0.24
-0.77
-2.81
-5.26
-6.92
-6.89
-5.11
-2.46
-0.25
0.61
0.15
-0.69
-0.79
0.42
2.43
3.74
2.62
-1.87
-9.00
-16.47
-21.32
-21.40
-16.52
-8.65
-0.85
4.42
6.55
6.83
7.20
8.73
10.69
11.05
7.95
1.20
-7.17
-13.98
-16.50
-14.05
-8.21
-1.96
1.96
2.46
0.34
-2.18
-2.90
-0.72
3.81
8.89
12.42
13.05
10.84
7.08
3.39
0.83
-0.65
-1.88
-3.80
-6.60
-9.42
-10.87
-9.91
-6.52
-1.86
2.41
4.82
4.82
2.88
0.06
-2.36
-3.62
-3.53
-2.67
-1.92
-2.08
-3.40
-5.28
-6.53
-5.85
-2.74
2.13
7.12
10.45
11.13
9.51
7.02
5.13
4.54
4.74
4.49
2.83
-0.13
-3.21
-4.87
-4.07
-0.90
3.53
7.73
10.64
11.99
12.12
11.52
10.48
8.94
6.70
3.74
0.39
-2.73
-4.89
-5.57
-4.72
-2.79
-0.63
0.87
1.14
0.25
-1.03
-1.60
-0.61
2.03
5.40
7.94
8.15
5.51
0.75
-4.38
-7.86
-8.41
-6.03
-1.85
2.52
5.82
7.68
8.50
8.99
9.57
10.01
9.72
8.12
5.25
1.81
-0.97
-2.00
-1.04
1.12
2.99
3.25
1.52
-1.41
-4.02
-5.08
-4.32
-2.73
-1.74
-2.29
-4.18
-6.07
-6.42
-4.50
-0.95
2.42
3.70
1.92
-2.25
-6.79
-9.28
-8.20
-3.64
2.71
8.39
11.42
11.13
8.40
4.90
2.15
0.71
0.18
-0.39
-1.67
-3.72
-5.93
-7.47
-7.78
-6.81
-5.06
-3.28
-2.08
-1.66
-1.73
-1.61
-0.65
1.35
3.86
5.80
5.95
3.76
-0.26
-4.62
-7.58
-8.05
-6.22
-3.31
-0.86
0.25
0.20
0.14
1.22
3.79
6.99
9.21
9.06
6.21
1.80
-2.13
-3.72
-2.32
1.10
4.54
6.02
4.77
1.49
-1.93
-3.64
-2.90
-0.40
2.10
2.85
1.14
-2.33
-5.92
-7.93
-7.68
-5.88
-4.14
-3.96
-5.76
-8.53
-10.27
-9.19
-4.69
2.07
8.74
12.86
13.11
9.89
5.05
0.92
-0.88
-0.15
1.93
3.64
3.75
2.23
0.24
-0.55
0.94
4.47
8.54
11.09
10.73
7.40
2.44
-2.14
-4.80
-5.33
-4.74
-4.61
-6.04
-8.95
-12.04
-13.60
-12.47
-8.80
-3.96
0.19
2.43
2.80
2.62
3.46
6.09
9.84
12.96
13.68
11.43
7.41
3.91
3.15
6.04
11.60
17.51
21.30
21.60
18.68
14.27
10.63
9.44
11.03
14.40
17.70
19.28
18.38
15.46
11.78
8.57
6.38
4.82
2.99
0.28
-3.06
-5.90
-6.97
-5.68
-2.83
-0.47
-0.96
-5.72
-14.29
-24.19
-32.05
-35.26
-33.20
-27.60
-21.53
-17.68
-17.03
-18.38
-19.40
-18.12
-14.18
-8.91
-4.39
-2.10
-2.09
-3.09
-3.54
-2.73
-1.22
-0.39
-1.37
-4.05
-7.07
-8.42
-6.76
-2.15
3.93
9.35
12.52
13.10
11.91
10.38
9.60
9.80
10.33
10.21
8.68
5.71
2.02
-1.31
-3.41
-3.88
-3.01
-1.57
-0.33
0.22
0.13
-0.08
0.22
1.35
2.97
4.15
3.63
0.62
-4.60
-10.45
-14.53
-14.80
-10.63
-3.37
4.31
9.74
11.56
10.21
7.40
4.81
3.18
2.16
0.82
-1.28
-3.70
-5.32
-5.21
-3.29
-0.55
1.43
1.44
-0.78
-4.31
-7.54
-8.83
-7.36
-3.59
0.89
4.00
4.11
0.98
-4.11
-8.90
-11.27
-10.39
-7.07
-3.17
-0.49
0.44
0.49
1.31
3.97
8.10
11.89
13.08
10.30
4.05
-3.40
-9.14
-10.98
-8.60
-3.66
1.23
3.76
3.16
0.37
-2.52
-3.59
-1.98
1.59
5.34
7.45
7.00
4.47
1.17
-1.46
-2.83
-3.28
-3.81
-5.20
-7.35
-9.13
-8.88
-5.47
1.03
9.01
15.97
19.65
19.02
14.75
8.63
2.81
-1.21
-2.97
-3.06
-2.48
-2.15
-2.46
-3.15
-3.74
-3.82
-3.41
-2.89
-2.76
-3.34
-4.44
-5.44
-5.73
-5.27
-4.70
-5.07
-7.00
-10.11
-12.76
-12.98
-9.61
-3.02
4.67
10.69
12.92
10.91
6.10
0.92
-2.36
-2.69
-0.56
2.26
3.83
2.91
-0.46
-4.94
-8.62
-9.91
-8.31
-4.51
-0.02
3.72
6.10
7.43
8.64
10.34
12.41
13.84
13.45
10.69
6.19
1.52
-1.61
-2.38
-1.35
-0.11
-0.22
-2.15
-4.80
-5.98
-3.70
2.49
10.95
18.46
21.86
19.62
12.70
4.13
-2.46
-4.64
-2.20
2.95
7.93
10.43
9.84
7.18
4.36
2.83
2.76
3.04
2.19
-0.55
-4.67
-8.55
-10.46
-9.58
-6.49
-2.86
-0.44
0.03
-0.87
-1.55
-0.53
2.66
7.11
10.94
12.38
10.68
6.50
1.49
-2.64
-4.94
-5.58
-5.49
-5.71
-6.65
-7.88
-8.48
-7.74
-5.67
-3.05
-1.06
-0.63
-1.88
-4.16
-6.44
-7.91
-8.43
-8.52
-8.95
-10.16
-11.83
-12.91
-12.01
-8.19
-1.44
7.02
15.25
21.34
24.17
23.88
21.64
18.84
16.35
14.00
10.78
5.69
-1.54
-10.01
-17.85
-23.06
-24.46
-22.15
-17.33
-11.87
-7.37
-4.59
-3.32
-2.67
-1.69
0.10
2.41
4.41
5.17
4.24
1.98
-0.58
-2.20
-2.17
-0.74
1.01
1.77
0.77
-1.64
-4.26
-5.65
-5.08
-3.01
-0.82
0.03
-1.10
-3.53
-5.65
-5.92
-3.68
0.43
4.80
7.79
8.43
6.79
3.73
0.33
-2.71
-5.24
-7.47
-9.54
-11.30
-12.26
-12.03
-10.56
-8.41
-6.45
-5.50
-5.86
-7.13
-8.28
-8.15
-5.90
-1.53
3.98
8.99
11.75
11.21
7.53
2.11
-3.02
-6.11
-6.60
-5.14
-3.08
-1.53
-0.65
0.26
2.05
4.93
8.20
10.47
10.62
8.37
4.54
0.55
-2.42
-3.96
-4.49
-5.03
-6.52
-9.23
-12.73
-15.93
-17.62
-17.12
-14.54
-10.75
-6.80
-3.34
-0.22
3.22
7.57
12.53
16.70
18.22
15.82
9.68
1.63
-5.74
-10.37
-11.66
-10.53
-8.79
-7.81
-7.94
-8.33
-7.73
-5.33
-1.35
3.18
6.87
8.78
8.83
7.78
6.84
7.14
9.13
12.41
15.86
18.23
18.69
17.36
15.06
12.99
11.91
11.71
11.53
10.38
7.91
4.73
2.22
1.70
3.63
7.16
10.46
11.72
9.99
5.78
0.73
-3.25
-5.05
-4.91
-4.13
-4.20
-5.74
-7.97
-9.14
-7.57
-2.79
4.04
10.51
14.25
13.99
10.05
3.87
-2.99
-9.63
-15.97
-22.39
-28.97
-35.16
-39.85
-41.83
-40.36
-35.27
-26.85
-15.53
-1.85
13.27
28.22
40.60
47.76
47.68
39.78
25.01
5.36
-16.90
-39.55
-60.31
-76.59
-85.64
-85.38
-75.55
-58.41
-38.03
-18.65
-2.66
10.00
20.85
30.88
38.82
41.05
33.33
13.48
-16.56
-50.61
-80.02
-96.81
-96.38
-78.95
-49.11
-14.06
18.74
43.41
56.82
58.59
50.49
35.61
17.55
0.04
-13.45
-20.07
-18.15
-7.64
9.47
29.48
47.94
61.06
66.86
65.56
58.98
49.20
37.59
24.63
10.68
-3.15
-14.59
-21.11
-21.34
-16.22
-8.86
-2.98
-0.86
-2.17
-4.31
-4.23
-0.40
6.30
13.26
17.61
17.88
14.68
10.12
6.64
5.74
7.43
10.46
13.17
14.28
13.56
11.85
10.49
10.56
12.27
14.63
16.08
15.14
11.38
5.56
-0.73
-5.81
-8.73
-9.40
-8.59
-7.14
-5.67
-4.32
-2.86
-1.03
1.10
3.06
4.14
3.66
1.63
-1.20
-3.50
-4.08
-2.60
0.04
2.25
2.67
0.99
-1.66
-3.42
-2.92
-0.10
3.47
5.55
4.44
-0.03
-6.38
-12.31
-15.89
-16.43
-14.66
-12.12
-10.40
-10.26
-11.38
-12.68
-13.01
-11.87
-9.97
-8.93
-10.54
-15.82
-24.30
-34.20
-43.26
-49.80
-53.50
-55.32
-56.75
-58.65
-60.78
-61.96
-60.92
-57.04
-50.46
-41.38
-29.76
-15.26
2.20
21.81
41.74
59.90
75.12
88.28
102.67
122.41
150.97
189.66
237.10
289.85
343.39
392.81
433.25
460.66
472.14
467.38
449.56
424.97
401.00
383.28
373.03
363.80
346.76
313.56
260.00
187.89
104.00
16.76
-66.72
-142.39
-208.68
-264.68
-309.66
-342.94
-364.68
-376.49
-381.30
-382.63
-383.72
-386.65
-391.70
-398.07
-404.49
-410.09
-414.90
-419.81
-425.79
-433.64
-443.28
-453.29
-461.38
-464.93
-461.61
-449.94
-431.16
-405.78
-374.51
-338.12
-297.36
-253.15
-206.68
-159.50
-113.49
-70.69
-32.69
-0.81
24.26
42.58
54.82
61.99
65.22
65.43
63.25
59.23
53.60
46.57
38.53
29.96
21.38
13.30
5.86
-1.25
-8.57
-16.77
-26.21
-36.65
-47.26
-57.22
-65.72
-72.49
-78.03
-83.38
-89.78
-97.81
-107.07
-116.19
-123.18
-126.17
-124.04
-116.78
-104.94
-89.20
-69.21
-43.36
-8.94
37.48
99.58
180.80
283.67
408.67
551.16
702.08
848.37
975.53
1071.35
1129.10
1148.68
1135.13
1095.38
1035.21
958.22
866.38
761.97
648.88
532.42
417.95
309.31
208.19
114.71
28.78
-49.15
-117.89
-175.83
-221.92
-256.33
-280.55
-297.05
-308.47
-316.73
-322.72
-326.29
-326.76
-323.53
-316.61
-306.71
-295.08
-283.02
-271.38
-260.45
-249.94
-239.25
-227.89
-215.71
-202.93
-190.05
-177.59
-165.92
-155.13
-145.09
-135.54
-126.24
-117.09
-108.09
-99.35
-90.98
-83.06
-75.67
-68.83
-62.55
-56.83
-51.65
-46.98
-42.73
-38.84
-35.05
-31.48
-28.26
-25.49
-23.23
-21.45
-20.01
-18.71
-17.35
-15.81
-14.20
-12.74
-11.69
-11.27
-11.45
-11.96
-12.32
-12.11
-11.10
-9.54
-7.93
-6.96
-7.09
-8.35
-10.17
-11.67
-12.02
-10.82
-8.45
-5.78
-4.06
-4.10
-5.94
-8.74
-11.15
-12.01
-10.71
-7.58
-3.54
0.23
2.82
3.71
2.57
-0.48
-4.24
-5.93
-1.78
11.85
35.67
66.73
98.65
123.77
136.14
133.77
118.90
95.56
69.65
44.69
21.90
1.34
-16.78
-31.50
-41.56
-46.36
-46.59
-43.82
-40.35
-38.03
-37.44
-38.03
-38.61
-37.99
-35.63
-31.87
-27.46
-23.64
-21.24
-20.37
-20.46
-20.64
-20.13
-18.53
-16.04
-13.12
-10.51
-8.68
-7.71
-7.31
-7.02
-6.45
-5.41
-3.98
-2.34
-0.84
0.32
1.10
1.64
2.10
2.64
3.32
4.13
5.03
5.90
6.70
7.39
7.99
8.51
8.95
9.30
9.58
9.76
9.87
9.91
9.91
9.90
9.87
9.87
9.90
9.95
10.05
10.19
10.38
10.60
10.85
11.11
11.36
11.55
11.68
11.71
11.62
11.40
11.03
10.51
9.79
8.85
7.62
6.08
4.21
1.98
-0.60
-3.54
-6.81
-10.49
-14.61
-19.25
-24.49
-30.38
-36.92
-44.12
-51.95
-60.38
-69.40
-79.07
-89.47
-100.75
-113.03
-126.46
-141.15
-157.17
-174.55
-193.34
-213.42
-234.63
-256.54
-278.37
-298.88
-316.33
-328.76
-333.65
-328.41
-310.76
-279.26
-233.72
-175.46
-107.20
-32.70
43.75
117.96
186.04
244.58
290.75
322.27
337.73
336.76
320.35
291.00
252.48
209.36
166.25
127.10
94.65
70.32
54.24
45.81
44.34
49.43
60.95
78.72
101.99
129.08
157.53
184.52
207.47
224.82
236.28
242.57
245.06
245.45
245.54
246.85
249.48
251.15
246.98
230.69
197.00
144.48
77.11
2.89
-67.34
-124.21
-162.78
-183.15
-188.88
-184.36
-172.99
-156.83
-137.47
-116.79
-97.33
-81.56
-70.81
-64.79
-61.82
-59.60
-56.36
-51.47
-45.49
-39.81
-35.85
-34.29
-34.79
-36.22
-37.20
-36.72
-34.54
-31.14
-27.51
-24.60
-22.94
-22.46
-22.59
-22.58
-21.90
-20.39
-18.29
-16.08
-14.21
-12.96
-12.30
-12.02
-11.78
-11.35
-10.64
-9.73
-8.78
-7.93
-7.30
-6.85
-6.54
-6.32
-6.13
-5.94
-5.74
-5.53
-5.30
-5.07
-4.83
-4.60
-4.36
-4.13
-3.91
-3.69
-3.48
-3.28
-3.09
-2.90
-2.72
-2.53
-2.35
-2.16
-1.96
-1.78
-1.58
-1.39
-1.18
-0.97
-0.75
-0.57
-0.46
-0.45
-0.52
-0.64
-0.72
-0.68
-0.46
-0.09
0.33
0.72
0.96
1.02
0.99
0.97
1.10
1.47
2.02
2.64
3.14
3.36
3.29
3.06
2.97
3.30
4.21
5.63
7.19
8.44
8.98
8.75
8.13
7.77
8.41
10.44
13.60
17.07
19.77
20.86
20.23
18.70
17.81
19.21
23.89
31.52
40.60
48.97
54.61
56.63
55.54
52.78
49.85
47.52
45.08
40.69
32.14
18.06
-1.68
-25.94
-52.49
-77.88
-97.54
-106.18
-99.52
-76.39
-41.14
-2.62
27.52
39.10
27.89
-2.71
-43.29
-82.98
-113.88
-133.39
-143.78
-148.14
-148.57
-144.93
-135.75
-120.02
-98.65
-74.31
-49.68
-27.80
-9.15
7.41
23.46
40.01
56.53
71.24
82.07
87.60
87.71
84.06
79.10
75.16
73.66
74.74
77.48
80.48
82.67
83.44
83.31
83.16
83.74
85.16
86.85
87.78
86.42
81.61
72.57
59.30
42.39
22.82
1.66
-19.98
-40.80
-59.76
-75.74
-87.96
-95.90
-99.40
-98.57
-93.91
-86.22
-76.37
-65.33
-54.07
-43.67
-35.02
-28.71
-24.97
-23.52
-23.63
-24.51
-25.45
-26.01
-26.30
-26.97
-28.74
-32.25
-37.56
-44.12
-51.07
-57.71
-63.52
-68.46
-73.22
-78.77
-86.07
-95.63
-107.33
-121.11
-137.12
-155.83
-177.81
-203.76
-234.26
-269.52
-309.30
-352.53
-396.93
-438.28
-470.53
-486.93
-482.70
-457.35
-415.37
-364.77
-313.96
-268.33
-230.03
-199.27
-173.46
-149.15
-123.65
-95.73
-65.16
-31.80
4.95
45.88
91.64
142.02
195.35
248.52
298.02
340.95
375.97
403.28
424.37
441.42
456.20
469.22
479.94
487.67
492.40
494.76
495.29
493.43
487.76
476.25
457.49
432.02
402.74
373.53
347.13
323.57
300.36
275.61
248.58
220.27
192.90
168.57
147.86
128.97
108.93
85.81
62.84
45.36
38.17
42.91
57.20
75.25
89.64
94.26
86.78
73.06
60.48
53.82
53.66
57.79
63.37
68.29
71.94
75.29
85.04
105.66
136.56
172.41
206.25
231.94
245.09
243.82
200.40
109.45
-9.76
-125.52
-215.81
-276.60
-315.19
-340.90
-359.63
-373.01
-375.54
-364.07
-341.34
-314.55
-291.07
-274.93
-266.32
-262.86
-261.12
-254.68
-240.32
-219.65
-197.55
-178.95
-166.26
-159.21
-155.61
-152.75
-146.04
-132.83
-112.96
-87.90
-58.84
-27.15
4.62
31.98
49.32
53.50
44.50
25.18
3.45
-12.64
-18.38
-13.82
-2.99
8.87
18.55
24.97
28.34
28.77
25.52
18.19
8.63
1.29
1.70
13.65
36.45
64.69
90.42
106.10
107.79
96.40
76.45
52.55
29.92
10.59
-5.44
-18.67
-29.21
-36.66
-40.63
-41.52
-40.55
-39.23
-39.11
-40.71
-43.33
-45.73
-46.58
-45.19
-41.87
-37.87
-34.67
-33.67
-35.28
-38.70
-42.44
-44.87
-44.95
-42.66
-39.04
-35.41
-33.07
-32.45
-32.94
-33.18
-31.31
-25.08
-12.50
7.12
32.48
59.47
81.92
93.67
90.99
74.30
47.52
17.88
-7.68
-24.22
-29.29
-22.87
-6.37
17.18
43.21
66.02
80.22
82.27
71.43
51.14
26.60
2.89
-16.54
-29.99
-37.55
-40.35
-40.36
-39.69
-40.28
-43.02
-47.43
-52.16
-55.05
-53.93
-47.05
-33.90
-15.95
3.11
17.99
23.47
16.80
-0.46
-22.59
-41.87
-51.77
-49.86
-38.47
-22.80
-7.94
3.53
11.88
18.85
25.50
31.33
34.68
34.13
29.70
23.12
16.99
13.80
14.49
18.12
22.48
24.88
23.63
18.82
12.17
6.36
3.56
4.64
8.72
13.80
17.49
18.10
14.86
7.82
-2.25
-13.58
-23.21
-27.40
-22.84
-8.67
12.62
35.60
53.77
62.25
59.68
48.49
32.29
15.46
0.13
-13.62
-26.10
-36.57
-43.11
-43.80
-38.13
-27.53
-14.81
-3.08
5.20
8.84
7.60
2.03
-6.60
-16.36
-24.49
-28.51
-27.37
-21.92
-14.36
-7.24
-2.05
1.16
3.36
5.59
8.01
9.87
10.19
8.87
6.36
3.72
2.14
2.10
3.32
5.01
6.19
6.23
5.11
3.27
1.48
0.39
0.24
0.86
1.76
2.39
2.38
1.75
0.77
-0.15
-0.66
-0.67
-0.31
0.10
0.23
-0.09
-0.77
-1.58
-2.21
-2.41
-2.22
-1.87
-1.73
-2.11
-3.07
-4.37
-5.61
-6.32
-6.31
-5.74
-5.09
-4.98
-5.87
-7.77
-10.22
-12.47
-13.73
-13.64
-12.41
-10.85
-9.97
-10.62
-12.97
-16.45
-19.91
-22.28
-22.85
-21.59
-19.25
-16.86
-15.58
-16.52
-20.51
-27.60
-36.20
-42.76
-42.49
-31.28
-7.93
24.46
59.23
88.64
107.21
114.01
111.96
106.16
100.68
97.00
93.64
88.51
80.49
69.77
57.23
43.37
28.20
11.80
-5.10
-20.33
-31.85
-38.59
-41.06
-40.76
-39.12
-36.68
-33.18
-28.40
-23.20
-19.56
-19.31
-23.24
-29.92
-36.36
-39.63
-38.03
-31.92
-22.69
-12.81
-5.11
-3.04
-10.30
-29.43
-59.62
-95.28
-127.03
-144.94
-143.13
-122.52
-90.56
-57.42
-31.21
-14.77
-5.67
0.62
7.44
15.05
21.39
24.31
23.54
20.95
19.31
20.60
24.64
29.37
32.11
30.75
25.04
16.54
7.83
1.32
-1.67
-1.39
0.72
2.74
3.23
1.82
-0.85
-3.57
-5.26
-5.56
-4.72
-3.71
-3.66
-5.33
-8.87
-13.81
-19.41
-25.00
-30.35
-35.22
-39.82
-44.53
-49.59
-54.98
-60.51
-65.96
-71.24
-76.62
-81.75
-86.65
-91.42
-96.08
-100.59
-104.89
-108.98
-113.07
-117.69
-122.51
-127.49
-132.60
-137.45
-141.24
-142.69
-140.12
-131.19
-120.19
-108.38
-96.63
-85.31
-74.23
-62.56
-49.28
-33.62
-15.57
3.93
24.34
44.70
64.30
83.26
102.70
124.22
149.13
177.62
208.66
241.14
273.56
304.53
333.66
361.84
390.87
422.84
459.52
502.13
550.53
601.78
648.75
681.99
692.79
676.12
632.55
567.44
489.76
408.48
330.21
256.67
187.08
120.99
59.30
3.80
-45.16
-88.01
-126.83
-163.62
-201.22
-240.87
-280.86
-317.69
-347.83
-370.79
-387.11
-398.89
-396.32
-372.34
-329.43
-277.96
-228.03
-184.00
-152.70
-132.00
-120.94
-118.96
-127.67
-149.41
-179.75
-214.91
-240.86
-249.01
-237.81
-213.51
-183.82
-155.35
-131.45
-111.90
-95.07
-78.82
-63.57
-49.89
-38.74
-30.06
-23.98
-20.26
-17.78
-15.29
-11.51
-7.10
-2.98
-0.33
0.48
-0.74
-3.64
-7.18
-10.14
-11.36
-11.13
-10.34
-10.35
-12.14
-16.20
-22.31
-29.32
-35.73
-40.31
-42.85
-44.04
-45.14
-47.28
-51.26
-57.56
-66.47
-77.86
-90.41
-101.24
-106.10
-100.85
-83.52
-55.96
-23.72
6.07
27.59
38.63
40.99
38.75
35.88
34.45
34.38
34.62
34.64
34.92
36.59
40.34
45.83
51.71
56.37
58.55
58.15
56.09
53.84
52.65
53.03
54.55
56.03
56.15
53.94
49.19
42.45
34.64
26.68
19.05
11.75
4.36
-3.45
-11.80
-20.38
-28.58
-35.70
-41.25
-45.15
-47.78
-49.84
-51.76
-53.82
-55.96
-57.90
-59.30
-60.00
-60.25
-60.60
-61.80
-64.00
-67.09
-70.59
-73.76
-75.91
-76.75
-76.59
-76.28
-76.94
-78.76
-81.42
-83.83
-84.29
-81.01
-72.60
-58.27
-37.45
-13.58
11.82
38.27
66.15
96.71
131.58
172.38
219.92
273.41
329.66
383.72
429.04
459.54
471.81
466.48
448.11
423.40
398.78
378.31
363.38
352.72
343.74
333.96
321.71
306.21
287.12
264.38
238.03
208.71
177.45
145.67
115.22
87.46
62.79
40.15
16.99
-9.97
-43.44
-84.61
-132.46
-183.86
-234.37
-279.29
-315.21
-341.04
-358.51
-371.83
-386.51
-407.64
-438.07
-476.88
-519.03
-556.35
-579.91
-582.72
-561.80
-518.82
-459.07
-389.36
-315.91
-243.27
-174.40
-111.49
-56.62
-11.95
21.16
42.93
55.51
62.74
69.03
78.16
92.19
110.86
131.75
151.28
166.36
175.90
181.31
185.52
191.06
198.24
204.71
206.88
202.11
190.53
174.94
159.08
145.31
133.13
119.32
99.41
69.83
29.36
-20.31
-75.06
-129.15
-176.11
-209.98
-226.59
-224.78
-206.95
-178.61
-146.55
-116.96
-93.61
-77.57
-67.80
-62.38
-59.42
-57.23
-53.99
-47.69
-36.75
-21.10
-3.00
13.32
23.36
24.51
17.35
5.29
-7.22
-16.89
-22.67
-25.49
-26.72
-26.81
-24.91
-19.57
-9.97
3.25
18.05
31.84
42.40
48.55
50.22
48.03
42.83
35.36
26.23
15.95
5.09
-5.76
-16.07
-25.71
-35.09
-45.08
-56.51
-69.51
-83.02
-94.78
-101.92
-102.06
-94.38
-79.96
-61.52
-42.33
-25.19
-11.55
-1.48
5.93
11.79
16.97
21.92
26.85
31.93
37.24
42.57
47.27
50.26
50.54
47.71
42.41
36.27
31.35
29.27
30.51
34.06
37.87
39.77
38.32
33.45
26.34
18.85
12.67
8.59
6.35
4.98
3.32
0.51
-3.99
-10.45
-18.80
-28.30
-37.02
-41.77
-38.88
-25.71
-2.10
28.90
61.76
90.39
110.23
119.55
119.40
112.42
101.42
88.41
74.59
60.73
47.69
36.38
27.41
20.74
15.70
11.21
6.36
0.71
-5.53
-11.67
-16.86
-20.40
-22.08
-22.33
-22.07
-22.33
-23.78
-26.33
-29.10
-30.88
-30.67
-28.16
-23.83
-18.61
-13.45
-8.99
-5.50
-3.12
-1.94
-2.03
-3.29
-5.38
-7.70
-9.81
-11.54
-13.17
-15.27
-18.37
-22.81
-28.68
-35.85
-44.09
-53.09
-62.41
-71.54
-79.96
-87.24
-93.15
-97.51
-100.06
-100.31
-97.72
-91.83
-82.70
-71.01
-57.98
-45.09
-33.63
-24.47
-17.88
-13.51
-10.54
-7.86
-4.40
0.62
7.40
15.71
25.12
35.39
46.53
58.62
71.36
83.88
94.89
103.28
108.71
111.84
114.01
116.50
119.85
123.76
127.40
130.18
132.19
134.19
137.21
141.88
148.04
154.77
160.79
165.08
167.31
168.00
168.19
168.90
170.54
172.67
174.11
173.39
169.15
160.34
146.21
126.17
100.01
68.31
32.85
-3.44
-37.13
-65.31
-86.53
-101.10
-110.62
-117.02
-121.73
-125.32
-127.69
-128.61
-128.03
-126.23
-123.57
-120.23
-116.09
-110.74
-103.79
-95.00
-84.48
-72.61
-59.93
-46.95
-34.06
-21.55
-9.64
1.44
11.51
20.49
28.54
35.96
43.18
50.58
58.35
66.46
74.66
82.74
90.47
97.91
105.25
112.77
120.72
129.06
137.42
145.18
151.69
156.51
159.67
161.59
162.96
164.45
166.33
168.43
170.05
170.24
167.95
162.36
152.95
139.54
122.34
101.85
78.80
54.09
28.57
2.98
-22.14
-46.33
-69.00
-89.33
-106.48
-119.86
-129.56
-136.46
-141.92
-147.24
-153.11
-159.38
-165.19
-169.54
-171.76
-171.81
-170.31
-168.21
-166.31
-164.89
-163.44
-160.69
-154.97
-144.78
-129.41
-109.40
-86.35
-62.38
-39.33
-18.04
1.83
21.39
41.88
63.83
86.73
109.08
128.73
143.64
152.43
154.86
151.81
145.04
136.59
128.17
120.88
114.97
109.91
104.25
95.83
81.96
60.47
30.89
-4.70
-41.99
-76.21
-104.31
-126.47
-145.66
-165.52
-187.74
-210.72
-230.33
-242.28
-244.44
-237.81
-225.45
-210.43
-194.15
-176.26
-155.77
-132.68
-108.72
-86.97
-70.46
-60.95
-58.31
-60.77
-65.80
-71.13
-75.43
-78.42
-80.43
-81.67
-81.67
-78.91
-71.35
-57.29
-36.43
-10.43
17.35
42.84
62.73
75.43
81.33
82.18
80.13
76.88
73.44
70.21
67.42
65.27
63.95
63.50
63.66
63.92
63.58
61.75
57.50
50.07
39.21
25.46
10.29
-4.17
-15.72
-22.68
-24.37
-21.12
-13.91
-4.02
7.40
19.43
31.30
42.23
51.48
58.35
62.41
63.54
62.03
58.52
53.90
49.00
44.34
39.91
35.02
28.49
19.03
5.81
-11.09
-30.51
-50.47
-68.74
-83.47
-93.65
-99.13
-100.21
-97.29
-90.47
-79.55
-64.29
-44.82
-21.95
2.83
27.58
50.37
69.70
84.84
95.80
103.10
107.42
109.42
109.66
108.49
106.10
102.32
96.64
88.25
76.33
60.42
40.79
18.50
-4.92
-27.78
-48.74
-66.98
-82.19
-94.43
-103.84
-110.61
-114.86
-116.71
-116.27
-113.70
-109.28
-103.39
-96.45
-88.70
-80.11
-70.39
-59.14
-46.10
-31.43
-15.65
0.54
16.52
32.02
47.16
62.31
77.83
93.97
110.71
127.85
144.95
161.14
175.03
184.65
187.89
183.07
169.70
148.77
122.62
94.28
66.64
41.66
20.12
1.69
-14.61
-29.90
-45.09
-60.58
-76.30
-91.85
-106.80
-121.00
-134.65
-148.26
-162.39
-177.32
-192.75
-207.83
-221.25
-231.54
-237.31
-237.47
-231.35
-218.80
-200.29
-176.91
-150.27
-122.27
-94.73
-69.21
-46.82
-28.20
-13.44
-2.18
6.45
13.76
21.28
30.31
41.57
54.95
69.54
84.15
97.80
110.06
121.05
131.09
140.48
149.39
158.07
166.95
176.55
187.10
198.33
209.51
219.84
228.99
237.24
245.24
253.28
260.63
265.23
264.09
254.22
233.41
200.99
157.97
106.91
51.45
-4.22
-56.23
-101.46
-138.11
-165.67
-184.75
-196.56
-202.56
-204.11
-202.30
-198.10
-192.24
-185.48
-178.50
-171.96
-166.39
-162.21
-159.59
-158.42
-158.27
-158.38
-157.74
-155.23
-149.81
-140.70
-127.53
-110.42
-89.92
-66.81
-42.04
-16.48
9.13
34.34
58.84
82.51
105.36
127.44
148.85
169.72
190.30
210.81
231.52
252.56
273.91
295.13
315.35
333.32
347.68
357.30
361.54
360.22
353.33
340.79
322.25
297.18
265.34
227.02
182.96
134.08
81.19
25.07
-32.98
-90.56
-143.93
-188.77
-221.50
-240.67
-247.63
-246.05
-240.54
-235.20
-232.48
-233.08
-236.38
-241.10
-245.79
-248.96
-249.22
-245.46
-237.15
-224.67
-209.33
-193.06
-177.83
-165.05
-155.20
-147.89
-142.19
-136.97
-131.23
-124.31
-115.87
-106.04
-95.32
-84.56
-74.76
-66.87
-61.52
-58.87
-58.65
-60.33
-63.41
-67.51
-72.42
-77.89
-83.65
-89.39
-94.92
-100.17
-105.16
-109.81
-113.58
-115.36
-113.54
-106.61
-93.66
-74.74
-50.83
-23.58
5.12
33.48
59.96
83.34
102.18
115.10
121.31
121.10
115.82
107.35
97.47
87.09
76.34
63.87
48.38
29.94
10.99
-4.44
-12.47
-11.18
-1.86
11.75
23.22
26.31
17.54
-2.11
-28.10
-54.67
-76.68
-91.30
-97.31
-97.01
-94.66
-95.34
-103.05
-120.25
-147.25
-181.23
-216.79
-233.28
-212.89
-150.27
-59.09
36.16
114.23
164.56
193.88
210.93
222.92
232.02
237.51
236.06
227.60
214.88
202.06
193.00
188.89
189.19
190.12
186.86
176.04
158.21
137.08
117.47
102.95
93.88
88.59
83.45
75.10
62.04
45.72
29.49
16.72
9.47
7.51
9.38
12.74
15.37
15.87
14.18
10.99
7.18
3.48
0.20
-2.20
-3.24
-2.39
0.83
6.66
14.90
24.73
34.88
43.89
50.49
53.80
53.43
49.43
42.28
32.81
22.08
11.14
0.82
-8.50
-16.79
-24.05
-30.01
-34.02
-35.24
-33.09
-27.68
-19.99
-11.63
-4.48
-0.16
0.32
-3.19
-10.05
-18.87
-27.99
-35.76
-40.99
-43.19
-42.45
-39.23
-34.04
-27.30
-19.36
-10.57
-1.30
8.19
17.94
28.40
40.18
53.78
69.23
85.90
102.66
118.29
131.69
141.85
147.60
147.47
139.97
124.25
100.82
71.72
40.11
9.20
-18.73
-42.90
-63.85
-82.75
-100.34
-116.29
-128.98
-136.07
-135.43
-126.10
-108.93
-86.45
-62.43
-40.79
-24.67
-15.77
-14.24
-19.03
-28.52
-41.03
-55.25
-70.17
-84.92
-98.48
-109.66
-117.14
-119.65
-116.17
-106.02
-88.93
-64.99
-34.83
0.31
38.38
76.50
111.06
138.27
154.81
158.51
148.71
126.21
92.95
51.52
4.95
-43.43
-90.04
-131.43
-164.82
-188.87
-203.88
-211.55
-213.88
-212.19
-206.59
-196.71
-182.69
-166.13
-150.19
-138.47
-133.65
-136.31
-144.74
-155.74
-165.92
-172.82
-175.58
-174.78
-172.07
-169.46
-168.96
-172.29
-180.35
-192.65
-206.76
-218.39
-222.27
-213.72
-190.61
-154.72
-111.74
-69.40
-34.50
-10.32
4.36
14.14
24.57
39.83
61.29
87.68
116.63
146.51
177.29
209.93
244.78
280.27
313.32
340.06
357.36
364.44
363.49
358.62
353.47
348.70
341.59
329.24
309.72
283.34
252.59
221.29
193.05
169.66
150.52
133.71
119.82
110.08
104.80
102.35
100.14
96.30
90.56
84.07
79.08
81.75
98.12
131.35
179.77
237.81
297.59
350.40
388.30
386.67
332.86
234.63
119.21
15.80
-59.63
-106.38
-132.07
-145.19
-151.21
-148.97
-136.23
-113.53
-86.31
-61.63
-44.84
-37.53
-38.31
-44.02
-48.98
-49.01
-43.39
-36.00
-31.92
-34.74
-45.25
-61.99
-82.50
-103.31
-123.05
-137.94
-149.31
-160.16
-173.30
-190.44
-212.31
-238.56
-266.66
-292.22
-309.64
-314.24
-302.74
-274.66
-232.75
-182.31
-129.32
-78.18
-30.98
12.15
51.04
85.32
113.98
135.65
149.08
153.48
148.64
134.94
113.43
85.42
53.00
18.59
-15.48
-47.53
-76.86
-103.89
-130.16
-157.87
-189.38
-225.79
-265.87
-305.69
-339.31
-360.66
-365.52
-353.08
-325.84
-288.47
-245.86
-201.65
-157.76
-114.91
-73.40
-33.57
4.16
39.64
72.87
103.70
130.97
152.31
164.84
166.46
157.27
139.99
118.98
98.41
80.53
65.31
51.48
38.37
27.18
20.90
22.86
34.90
56.20
83.46
112.31
138.98
161.38
179.22
193.21
204.10
212.08
216.86
218.23
216.63
213.40
210.21
208.23
207.45
206.51
203.21
195.40
181.58
160.96
133.39
99.42
60.66
20.06
-18.26
-50.14
-72.86
-86.38
-93.28
-97.54
-102.65
-110.09
-119.08
-127.45
-132.92
-134.08
-130.61
-122.92
-111.70
-97.60
-81.19
-63.18
-44.61
-26.91
-11.62
0.04
7.71
12.21
15.13
18.17
22.10
26.08
27.92
25.10
16.42
2.93
-12.19
-24.97
-32.54
-34.29
-31.89
-28.06
-25.05
-23.68
-23.36
-22.92
-21.69
-19.83
-18.13
-17.31
-17.53
-18.33
-19.02
-19.18
-18.76
-18.04
-17.14
-16.02
-14.38
-11.98
-8.81
-5.20
-1.64
1.35
3.32
4.05
3.51
1.92
-0.27
-2.40
-3.64
-3.39
-1.29
2.50
7.42
12.80
18.03
22.83
27.20
31.30
35.30
39.29
43.29
47.30
51.39
55.50
59.27
61.79
61.73
57.59
48.30
33.63
14.47
-7.36
-29.57
-49.98
-66.99
-79.77
-88.28
-93.04
-94.85
-94.73
-93.57
-92.20
-91.13
-90.72
-91.04
-92.03
-93.43
-94.80
-95.56
-95.11
-93.05
-89.19
-83.61
-76.45
-67.78
-57.41
-44.99
-30.28
-13.36
5.01
23.58
40.74
55.11
65.97
73.53
78.77
83.09
87.65
92.88
98.30
102.67
104.47
102.38
95.68
84.46
69.39
51.57
32.29
12.79
-5.82
-22.72
-37.46
-50.08
-61.04
-71.11
-81.00
-91.07
-101.04
-110.07
-117.01
-120.83
-121.24
-118.89
-115.40
-112.76
-112.59
-115.33
-119.94
-124.20
-125.40
-121.33
-110.95
-94.71
-74.27
-51.86
-29.50
-8.38
11.30
30.11
48.89
68.20
88.07
108.14
127.97
147.31
166.21
184.73
202.70
219.56
234.65
247.64
258.87
269.23
279.66
290.61
301.82
312.48
321.75
329.07
334.27
337.08
336.71
331.50
319.26
297.94
266.54
225.51
176.73
122.87
66.71
10.64
-43.39
-93.82
-139.23
-178.51
-210.93
-236.25
-254.69
-266.75
-272.97
-273.90
-270.13
-262.51
-252.26
-240.89
-229.98
-220.78
-213.86
-208.92
-204.99
-200.88
-195.81
-189.73
-183.16
-176.56
-169.65
-161.21
-149.29
-132.08
-108.72
-79.83
-47.47
-14.47
16.48
43.43
65.42
82.26
94.22
101.72
105.41
106.14
104.96
103.00
101.02
99.15
96.90
93.45
88.20
81.26
73.58
66.64
61.97
60.75
63.49
69.86
78.59
87.72
95.06
98.83
98.17
93.30
84.93
73.65
59.39
41.63
20.24
-3.62
-27.30
-47.43
-61.29
-68.13
-69.31
-67.32
-64.51
-61.81
-58.81
-54.61
-48.86
-41.81
-33.69
-23.82
-10.59
7.20
28.73
50.35
66.68
73.12
68.37
55.23
39.14
25.28
16.12
10.74
6.16
-0.32
-9.38
-19.62
-28.66
-34.79
-37.83
-39.02
-39.97
-41.87
-44.90
-48.19
-50.49
-50.70
-48.42
-44.01
-38.50
-32.97
-28.16
-24.05
-20.05
-15.31
-9.29
-2.06
5.76
13.19
19.50
24.36
28.00
30.91
33.50
35.82
37.54
38.26
37.73
36.15
34.11
32.30
31.21
30.83
30.66
29.90
27.81
23.87
17.99
10.47
1.77
-7.49
-16.60
-24.79
-31.30
-35.50
-37.09
-36.20
-33.30
-29.09
-24.21
-19.13
-14.05
-9.03
-4.14
0.44
4.44
7.58
9.66
10.67
10.78
10.24
9.37
8.37
7.38
6.37
5.25
3.90
2.25
0.31
-1.83
-4.02
-6.13
-8.10
-9.96
-11.79
-13.69
-15.70
-17.76
-19.69
-21.18
-21.87
-21.42
-19.65
-16.60
-12.53
-7.87
-3.04
1.56
5.66
9.19
12.11
14.52
16.48
18.11
19.44
20.45
21.03
21.08
20.55
19.52
18.18
16.72
15.30
13.97
12.68
11.35
9.90
8.29
6.53
4.59
2.43
-0.05
-2.94
-6.25
-9.88
-13.56
-16.85
-19.22
-20.17
-19.40
-16.93
-13.08
-8.35
-3.26
1.76
6.51
10.87
14.77
18.07
20.59
22.16
22.71
22.38
21.43
20.19
18.92
17.70
16.48
15.15
13.58
11.73
9.67
7.53
5.49
3.67
2.10
0.66
-0.86
-2.75
-5.22
-8.34
-11.98
-15.88
-19.67
-22.98
-25.42
-26.68
-26.53
-24.90
-21.90
-17.84
-13.10
-8.08
-3.06
1.83
6.49
10.81
14.60
17.58
19.47
20.15
19.75
18.57
17.04
15.57
14.38
13.52
12.84
12.15
11.29
10.19
8.84
7.29
5.64
3.91
2.14
0.30
-1.65
-3.78
-6.15
-8.83
-11.85
-15.17
-18.61
-21.86
-24.46
-25.94
-25.93
-24.32
-21.26
-17.13
-12.40
-7.51
-2.75
1.74
5.92
9.79
13.27
16.23
18.47
19.82
20.19
19.69
18.55
17.06
15.50
13.99
12.58
11.20
9.79
8.32
6.80
5.25
3.64
1.95
0.17
-1.71
-3.64
-5.60
-7.56
-9.56
-11.67
-13.94
-16.40
-18.99
-21.45
-23.41
-24.40
-23.97
-21.90
-18.32
-13.67
-8.58
-3.67
0.73
4.52
7.82
10.77
13.35
15.43
16.80
17.31
16.96
15.91
14.41
12.76
11.19
9.86
8.83
8.02
7.25
6.31
5.02
3.31
1.28
-0.88
-2.93
-4.68
-6.10
-7.29
-8.47
-9.87
-11.66
-13.89
-16.43
-19.01
-21.17
-22.43
-22.35
-20.68
-17.49
-13.14
-8.16
-3.06
1.72
5.98
9.67
12.77
15.32
17.29
18.63
19.32
19.39
18.87
17.90
16.61
15.13
13.59
12.02
10.35
8.47
6.29
3.81
1.19
-1.36
-3.66
-5.63
-7.27
-8.68
-9.99
-11.34
-12.89
-14.82
-17.30
-20.37
-23.93
-27.63
-31.02
-33.56
-34.81
-34.52
-32.65
-29.40
-25.14
-20.30
-15.31
-10.53
-6.19
-2.39
0.81
3.36
5.18
6.21
6.40
5.80
4.57
2.96
1.23
-0.46
-2.05
-3.54
-4.94
-6.20
-7.15
-7.60
-7.39
-6.45
-4.85
-2.79
-0.52
1.64
3.38
4.47
4.76
4.28
3.31
2.32
1.92
2.68
4.99
8.90
14.16
20.35
27.02
33.89
40.83
47.81
54.75
61.39
67.28
71.83
74.44
74.64
72.21
67.34
60.59
52.78
44.79
37.23
30.37
24.02
17.77
11.33
4.59
-2.23
-8.82
-14.90
-20.38
-25.28
-29.68
-33.52
-36.69
-39.07
-40.63
-41.55
-42.21
-43.05
-44.44
-46.49
-48.90
-51.06
-52.19
-51.55
-48.77
-44.03
-37.94
-31.35
-25.05
-19.47
-14.68
-10.48
-6.61
-2.95
0.42
3.28
5.41
6.73
7.34
7.45
7.31
7.07
6.79
6.47
6.06
5.58
5.09
4.65
4.31
4.04
3.73
3.26
2.52
1.48
0.21
-1.20
-2.68
-4.21
-5.89
-7.82
-10.06
-12.53
-14.96
-16.95
-18.08
-18.01
-16.62
-14.01
-10.48
-6.46
-2.35
1.50
4.83
7.52
9.52
10.82
11.50
11.66
11.42
10.91
10.25
9.53
8.78
8.00
7.19
6.31
5.32
4.16
2.78
1.12
-0.82
-2.95
-5.18
-7.45
-9.78
-12.16
-14.59
-17.01
-19.34
-21.46
-23.32
-24.86
-26.05
-26.74
-26.71
-25.69
-23.43
-19.96
-15.49
-10.43
-5.29
-0.50
3.73
7.33
10.35
12.83
14.64
15.65
15.73
14.92
13.49
11.87
10.45
9.48
8.97
8.80
8.75
8.64
8.40
7.98
7.35
6.45
5.26
3.78
2.12
0.36
-1.39
-3.13
-4.91
-6.83
-8.95
-11.26
-13.57
-15.57
-16.80
-16.93
-15.75
-13.33
-9.97
-6.13
-2.24
1.41
4.68
7.49
9.78
11.48
12.52
12.91
12.71
12.05
11.06
9.90
8.65
7.37
6.11
4.91
3.83
2.87
2.03
1.24
0.38
-0.65
-1.92
-3.43
-5.08
-6.73
-8.21
-9.38
-10.28
-11.07
-11.96
-13.14
-14.64
-16.23
-17.50
-17.97
-17.31
-15.46
-12.65
-9.32
-5.90
-2.71
0.11
2.54
4.66
6.46
7.92
9.00
9.76
10.20
10.36
10.26
9.90
9.29
8.44
7.45
6.41
5.37
4.32
3.21
2.00
0.72
-0.55
-1.69
-2.61
-3.36
-4.06
-4.90
-6.04
-7.57
-9.50
-11.73
-14.10
-16.39
-18.30
-19.48
-19.56
-18.27
-15.59
-11.80
-7.34
-2.82
1.33
4.81
7.63
9.89
11.76
13.28
14.40
15.02
15.13
14.80
14.21
13.55
12.88
12.16
11.19
9.86
8.16
6.23
4.33
2.65
1.23
-0.06
-1.43
-3.06
-4.99
-7.21
-9.62
-12.17
-14.83
-17.56
-20.21
-22.52
-24.11
-24.65
-23.89
-21.85
-18.79
-15.14
-11.35
-7.77
-4.53
-1.60
1.13
3.74
6.12
8.05
9.28
9.65
9.26
8.32
7.17
6.12
5.34
4.89
4.72
4.71
4.74
4.64
4.25
3.46
2.26
0.76
-0.84
-2.37
-3.74
-5.05
-6.43
-8.06
-10.03
-12.24
-14.47
-16.31
-17.36
-17.26
-15.83
-13.09
-9.34
-5.01
-0.60
3.40
6.69
9.11
10.60
11.20
10.97
9.90
8.09
5.71
2.97
0.15
-2.43
-4.52
-5.92
-6.54
-6.44
-5.79
-4.86
-3.92
-3.12
-2.48
-1.83
-0.97
0.23
1.72
3.28
4.59
5.36
5.46
5.00
4.17
3.32
2.82
2.93
3.86
5.58
7.90
10.49
12.98
15.05
16.50
17.32
17.55
17.32
16.74
15.97
15.07
14.12
13.12
12.05
10.86
9.56
8.22
6.94
5.80
4.83
3.96
3.08
2.13
1.11
0.01
-1.11
-2.29
-3.60
-5.13
-6.92
-8.94
-11.09
-13.23
-15.29
-17.26
-19.14
-20.88
-22.26
-22.86
-22.33
-20.38
-17.03
-12.66
-7.78
-2.93
1.47
5.21
8.25
10.64
12.41
13.65
14.37
14.59
14.36
13.71
12.75
11.59
10.39
9.25
8.23
7.39
6.71
6.19
5.79
5.43
4.91
4.04
2.65
0.73
-1.60
-4.04
-6.34
-8.40
-10.25
-12.09
-14.08
-16.26
-18.55
-20.72
-22.42
-23.35
-23.24
-21.96
-19.50
-15.96
-11.61
-6.73
-1.68
3.23
7.70
11.54
14.59
16.78
18.15
18.81
18.91
18.62
18.02
17.12
15.93
14.43
12.72
10.97
9.44
8.31
7.63
7.27
6.93
6.35
5.39
4.06
2.50
0.82
-0.90
-2.66
-4.47
-6.31
-8.13
-9.92
-11.67
-13.43
-15.14
-16.63
-17.57
-17.55
-16.28
-13.69
-10.02
-5.74
-1.35
2.71
6.20
8.99
11.07
12.45
13.17
13.26
12.84
12.11
11.25
10.38
9.55
8.70
7.74
6.62
5.31
3.88
2.46
1.11
-0.10
-1.24
-2.35
-3.57
-4.91
-6.41
-7.97
-9.52
-11.00
-12.37
-13.68
-14.96
-16.23
-17.42
-18.37
-18.83
-18.57
-17.35
-15.05
-11.74
-7.71
-3.37
0.83
4.51
7.53
9.84
11.51
12.62
13.22
13.32
12.99
12.39
11.69
11.08
10.69
10.53
10.54
10.61
10.62
10.43
9.95
9.07
7.72
5.92
3.74
1.32
-1.22
-3.74
-6.21
-8.62
-10.98
-13.34
-15.68
-17.98
-20.12
-21.89
-22.98
-23.03
-21.79
-19.19
-15.43
-10.91
-6.18
-1.69
2.28
5.66
8.49
10.77
12.44
13.37
13.52
12.98
11.98
10.87
9.91
9.24
8.77
8.36
7.86
7.22
6.47
5.73
5.07
4.46
3.82
2.97
1.78
0.17
-1.78
-3.92
-6.08
-8.10
-9.91
-11.55
-13.08
-14.57
-15.97
-17.12
-17.68
-17.35
-15.92
-13.42
-10.08
-6.32
-2.55
0.91
3.87
6.29
8.19
9.61
10.60
11.20
11.50
11.55
11.44
11.19
10.83
10.35
9.77
9.10
8.33
7.42
6.26
4.81
3.06
1.11
-0.90
-2.80
-4.50
-5.97
-7.26
-8.47
-9.68
-10.96
-12.39
-14.05
-15.95
-17.97
-19.82
-21.05
-21.21
-19.95
-17.26
-13.39
-8.81
-4.05
0.46
4.45
7.84
10.63
12.89
14.66
15.98
16.89
17.40
17.52
17.28
16.71
15.88
14.83
13.61
12.28
10.88
9.41
7.92
6.43
4.93
3.41
1.80
0.06
-1.79
-3.71
-5.61
-7.36
-8.93
-10.34
-11.69
-13.10
-14.62
-16.16
-17.49
-18.24
-18.02
-16.58
-13.83
-9.99
-5.44
-0.67
3.91
8.05
11.64
14.70
17.24
19.25
20.73
21.68
22.17
22.27
22.10
21.66
20.98
20.00
18.79
17.56
16.59
16.14
16.25
16.61
16.61
15.42
12.32
6.97
-0.40
-9.10
-18.13
-26.61
-33.97
-40.12
-45.39
-50.31
-55.33
-60.56
-65.66
-69.90
-72.34
-72.14
-68.97
-63.15
-55.65
-47.72
-40.45
-34.40
-29.45
-25.13
-21.03
-17.16
-13.86
-11.58
-10.38
-9.74
-8.71
-6.44
-2.51
2.74
8.49
13.71
17.56
19.40
18.76
15.26
8.74
-0.40
-11.00
-21.23
-29.18
-33.72
-34.99
-34.36
-33.56
-33.75
-34.84
-35.74
-35.26
-32.99
-29.64
-26.53
-24.80
-24.77
-25.94
-27.56
-29.33
-31.77
-35.89
-42.53
-51.62
-61.95
-71.34
-77.16
-77.04
-69.41
-53.85
-31.13
-3.06
27.91
59.00
87.42
110.42
125.59
131.20
126.68
112.88
91.93
66.70
40.09
14.36
-9.10
-29.71
-47.48
-62.65
-75.48
-86.01
-93.92
-98.40
-98.37
-92.82
-81.28
-64.23
-43.41
-21.85
-3.47
7.80
9.41
1.68
-11.58
-23.84
-28.19
-20.25
-0.29
26.73
53.20
72.27
80.63
79.46
73.19
66.99
64.51
66.74
72.65
80.42
88.71
97.11
105.72
114.45
122.57
128.81
131.96
131.59
128.34
123.70
119.35
116.43
115.14
114.83
114.44
113.15
110.67
107.43
104.31
102.32
102.13
103.93
107.27
111.24
114.87
117.36
118.23
117.32
114.68
110.45
104.73
97.57
89.02
79.20
68.37
57.01
45.72
35.10
25.53
17.14
9.80
3.28
-2.65
-8.21
-13.67
-19.34
-25.46
-32.06
-38.74
-44.75
-49.28
-51.76
-52.09
-50.52
-47.39
-42.83
-36.77
-29.12
-20.07
-10.20
-0.37
8.63
16.43
23.20
29.63
36.50
44.39
53.40
62.96
72.09
79.63
84.71
86.98
86.61
83.99
79.37
72.56
62.90
49.62
32.15
10.54
-14.50
-41.65
-69.15
-95.07
-117.72
-136.04
-150.03
-160.89
-170.65
-181.41
-194.38
-209.17
-223.88
-235.75
-242.49
-243.37
-239.81
-235.05
-232.84
-235.83
-244.23
-255.34
-264.34
-265.69
-254.91
-229.82
-190.96
-141.45
-86.09
-30.41
20.30
61.84
91.75
109.50
116.19
113.97
105.22
91.97
75.80
57.97
39.71
22.28
6.86
-5.75
-15.13
-21.34
-24.62
-25.32
-23.78
-20.38
-15.55
-9.81
-3.70
2.37
8.24
14.00
19.83
25.61
30.84
34.80
37.20
39.00
42.79
52.22
70.69
99.61
137.15
178.10
214.99
240.21
248.25
237.15
208.93
168.61
122.57
76.72
35.26
0.29
-27.84
-49.63
-65.64
-76.06
-80.81
-79.95
-73.97
-63.89
-51.17
-37.39
-24.02
-12.29
-3.00
3.52
7.39
9.20
9.85
10.41
11.91
15.05
19.80
25.13
29.01
29.05
23.40
11.80
-4.05
-20.94
-35.24
-44.32
-47.29
-45.03
-39.50
-32.80
-26.55
-21.76
-19.09
-19.00
-21.81
-27.36
-34.93
-43.24
-50.83
-56.59
-60.21
-62.21
-63.69
-65.77
-69.05
-73.18
-76.93
-78.52
-76.22
-68.96
-56.76
-40.83
-23.31
-6.69
6.82
15.96
20.74
22.30
22.31
22.22
22.62
23.11
22.69
20.49
16.47
11.61
7.57
5.95
7.66
12.56
19.57
27.29
34.50
40.59
45.46
49.23
51.96
53.57
53.96
53.27
52.03
50.97
50.62
50.94
51.18
50.21
47.00
41.19
33.32
24.60
16.40
9.75
5.06
2.08
0.22
-1.15
-2.51
-4.09
-6.05
-8.45
-11.29
-14.48
-17.75
-20.70
-22.99
-24.45
-25.20
-25.59
-25.99
-26.64
-27.56
-28.66
-29.85
-31.18
-32.76
-34.65
-36.71
-38.68
-40.32
-41.46
-42.13
-42.34
-41.93
-40.41
-37.03
-31.15
-22.65
-12.25
-1.39
8.12
14.79
17.88
17.69
15.37
12.45
10.39
10.15
12.11
16.09
21.52
27.62
33.53
38.47
41.91
43.60
43.56
42.05
39.39
35.93
32.01
28.15
24.90
22.80
22.18
22.99
24.81
26.96
28.75
29.62
29.27
27.67
24.97
21.48
17.55
13.50
9.60
5.93
2.48
-0.84
-4.05
-6.97
-9.25
-10.39
-9.99
-7.96
-4.57
-0.40
3.85
7.56
10.39
12.30
13.36
13.72
13.48
12.76
11.74
10.66
9.75
9.15
8.76
8.28
7.37
5.72
3.30
0.32
-2.88
-5.94
-8.65
-11.01
-13.24
-15.69
-18.69
-22.32
-26.41
-30.43
-33.67
-35.40
-35.14
-32.71
-28.30
-22.41
-15.72
-8.97
-2.90
1.93
5.19
6.83
7.16
6.68
5.97
5.50
5.49
5.93
6.61
7.26
7.65
7.61
7.06
5.98
4.42
2.46
0.18
-2.29
-4.92
-7.67
-10.51
-13.41
-16.16
-18.45
-19.83
-19.95
-18.69
-16.26
-13.12
-9.81
-6.73
-4.03
-1.72
0.29
1.94
3.01
3.22
2.36
0.48
-2.10
-4.83
-7.11
-8.44
-8.57
-7.53
-5.57
-3.16
-0.86
0.69
0.98
-0.32
-3.27
-7.65
-13.06
-19.00
-24.97
-30.50
-35.12
-38.43
-40.10
-39.89
-37.79
-34.04
-29.12
-23.59
-18.03
-12.88
-8.41
-4.77
-2.03
-0.20
0.75
0.90
0.43
-0.46
-1.49
-2.49
-3.34
-4.06
-4.69
-5.29
-5.87
-6.34
-6.58
-6.50
-6.14
-5.69
-5.51
-5.98
-7.35
-9.60
-12.33
-14.90
-16.60
-16.92
-15.72
-13.24
-9.96
-6.44
-3.02
0.16
3.05
5.63
7.72
9.02
9.28
8.46
6.76
4.62
2.49
0.67
-0.73
-1.81
-2.76
-3.70
-4.68
-5.67
-6.66
-7.73
-9.02
-10.77
-13.21
-16.40
-20.17
-24.07
-27.42
-29.50
-29.82
-28.21
-24.94
-20.55
-15.69
-10.90
-6.43
-2.35
1.39
4.81
7.79
10.17
11.76
12.52
12.56
12.10
11.38
10.56
9.75
8.97
8.27
7.69
7.28
7.02
6.77
6.30
5.42
4.04
2.28
0.49
-0.86
-1.29
-0.41
2.03
6.08
11.56
18.07
24.98
31.59
37.27
41.63
44.58
46.23
46.72
46.01
43.90
40.11
34.51
27.31
18.95
10.11
1.44
-6.55
-13.57
-19.47
-24.20
-27.76
-30.22
-31.64
-32.14
-31.86
-31.02
-29.82
-28.49
-27.17
-25.93
-24.79
-23.77
-22.91
-22.32
-21.98
-21.73
-21.25
-20.12
-18.02
-14.89
-10.92
-6.48
-1.89
2.67
7.19
11.73
16.22
20.45
24.05
26.70
28.27
28.82
28.61
27.94
27.02
25.90
24.55
22.96
21.17
19.35
17.62
16.05
14.59
13.05
11.20
8.90
6.10
2.93
-0.51
-4.14
-7.90
-11.80
-15.65
-19.10
-21.59
-22.63
-21.92
-19.60
-16.15
-12.18
-8.21
-4.46
-0.88
2.70
6.29
9.73
12.69
14.82
15.89
15.89
15.07
13.76
12.21
10.57
8.85
7.01
5.12
3.35
1.99
1.34
1.57
2.65
4.30
6.17
7.84
8.99
9.36
8.79
7.17
4.54
1.10
-2.69
-6.20
-8.77
-9.88
-9.32
-7.20
-3.92
0.09
4.45
8.87
13.09
16.81
19.69
21.45
21.96
21.33
19.90
18.08
16.28
14.75
13.57
12.69
11.91
11.02
9.87
8.39
6.70
4.99
3.52
2.44
1.76
1.38
1.06
0.59
-0.18
-1.22
-2.39
-3.37
-3.80
-3.31
-1.72
1.00
4.63
8.84
13.33
17.94
22.65
27.53
32.60
37.79
42.90
47.69
51.98
55.70
58.90
61.67
64.21
66.77
69.77
73.70
78.96
85.71
93.72
102.35
110.66
117.57
122.13
123.63
121.68
116.20
107.42
95.84
82.18
67.27
51.98
37.14
23.45
11.52
1.79
-5.50
-10.49
-13.55
-15.28
-16.32
-17.08
-17.75
-18.36
-18.91
-19.48
-20.42
-22.13
-24.94
-28.93
-33.78
-38.88
-43.49
-46.99
-49.07
-49.81
-49.58
-48.87
-48.17
-47.75
-47.70
-47.80
-47.68
-46.83
-44.84
-41.52
-37.03
-31.88
-26.71
-22.15
-18.56
-15.97
-14.20
-12.95
-11.94
-10.89
-9.66
-8.07
-6.06
-3.63
-0.93
1.83
4.36
6.31
7.34
7.10
5.34
1.86
-3.38
-10.34
-18.88
-28.80
-39.69
-50.93
-61.75
-71.35
-79.05
-84.44
-87.39
-87.98
-86.49
-83.34
-79.05
-74.24
-69.49
-65.26
-61.79
-59.10
-57.04
-55.33
-53.67
-51.79
-49.53
-46.90
-44.09
-41.36
-38.97
-36.91
-34.89
-32.44
-29.10
-24.72
-19.47
-13.72
-7.81
-1.96
3.80
9.51
15.05
20.10
24.15
26.77
27.84
27.63
26.76
25.97
25.84
26.60
28.10
29.80
31.10
31.38
30.16
27.20
22.51
16.36
9.26
1.82
-5.39
-12.03
-18.00
-23.46
-28.78
-34.45
-41.06
-49.26
-59.45
-71.71
-85.65
-100.50
-115.45
-129.96
-144.01
-158.14
-173.07
-189.33
-206.97
-225.45
-243.66
-260.20
-273.68
-282.89
-286.99
-285.42
-277.88
-264.11
-243.96
-217.43
-184.94
-147.45
-106.56
-64.24
-22.52
16.98
53.11
85.16
112.66
135.22
152.59
164.75
172.13
175.58
176.11
174.62
171.64
167.30
161.61
154.68
146.88
138.74
130.74
123.16
116.05
109.39
103.24
97.74
93.05
89.19
86.02
83.31
80.93
78.94
77.63
77.40
78.56
81.32
85.70
91.55
98.45
105.76
112.63
118.17
121.73
123.07
122.45
120.45
117.71
114.59
111.09
107.03
102.31
97.25
92.56
89.20
87.88
88.80
91.54
95.35
99.57
103.92
108.59
113.92
120.06
126.73
133.26
138.80
142.57
143.91
142.12
136.23
125.12
107.83
84.18
55.06
22.24
-12.18
-46.44
-79.58
-111.26
-141.31
-169.21
-193.82
-213.61
-227.15
-233.62
-233.04
-226.21
-214.40
-199.08
-181.54
-162.75
-143.34
-123.70
-104.11
-84.86
-66.26
-48.55
-31.81
-15.92
-0.65
14.11
28.20
41.00
51.63
59.06
62.67
62.37
58.78
52.92
45.75
37.88
29.34
19.87
9.29
-2.05
-13.19
-22.78
-29.61
-32.95
-32.82
-29.81
-24.83
-18.75
-12.21
-5.70
0.44
5.80
10.00
12.75
13.98
13.87
12.79
11.15
9.26
7.26
5.19
3.01
0.78
-1.48
-3.69
-5.86
-8.02
-10.15
-12.15
-13.91
-15.38
-16.65
-17.94
-19.57
-21.74
-24.51
-27.66
-30.76
-33.25
-34.60
-34.35
-32.33
-28.63
-23.63
-17.89
-12.07
-6.72
-2.27
1.08
3.34
4.62
5.17
5.26
5.14
4.97
4.82
4.69
4.54
4.30
3.85
3.10
1.98
0.44
-1.45
-3.49
-5.48
-7.23
-8.69
-9.91
-11.11
-12.52
-14.38
-16.85
-19.90
-23.29
-26.52
-28.93
-29.88
-28.98
-26.29
-22.33
-17.83
-13.41
-9.42
-5.76
-2.10
1.89
6.21
10.47
14.10
16.62
17.80
17.79
17.02
15.96
14.89
13.82
12.61
11.13
9.41
7.73
6.47
5.93
6.17
6.95
7.78
8.22
7.99
7.12
5.84
4.39
2.93
1.39
-0.39
-2.52
-4.94
-7.40
-9.53
-10.97
-11.41
-10.69
-8.75
-5.61
-1.42
3.41
8.24
12.26
14.71
15.21
13.90
11.48
8.81
6.61
5.03
3.66
1.74
-1.43
-6.18
-12.29
-19.13
-25.82
-31.49
-35.46
-37.33
-37.12
-35.26
-32.59
-30.04
-28.33
-27.60
-27.28
-26.28
-23.44
-18.02
-10.00
-0.05
10.75
21.33
30.92
39.19
46.19
52.06
56.93
60.74
63.38
64.64
64.39
62.55
59.22
54.57
48.94
42.71
36.26
29.90
23.79
17.93
12.28
6.78
1.36
-3.94
-9.06
-13.87
-18.22
-22.03
-25.26
-28.01
-30.41
-32.57
-34.42
-35.72
-36.07
-35.09
-32.59
-28.65
-23.51
-17.47
-10.80
-3.74
3.47
10.48
16.83
22.06
25.76
27.80
28.38
27.96
27.13
26.44
26.21
26.50
27.11
27.71
28.00
27.80
27.13
26.10
24.90
23.68
22.53
21.44
20.34
19.05
17.39
15.11
12.11
8.40
4.25
0.19
-3.02
-4.60
-3.90
-0.62
5.14
12.89
21.95
31.64
41.43
51.07
60.43
69.49
78.13
86.21
93.49
99.71
104.66
108.27
110.67
112.09
112.80
112.71
111.26
107.40
99.87
87.72
70.70
49.45
25.32
0.11
-24.45
-46.83
-65.88
-80.94
-91.85
-99.02
-103.42
-106.30
-108.71
-111.24
-113.74
-115.43
-115.35
-112.78
-107.60
-100.32
-91.94
-83.61
-76.22
-70.20
-65.49
-61.72
-58.59
-56.12
-54.77
-55.29
-58.30
-63.83
-70.90
-77.50
-80.93
-78.49
-68.26
-49.63
-23.54
7.87
41.78
75.36
106.18
132.43
152.89
166.84
173.91
174.07
167.51
154.67
136.25
113.17
86.72
58.47
30.29
4.01
-18.86
-37.44
-51.56
-61.64
-68.29
-72.01
-73.06
-71.57
-67.77
-62.22
-55.71
-49.12
-43.08
-37.80
-33.14
-28.81
-24.64
-20.70
-17.23
-14.44
-12.36
-10.75
-9.26
-7.62
-5.85
-4.28
-3.40
-3.66
-5.20
-7.86
-11.19
-14.74
-18.23
-21.62
-24.96
-28.16
-30.91
-32.60
-32.61
-30.57
-26.53
-21.02
-14.78
-8.55
-2.83
2.14
6.31
9.72
12.34
14.16
15.21
15.64
15.66
15.51
15.41
15.47
15.74
16.21
16.85
17.59
18.30
18.79
18.90
18.57
17.90
17.20
16.81
16.97
17.70
18.75
19.76
20.50
21.02
21.77
23.52
27.15
33.32
42.26
53.72
66.91
80.89
94.80
108.05
120.56
132.70
145.39
159.83
176.94
196.41
216.08
231.89
238.92
233.12
212.77
179.16
135.88
87.40
37.75
-9.92
-53.00
-88.89
-114.89
-128.85
-130.05
-119.57
-99.76
-73.03
-41.13
-5.25
32.84
69.98
101.35
121.87
128.05
119.53
99.22
72.04
42.97
15.68
-7.66
-25.59
-36.54
-38.97
-32.37
-18.42
-1.28
13.54
21.19
19.35
8.66
-8.31
-28.70
-50.84
-74.10
-97.94
-120.69
-139.27
-150.01
-150.36
-140.03
-121.18
-97.28
-71.45
-45.40
-19.02
8.62
38.12
68.77
98.52
124.54
144.07
155.00
156.13
147.12
128.27
100.45
64.89
23.10
-22.98
-70.97
-117.89
-160.39
-195.35
-220.70
-236.10
-242.97
-243.91
-241.51
-237.37
-231.81
-224.53
-215.46
-205.43
-195.91
-188.07
-182.02
-176.51
-169.74
-160.51
-149.29
-138.06
-129.48
-125.66
-127.14
-132.61
-139.29
-143.52
-141.15
-128.37
-102.86
-65.42
-20.88
22.40
54.92
69.23
62.65
38.07
2.33
-36.72
-73.08
-103.89
-128.98
-149.47
-166.35
-180.12
-191.06
-199.91
-207.88
-216.10
-224.66
-232.03
-235.36
-231.36
-217.66
-193.89
-162.05
-125.48
-87.71
-51.37
-17.86
12.12
38.09
59.49
76.02
88.33
98.29
108.40
120.76
136.12
153.68
171.70
188.55
203.39
216.19
227.15
236.02
241.89
243.69
241.08
235.07
228.14
223.57
224.20
231.43
244.77
262.01
279.98
295.47
305.93
309.68
305.74
293.55
272.93
244.26
208.74
168.40
125.62
82.55
40.65
0.93
-35.47
-66.61
-89.86
-102.68
-103.74
-93.90
-76.22
-54.81
-33.30
-13.71
3.85
20.49
37.43
55.21
73.44
91.12
106.93
119.45
127.07
128.03
120.83
104.82
80.75
50.95
18.68
-12.80
-41.33
-66.50
-89.67
-113.35
-139.98
-170.56
-203.66
-235.44
-260.74
-275.01
-276.09
-265.04
-245.46
-221.91
-197.91
-175.10
-153.38
-131.99
-110.75
-90.18
-71.07
-53.76
-37.81
-22.37
-7.01
7.94
21.37
31.76
38.01
40.06
38.82
35.66
31.78
27.49
22.38
15.57
5.96
-6.90
-22.25
-38.27
-52.60
-62.99
-68.31
-68.50
-64.48
-58.66
-53.33
-49.50
-46.59
-43.01
-36.73
-27.08
-14.19
1.06
15.30
25.27
29.47
28.61
24.61
20.29
16.26
12.53
8.77
1.29
-13.06
-34.60
-60.48
-86.59
-108.53
-126.30
-141.26
-154.81
-171.72
-195.16
-224.33
-255.05
-283.19
-305.36
-323.90
-341.69
-333.79
-284.60
-196.52
-90.57
8.03
72.56
110.50
133.52
153.36
179.66
217.19
263.40
312.47
357.87
393.45
416.48
424.24
418.60
405.83
391.19
379.95
377.70
389.66
418.55
463.97
518.14
569.70
606.37
615.82
590.76
532.23
448.97
353.32
257.15
166.54
83.34
6.97
-64.02
-129.71
-188.25
-236.64
-272.43
-294.58
-304.63
-305.66
-301.63
-297.37
-297.39
-304.88
-320.71
-343.27
-368.67
-391.65
-406.30
-407.26
-391.20
-358.22
-312.28
-260.27
-210.08
-168.07
-137.44
-117.86
-106.39
-99.14
-92.74
-85.20
-75.96
-65.46
-54.56
-44.08
-34.55
-26.12
-18.77
-12.46
-7.14
-2.82
0.55
3.14
5.23
7.05
8.65
9.90
10.53
10.48
9.89
9.04
8.20
7.35
6.20
4.29
1.31
-2.79
-7.73
-13.14
-18.61
-23.84
-28.59
-32.64
-35.72
-37.56
-37.93
-36.86
-34.69
-32.10
-29.98
-29.27
-30.60
-34.01
-38.88
-44.11
-48.55
-51.39
-52.41
-51.97
-50.67
-49.02
-47.18
-44.81
-41.28
-35.90
-28.26
-18.43
-7.06
4.65
15.50
24.89
33.38
43.12
57.45
80.07
113.47
157.39
208.03
258.52
300.69
327.79
336.75
329.14
310.22
286.50
263.01
241.36
219.78
194.72
163.31
125.28
83.17
41.23
3.33
-28.83
-56.13
-81.10
-106.26
-132.54
-158.52
-181.14
-197.06
-204.16
-202.59
-194.69
-184.16
-174.86
-169.64
-169.90
-175.82
-186.87
-202.40
-221.84
-244.39
-268.79
-293.31
-316.34
-336.91
-354.84
-370.19
-382.20
-388.71
-386.50
-372.72
-346.43
-309.46
-265.90
-220.50
-176.93
-136.83
-100.10
-65.97
-34.11
-4.95
20.71
42.63
61.57
79.35
98.05
119.28
143.69
171.08
200.81
232.05
263.62
293.55
318.92
336.47
343.84
340.84
330.18
316.76
306.18
302.74
308.36
322.37
342.41
365.52
388.67
408.75
422.18
424.90
412.99
383.99
338.06
278.63
211.82
145.03
84.85
35.49
-1.75
-28.01
-45.58
-56.70
-62.82
-64.72
-62.98
-58.52
-52.81
-47.46
-43.73
-42.07
-42.17
-43.24
-44.62
-46.11
-48.03
-50.90
-55.06
-60.41
-66.42
-72.32
-77.47
-81.53
-84.64
-87.31
-90.33
-94.69
-101.19
-110.06
-120.56
-130.94
-138.95
-142.63
-141.17
-135.14
-126.20
-116.26
-106.74
-98.20
-90.68
-84.22
-79.31
-76.65
-76.46
-77.80
-78.26
-74.59
-63.77
-44.19
-16.03
19.16
59.38
102.84
147.84
192.15
232.34
263.95
282.73
286.37
275.64
254.23
227.29
199.48
173.61
150.43
129.31
109.32
89.91
71.07
53.04
36.20
20.87
7.43
-3.76
-12.53
-18.98
-23.54
-26.84
-29.49
-31.96
-34.51
-37.13
-39.60
-41.50
-42.38
-41.93
-40.16
-37.41
-34.32
-31.58
-29.73
-29.02
-29.31
-30.18
-30.93
-30.79
-29.09
-25.44
-19.81
-12.34
-3.08
8.32
22.51
40.13
61.17
84.61
108.50
130.51
148.84
162.79
173.01
181.01
188.42
196.28
204.80
213.56
221.93
229.51
236.33
242.75
249.21
256.01
263.38
271.49
280.55
290.59
301.09
310.55
316.46
315.90
306.35
286.64
257.31
220.22
177.58
130.98
80.89
27.16
-30.14
-89.74
-149.03
-204.58
-253.24
-293.11
-323.75
-345.80
-360.22
-367.61
-368.13
-361.74
-348.86
-330.64
-308.90
-285.78
-263.11
-242.07
-223.09
-206.00
-190.40
-175.86
-162.33
-150.03
-139.48
-131.17
-125.36
-121.91
-120.25
-119.57
-119.12
-118.43
-117.59
-117.21
-118.20
-121.40
-127.20
-135.30
-144.85
-154.59
-163.28
-170.01
-174.27
-175.91
-175.14
-172.38
-168.01
-162.13
-153.95
-141.57
-122.16
-92.78
-51.78
-0.05
58.38
116.90
167.88
204.78
223.90
225.14
211.62
188.37
160.71
132.98
108.04
87.30
71.23
59.77
52.58
48.96
47.81
47.62
46.96
44.86
41.22
36.75
32.58
29.68
28.37
28.22
28.27
27.52
25.44
22.09
18.08
14.16
10.94
8.61
7.01
5.75
4.40
2.74
0.73
-1.46
-3.58
-5.32
-6.56
-7.32
-7.84
-8.40
-9.20
-10.22
-11.09
-11.20
-9.89
-6.66
-1.34
5.84
14.33
23.37
32.28
40.53
47.94
54.52
60.46
65.93
71.00
75.59
79.58
82.86
85.31
86.68
86.49
84.02
78.64
70.19
59.18
46.72
34.16
22.62
12.58
3.88
-4.10
-12.26
-21.58
-33.02
-47.40
-65.09
-85.69
-107.91
-129.90
-149.73
-166.20
-179.17
-189.36
-197.88
-205.57
-212.54
-217.85
-219.41
-214.06
-198.26
-169.19
-126.26
-72.38
-13.95
40.44
82.65
107.63
114.85
107.95
92.77
75.11
59.01
46.44
37.90
33.32
32.59
35.49
41.18
48.16
54.41
57.99
57.84
54.06
47.87
41.04
35.19
31.20
28.95
27.54
25.79
22.91
18.84
14.25
10.29
7.96
7.78
9.54
12.50
15.72
18.51
20.65
22.40
24.21
26.39
28.99
31.80
34.52
37.03
39.34
41.32
42.61
42.41
39.77
33.92
24.65
12.42
-1.65
-16.00
-28.88
-38.44
-43.11
-41.83
-34.49
-22.10
-6.69
9.20
23.22
33.74
40.15
42.71
42.25
39.85
36.64
33.71
31.86
31.40
31.95
32.47
31.59
28.11
21.54
12.28
1.60
-8.85
-17.47
-23.23
-25.87
-25.92
-24.41
-22.56
-21.48
-21.98
-24.40
-28.51
-33.31
-37.19
-38.37
-35.68
-29.29
-21.01
-13.73
-10.16
-11.49
-16.65
-22.80
-26.63
-25.86
-20.15
-11.03
-0.93
7.96
14.46
18.41
20.26
20.45
19.05
15.74
10.17
2.49
-6.33
-14.50
-19.97
-21.17
-17.56
-9.87
0.39
11.54
22.44
32.65
42.28
51.61
60.73
69.57
77.84
85.21
91.17
95.06
95.99
93.02
85.45
72.98
55.88
34.82
10.89
-14.48
-39.48
-62.08
-80.40
-93.16
-100.18
-102.33
-101.24
-98.49
-95.09
-91.21
-86.43
-80.26
-72.52
-63.60
-54.22
-45.06
-36.51
-28.54
-20.97
-13.67
-6.78
-0.66
4.34
7.97
10.24
11.47
12.02
12.17
12.03
11.50
10.43
8.80
6.76
4.61
2.71
1.29
0.39
-0.17
-0.59
-1.07
-1.65
-2.28
-2.86
-3.37
-3.83
-4.34
-4.98
-5.77
-6.66
-7.50
-8.12
-8.31
-7.89
-6.79
-5.02
-2.69
-0.01
2.74
5.32
7.57
9.40
10.83
11.94
12.78
13.37
13.72
13.82
13.71
13.43
13.02
12.52
11.89
11.09
10.12
9.02
7.85
6.61
5.30
3.90
2.41
0.93
-0.40
-1.47
-2.26
-2.85
-3.42
-4.15
-5.15
-6.45
-8.00
-9.70
-11.33
-12.62
-13.22
-12.88
-11.52
-9.28
-6.52
-3.68
-1.07
1.16
3.04
4.68
6.15
7.43
8.41
9.04
9.31
9.31
9.14
8.81
8.35
7.73
7.00
6.24
5.53
4.93
4.37
3.74
2.93
1.91
0.74
-0.47
-1.63
-2.77
-3.96
-5.31
-6.87
-8.66
-10.57
-12.51
-14.37
-16.01
-17.25
-17.85
-17.62
-16.50
-14.57
-12.08
-9.35
-6.60
-3.98
-1.52
0.76
2.85
4.69
6.26
7.52
8.48
9.10
9.32
9.11
8.52
7.64
6.66
5.76
5.02
4.39
3.77
2.99
1.97
0.67
-0.87
-2.52
-4.18
-5.74
-7.11
-8.29
-9.31
-10.26
-11.24
-12.32
-13.52
-14.73
-15.79
-16.40
-16.28
-15.23
-13.24
-10.51
-7.38
-4.26
-1.48
0.76
2.47
3.73
4.65
5.33
5.85
6.25
6.57
6.80
6.91
6.85
6.58
6.12
5.55
4.95
4.39
3.87
3.30
2.60
1.70
0.64
-0.55
-1.77
-2.99
-4.18
-5.34
-6.40
-7.29
-7.98
-8.54
-9.06
-9.69
-10.41
-11.09
-11.44
-11.13
-9.93
-7.82
-4.96
-1.64
1.78
5.06
8.03
10.60
12.78
14.59
16.04
17.18
18.08
18.85
19.64
20.64
21.95
23.56
25.32
26.99
28.33
29.29
29.95
30.59
31.42
32.61
34.10
35.62
36.85
37.34
36.62
34.27
30.02
23.92
16.31
7.83
-0.96
-9.75
-18.58
-27.67
-37.08
-46.49
-55.13
-62.17
-66.96
-69.40
-69.81
-68.65
-66.29
-62.79
-58.09
-52.14
-45.15
-37.55
-29.90
-22.72
-16.32
-10.79
-6.08
-2.17
0.96
3.16
4.35
4.49
3.73
2.34
0.66
-1.20
-3.53
-7.02
-12.55
-20.71
-31.53
-44.30
-57.93
-71.36
-83.96
-95.58
-106.23
-115.65
-123.21
-128.00
-129.28
-126.68
-120.24
-110.11
-96.43
-79.30
-59.15
-37.02
-14.50
6.62
24.99
39.99
51.86
61.19
68.56
74.16
77.89
79.61
79.43
77.84
75.48
73.02
70.82
68.89
67.01
64.86
62.26
59.21
55.84
52.32
48.71
44.96
40.92
36.47
31.61
26.55
21.64
17.28
13.82
11.45
10.20
9.90
10.30
11.03
11.81
12.42
12.80
12.94
12.91
12.73
12.40
11.85
11.05
10.08
9.04
8.06
7.25
6.62
6.09
5.58
4.98
4.24
3.34
2.27
1.07
-0.21
-1.50
-2.68
-3.69
-4.47
-5.12
-5.76
-6.61
-7.82
-9.41
-11.26
-13.05
-14.45
-15.10
-14.84
-13.70
-11.89
-9.65
-7.28
-4.95
-2.73
-0.63
1.36
3.18
4.76
5.98
6.75
7.04
6.87
6.35
5.64
4.92
4.35
4.00
3.81
3.61
3.21
2.52
1.59
0.54
-0.47
-1.38
-2.27
-3.31
-4.61
-6.21
-7.97
-9.73
-11.40
-12.94
-14.34
-15.53
-16.27
-16.25
-15.26
-13.29
-10.59
-7.61
-4.77
-2.30
-0.19
1.66
3.40
5.05
6.53
7.71
8.50
8.85
8.85
8.56
8.12
7.58
6.96
6.26
5.45
4.48
3.36
2.08
0.70
-0.71
-2.07
-3.34
-4.49
-5.55
-6.62
-7.80
-9.21
-10.93
-12.91
-14.96
-16.79
-18.04
-18.45
-17.89
-16.46
-14.39
-12.00
-9.56
-7.20
-4.93
-2.70
-0.47
1.70
3.65
5.15
6.03
6.22
5.79
4.92
3.83
2.71
1.71
0.84
-0.01
-1.10
-2.88
-5.83
-10.32
-16.32
-23.38
-30.59
-36.91
-41.49
-44.02
-44.81
-44.71
-44.81
-46.11
-49.27
-54.49
-61.44
-69.31
-76.84
-82.46
-84.55
-81.81
-73.59
-60.18
-42.75
-23.08
-2.96
16.24
33.81
49.59
63.64
75.92
86.09
93.71
98.47
100.41
99.95
97.71
94.35
90.28
85.70
80.64
75.12
69.20
62.98
56.60
50.22
43.97
37.97
32.35
27.17
22.47
18.22
14.29
10.53
6.80
3.06
-0.62
-4.03
-6.93
-9.04
-10.20
-10.32
-9.43
-7.67
-5.28
-2.53
0.27
2.88
5.14
7.00
8.45
9.51
10.20
10.50
10.49
10.24
9.89
9.58
9.36
9.18
8.87
8.26
7.22
5.73
3.86
1.73
-0.55
-2.95
-5.46
-8.05
-10.73
-13.43
-16.09
-18.63
-20.98
-23.11
-24.97
-26.48
-27.49
-27.81
-27.22
-25.61
-23.01
-19.62
-15.76
-11.77
-7.89
-4.22
-0.78
2.43
5.34
7.81
9.68
10.85
11.37
11.38
11.09
10.68
10.21
9.63
8.89
7.93
6.76
5.42
3.97
2.44
0.85
-0.76
-2.34
-3.87
-5.32
-6.79
-8.40
-10.22
-12.30
-14.58
-16.91
-19.15
-21.09
-22.51
-23.16
-22.79
-21.26
-18.61
-15.10
-11.09
-6.94
-2.90
0.94
4.54
7.87
10.82
13.22
14.96
16.04
16.49
16.42
15.92
15.05
13.87
12.51
11.06
9.67
8.42
7.31
6.31
5.34
4.33
3.20
1.87
0.30
-1.49
-3.43
-5.43
-7.43
-9.35
-11.25
-13.16
-15.09
-17.00
-18.75
-20.07
-20.69
-20.35
-18.90
-16.40
-13.06
-9.15
-4.97
-0.74
3.38
7.21
10.55
13.22
15.09
16.19
16.67
16.67
16.30
15.62
14.59
13.31
11.91
10.60
9.53
8.78
8.24
7.78
7.28
6.68
5.92
4.95
3.71
2.08
0.04
-2.38
-5.00
-7.59
-10.01
-12.20
-14.26
-16.38
-18.62
-20.92
-22.99
-24.45
-24.90
-24.18
-22.28
-19.41
-15.87
-11.91
-7.74
-3.51
0.63
4.51
7.90
10.61
12.54
13.66
14.08
13.98
13.53
12.90
12.18
11.43
10.65
9.85
9.07
8.42
8.02
7.96
8.26
8.85
9.58
10.21
10.53
10.38
9.71
8.54
6.94
5.05
2.88
0.45
-2.31
-5.41
-8.79
-12.21
-15.33
-17.78
-19.25
-19.52
-18.55
-16.47
-13.52
-10.00
-6.23
-2.41
1.30
4.81
8.03
10.83
13.06
14.56
15.26
15.24
14.71
13.91
13.07
12.33
11.71
11.20
10.73
10.30
9.87
9.46
9.01
8.42
7.55
6.31
4.70
2.85
0.97
-0.74
-2.20
-3.45
-4.71
-6.18
-8.03
-10.27
-12.76
-15.21
-17.29
-18.65
-19.02
-18.23
-16.31
-13.43
-9.90
-6.06
-2.23
1.31
4.38
6.85
8.68
9.90
10.57
10.78
10.63
10.20
9.54
8.73
7.82
6.89
6.01
5.21
4.44
3.65
2.83
1.99
1.18
0.44
-0.23
-0.92
-1.72
-2.67
-3.78
-4.95
-6.10
-7.22
-8.33
-9.50
-10.76
-12.08
-13.29
-14.11
-14.27
-13.55
-11.89
-9.43
-6.48
-3.45
-0.66
1.72
3.70
5.41
6.98
8.40
9.55
10.23
10.32
9.87
9.06
8.19
7.50
7.07
6.84
6.63
6.23
5.51
4.48
3.22
1.82
0.39
-1.05
-2.52
-4.02
-5.53
-7.01
-8.40
-9.66
-10.79
-11.84
-12.85
-13.82
-14.66
-15.23
-15.32
-14.71
-13.24
-10.91
-7.90
-4.51
-1.12
1.95
4.57
6.74
8.53
10.01
11.17
11.95
12.28
12.16
11.68
10.97
10.20
9.44
8.72
8.02
7.34
6.67
6.05
5.48
4.91
4.29
3.54
2.66
1.68
0.63
-0.50
-1.76
-3.27
-5.06
-7.09
-9.24
-11.29
-13.07
-14.37
-14.96
-14.66
-13.36
-11.13
-8.25
-5.13
-2.20
0.30
2.33
4.01
5.48
6.75
7.65
7.96
7.53
6.44
4.95
3.40
2.09
1.16
0.57
0.13
-0.32
-0.91
-1.65
-2.48
-3.32
-4.09
-4.78
-5.40
-5.96
-6.45
-6.86
-7.21
-7.57
-8.10
-8.89
-9.99
-11.22
-12.30
-12.83
-12.55
-11.36
-9.34
-6.71
-3.74
-0.67
2.31
5.02
7.35
9.16
10.41
11.12
11.34
11.18
10.73
10.10
9.36
8.59
7.87
7.18
6.51
5.75
4.82
3.66
2.28
0.78
-0.71
-2.05
-3.19
-4.13
-5.04
-6.07
-7.37
-8.94
-10.68
-12.28
-13.37
-13.59
-12.70
-10.67
-7.66
-4.01
-0.09
3.79
7.45
10.88
14.15
17.40
20.69
23.99
27.09
29.63
31.12
31.05
29.02
24.88
18.79
11.19
2.61
-6.41
-15.48
-24.32
-32.79
-40.82
-48.42
-55.67
-62.69
-69.60
-76.48
-83.29
-89.95
-96.36
-102.38
-107.89
-112.67
-116.47
-118.98
-119.89
-118.90
-115.75
-110.15
-101.91
-91.18
-78.46
-64.76
-51.40
-39.72
-30.81
-25.26
-23.20
-24.39
-28.39
-34.71
-42.84
-52.29
-62.65
-73.67
-85.26
-97.43
-110.05
-122.71
-134.59
-144.65
-151.95
-155.92
-156.48
-153.94
-148.73
-141.20
-131.60
-120.05
-106.72
-91.64
-74.56
-54.95
-32.13
-5.77
23.60
54.40
84.21
110.53
131.55
146.75
156.90
163.68
168.86
173.75
178.88
184.11
188.91
192.82
195.66
197.40
197.98
197.06
194.05
188.27
179.48
168.15
155.60
143.53
133.43
126.00
120.92
117.17
113.61
109.45
104.37
98.41
91.58
83.84
75.17
65.92
56.92
49.28
43.97
41.30
40.78
41.32
41.66
41.00
39.25
36.96
34.99
34.03
34.19
34.95
35.34
34.43
31.72
27.43
22.34
17.41
13.33
10.37
8.26
6.56
4.87
3.04
1.17
-0.57
-2.04
-3.13
-3.76
-3.84
-3.36
-2.45
-1.49
-1.14
-2.12
-4.88
-9.39
-14.94
-20.40
-24.54
-26.47
-25.90
-23.14
-18.85
-13.80
-8.57
-3.46
1.37
5.86
9.76
12.77
14.52
14.78
13.53
11.03
7.76
4.27
0.98
-1.84
-4.14
-5.95
-7.40
-8.64
-9.78
-10.93
-12.11
-13.29
-14.37
-15.14
-15.45
-15.20
-14.46
-13.40
-12.27
-11.31
-10.66
-10.38
-10.48
-10.89
-11.43
-11.81
-11.66
-10.64
-8.56
-5.51
-1.88
1.76
4.84
7.00
8.11
8.28
7.73
6.67
5.30
3.78
2.21
0.71
-0.69
-2.01
-3.33
-4.73
-6.22
-7.71
-9.01
-9.97
-10.56
-10.86
-11.08
-11.36
-11.76
-12.16
-12.42
-12.43
-12.27
-12.17
-12.39
-13.06
-14.14
-15.38
-16.38
-16.78
-16.34
-15.05
-13.05
-10.65
-8.16
-5.76
-3.52
-1.41
0.61
2.49
4.15
5.44
6.30
6.73
6.80
6.56
6.03
5.23
4.17
2.99
1.84
0.92
0.35
0.07
-0.04
-0.14
-0.39
-0.89
-1.68
-2.76
-4.09
-5.49
-6.72
-7.55
-7.88
-7.81
-7.68
-7.91
-8.72
-10.03
-11.40
-12.29
-12.30
-11.36
-9.71
-7.77
-5.86
-4.10
-2.45
-0.80
0.86
2.40
3.63
4.35
4.52
4.25
3.73
3.15
2.66
2.31
2.06
1.83
1.56
1.18
0.68
0.07
-0.68
-1.63
-2.82
-4.22
-5.74
-7.22
-8.49
-9.43
-10.10
-10.62
-11.18
-11.94
-12.87
-13.81
-14.42
-14.32
-13.22
-11.06
-8.03
-4.58
-1.24
1.48
3.32
4.34
4.78
4.98
5.19
5.51
5.84
6.07
6.08
5.86
5.42
4.73
3.74
2.40
0.75
-1.04
-2.73
-4.10
-5.08
-5.72
-6.20
-6.64
-7.09
-7.51
-7.86
-8.17
-8.56
-9.17
-10.13
-11.48
-13.14
-14.94
-16.62
-17.89
-18.42
-17.95
-16.30
-13.55
-10.00
-6.10
-2.35
0.89
3.45
5.40
6.88
8.04
8.91
9.43
9.50
9.04
8.13
6.92
5.67
4.58
3.72
3.05
2.45
1.79
1.01
0.14
-0.78
-1.68
-2.55
-3.41
-4.30
-5.20
-6.10
-6.99
-7.84
-8.70
-9.61
-10.62
-11.73
-12.81
-13.65
-13.93
-13.42
-12.04
-9.94
-7.44
-4.94
-2.75
-0.97
0.53
1.96
3.47
5.08
6.62
7.88
8.66
8.86
8.56
7.89
7.04
6.18
5.40
4.68
3.94
3.11
2.14
1.02
-0.22
-1.51
-2.78
-3.97
-5.03
-5.96
-6.76
-7.51
-8.31
-9.26
-10.47
-11.96
-13.66
-15.36
-16.72
-17.36
-16.92
-15.21
-12.30
-8.53
-4.39
-0.39
3.09
5.89
8.02
9.63
10.88
11.83
12.44
12.57
12.11
11.06
9.58
7.98
6.56
5.48
4.73
4.08
3.33
2.38
1.30
0.36
-0.27
-0.56
-0.70
-0.95
-1.54
-2.54
-3.86
-5.36
-6.99
-8.76
-10.67
-12.62
-14.30
-15.25
-15.11
-13.74
-11.33
-8.31
-5.20
-2.35
0.14
2.33
4.31
6.12
7.66
8.78
9.46
9.77
9.90
10.04
10.21
10.34
10.26
9.87
9.13
8.14
6.97
5.71
4.37
2.96
1.52
0.10
-1.28
-2.69
-4.25
-6.11
-8.33
-10.81
-13.26
-15.32
-16.59
-16.86
-16.05
-14.29
-11.87
-9.12
-6.38
-3.85
-1.62
0.40
2.31
4.15
5.87
7.26
8.13
8.40
8.15
7.64
7.14
6.78
6.50
6.04
5.15
3.73
1.93
0.08
-1.43
-2.36
-2.74
-2.77
-2.78
-3.06
-3.75
-4.90
-6.39
-8.03
-9.53
-10.52
-10.64
-9.64
-7.52
-4.57
-1.23
2.07
5.05
7.67
10.03
12.23
14.31
16.16
17.59
18.48
18.80
18.61
18.09
17.45
16.87
16.48
16.32
16.28
16.23
16.02
15.56
14.89
14.05
13.11
12.11
11.05
9.89
8.60
7.15
5.54
3.87
2.24
0.91
0.25
0.68
2.53
5.96
10.81
16.63
22.80
28.74
34.01
38.40
41.92
44.67
46.86
48.74
50.51
52.37
54.40
56.57
58.64
60.26
60.97
60.20
57.41
52.07
43.83
32.62
18.68
2.54
-14.94
-32.80
-50.00
-65.60
-78.90
-89.50
-97.38
-102.81
-106.27
-108.27
-109.24
-109.48
-109.18
-108.42
-107.10
-104.98
-101.70
-96.85
-90.21
-81.71
-71.56
-60.09
-47.78
-35.16
-22.87
-11.56
-1.69
6.61
13.61
19.91
26.15
32.68
39.42
45.91
51.40
55.25
56.97
56.35
53.30
47.93
40.48
31.45
21.53
11.45
1.72
-7.52
-16.44
-25.21
-33.68
-41.14
-46.48
-48.52
-46.53
-40.50
-31.26
-20.11
-8.53
2.26
11.37
18.38
23.20
26.00
27.13
26.95
25.82
24.05
21.85
19.40
16.81
14.21
11.75
9.66
8.14
7.32
7.11
7.18
7.08
6.38
4.81
2.39
-0.66
-4.05
-7.59
-11.18
-14.82
-18.51
-22.21
-25.82
-29.25
-32.33
-34.86
-36.50
-36.88
-35.71
-32.94
-28.77
-23.70
-18.25
-12.88
-7.84
-3.18
1.09
4.93
8.26
10.97
12.97
14.26
14.85
14.81
14.23
13.24
11.97
10.57
9.13
7.65
6.09
4.45
2.71
1.00
-0.58
-1.94
-3.13
-4.34
-5.84
-7.88
-10.56
-13.79
-17.24
-20.44
-22.80
-23.85
-23.27
-21.00
-17.21
-12.29
-6.70
-0.90
4.73
9.97
14.67
18.74
22.13
24.75
26.48
27.26
27.17
26.40
25.27
24.16
23.33
22.82
22.48
22.02
21.19
19.89
18.22
16.37
14.47
12.54
10.49
8.15
5.39
2.23
-1.29
-5.11
-9.15
-13.30
-17.31
-20.74
-23.07
-23.72
-22.34
-18.94
-13.90
-7.80
-1.36
4.84
10.48
15.40
19.66
23.30
26.32
28.58
29.91
30.17
29.34
27.54
25.08
22.38
19.85
17.81
16.39
15.51
14.87
14.15
13.07
11.49
9.45
7.16
4.78
2.43
0.09
-2.35
-5.01
-7.99
-11.30
-14.90
-18.61
-22.11
-24.92
-26.52
-26.45
-24.52
-20.88
-15.99
-10.50
-5.01
0.12
4.76
8.97
12.87
16.44
19.55
21.92
23.35
23.78
23.36
22.46
21.43
20.53
19.84
19.27
18.68
17.90
16.81
15.33
13.40
10.99
8.11
4.90
1.61
-1.48
-4.18
-6.45
-8.41
-10.32
-12.43
-14.83
-17.37
-19.65
-21.07
-21.11
-19.40
-15.92
-11.03
-5.32
0.54
6.02
10.83
14.90
18.28
21.02
23.05
24.28
24.65
24.24
23.27
21.99
20.62
19.25
17.84
16.35
14.75
13.10
11.52
10.03
8.60
7.07
5.29
3.16
0.68
-2.05
-4.91
-7.81
-10.73
-13.74
-16.88
-20.07
-23.09
-25.50
-26.81
-26.58
-24.60
-20.97
-16.09
-10.51
-4.74
0.86
6.12
10.97
15.34
19.13
22.17
24.29
25.43
25.63
25.02
23.85
22.39
20.90
19.56
18.42
17.39
16.30
14.97
13.28
11.26
9.00
6.54
3.91
1.14
-1.67
-4.36
-6.75
-8.79
-10.61
-12.46
-14.68
-17.44
-20.67
-24.01
-26.89
-28.66
-28.82
-27.10
-23.55
-18.55
-12.60
-6.30
-0.09
5.71
10.94
15.45
19.08
21.70
23.22
23.76
23.60
23.08
22.45
21.81
21.02
19.91
18.42
16.61
14.70
12.93
11.40
10.07
8.78
7.38
5.79
4.06
2.29
0.56
-1.06
-2.61
-4.16
-5.85
-7.82
-10.23
-13.15
-16.56
-20.22
-23.71
-26.49
-28.04
-28.00
-26.28
-23.09
-18.86
-14.12
-9.27
-4.61
-0.31
3.60
7.02
9.85
11.98
13.36
14.02
14.11
13.82
13.32
12.74
12.13
11.47
10.74
9.93
9.06
8.17
7.30
6.44
5.53
4.48
3.21
1.69
0.00
-1.70
-3.30
-4.70
-5.96
-7.24
-8.76
-10.70
-13.06
-15.70
-18.28
-20.35
-21.41
-21.10
-19.27
-16.00
-11.59
-6.45
-1.09
4.09
8.73
12.66
15.81
18.19
19.85
20.85
21.20
20.96
20.26
19.27
18.21
17.22
16.38
15.66
15.00
14.33
13.57
12.64
11.47
9.96
8.12
6.04
3.88
1.80
-0.14
-2.01
-4.00
-6.30
-9.09
-12.35
-15.92
-19.49
-22.64
-24.99
-26.19
-26.07
-24.64
-22.09
-18.79
-15.12
-11.44
-8.00
-4.89
-2.12
0.37
2.65
4.71
6.47
7.80
8.65
9.01
8.99
8.73
8.36
7.92
7.36
6.60
5.55
4.15
2.42
0.43
-1.74
-4.00
-6.30
-8.57
-10.77
-12.89
-15.01
-17.26
-19.80
-22.79
-26.29
-30.10
-33.81
-36.78
-38.36
-38.09
-35.83
-31.84
-26.68
-21.02
-15.42
-10.25
-5.61
-1.53
1.98
4.89
7.11
8.55
9.23
9.29
8.97
8.51
8.12
7.86
7.73
7.65
7.51
7.29
6.94
6.46
5.82
4.95
3.81
2.38
0.71
-1.10
-2.92
-4.70
-6.49
-8.40
-10.62
-13.31
-16.39
-19.60
-22.46
-24.36
-24.82
-23.57
-20.71
-16.62
-11.85
-6.91
-2.18
2.13
5.96
9.28
12.03
14.12
15.50
16.18
16.27
15.96
15.46
14.95
14.48
14.08
13.67
13.16
12.42
11.37
9.97
8.24
6.33
4.34
2.39
0.48
-1.40
-3.26
-5.05
-6.69
-8.13
-9.40
-10.73
-12.36
-14.51
-17.17
-20.03
-22.51
-23.94
-23.77
-21.77
-18.14
-13.43
-8.29
-3.29
1.27
5.31
8.88
12.02
14.63
16.55
17.64
17.89
17.43
16.51
15.44
14.44
13.64
13.10
12.80
12.66
12.63
12.55
12.29
11.69
10.64
9.10
7.11
4.86
2.55
0.40
-1.51
-3.23
-4.94
-6.84
-9.03
-11.56
-14.36
-17.28
-20.10
-22.55
-24.27
-24.86
-24.03
-21.67
-18.03
-13.59
-8.94
-4.53
-0.59
2.90
6.08
9.01
11.67
13.88
15.48
16.41
16.73
16.64
16.34
15.98
15.57
15.06
14.34
13.31
11.98
10.39
8.63
6.78
4.89
2.93
0.91
-1.16
-3.23
-5.29
-7.38
-9.60
-12.09
-14.91
-18.05
-21.31
-24.36
-26.79
-28.16
-28.11
-26.42
-23.13
-18.51
-13.10
-7.46
-2.14
2.54
6.42
9.49
11.80
13.36
14.25
14.51
14.33
13.89
13.37
12.89
12.43
11.93
11.30
10.55
9.73
8.99
8.44
8.07
7.74
7.17
6.07
4.30
1.91
-0.85
-3.61
-6.07
-8.16
-10.02
-11.98
-14.35
-17.24
-20.55
-23.84
-26.55
-28.07
-28.00
-26.15
-22.66
-17.89
-12.36
-6.65
-1.22
3.60
7.68
11.00
13.66
15.73
17.31
18.44
19.17
19.52
19.49
19.05
18.22
17.07
15.69
14.26
12.91
11.72
10.68
9.69
8.62
7.32
5.72
3.82
1.66
-0.66
-3.00
-5.29
-7.48
-9.65
-11.99
-14.71
-17.96
-21.66
-25.46
-28.77
-30.94
-31.43
-30.01
-26.83
-22.28
-16.91
-11.25
-5.70
-0.58
3.94
7.75
10.79
13.11
14.77
15.93
16.68
17.08
17.16
16.90
16.31
15.44
14.37
13.25
12.21
11.34
10.62
10.01
9.37
8.57
7.46
5.96
4.05
1.81
-0.58
-2.92
-5.02
-6.91
-8.72
-10.78
-13.37
-16.56
-20.17
-23.63
-26.26
-27.40
-26.66
-23.98
-19.71
-14.38
-8.64
-3.06
1.97
6.24
9.70
12.40
14.39
15.69
16.35
16.41
15.98
15.28
14.51
13.84
13.32
12.88
12.41
11.80
11.00
10.00
8.85
7.54
6.05
4.37
2.45
0.34
-1.92
-4.26
-6.64
-9.03
-11.49
-14.04
-16.70
-19.40
-21.97
-24.12
-25.50
-25.74
-24.59
-22.04
-18.27
-13.69
-8.82
-4.12
0.12
3.82
7.04
9.85
12.22
14.04
15.19
15.57
15.25
14.41
13.32
12.21
11.20
10.30
9.43
8.46
7.27
5.81
4.06
2.13
0.14
-1.83
-3.75
-5.67
-7.70
-9.93
-12.41
-15.14
-18.01
-20.89
-23.52
-25.57
-26.64
-26.35
-24.53
-21.25
-16.91
-12.05
-7.22
-2.77
1.20
4.80
8.10
11.06
13.49
15.16
15.92
15.85
15.17
14.19
13.20
12.36
11.69
11.19
10.76
10.31
9.75
8.90
7.68
6.04
4.04
1.83
-0.43
-2.65
-4.90
-7.30
-10.08
-13.37
-17.12
-21.10
-24.86
-27.82
-29.39
-29.10
-26.77
-22.57
-17.01
-10.76
-4.50
1.26
6.26
10.46
13.90
16.63
18.67
20.06
20.93
21.43
21.73
21.89
21.86
21.50
20.68
19.41
17.78
15.99
14.13
12.22
10.12
7.69
4.86
1.74
-1.42
-4.36
-6.92
-9.09
-11.06
-13.08
-15.36
-18.00
-20.93
-23.98
-26.83
-29.06
-30.21
-29.90
-27.88
-24.26
-19.38
-13.81
-8.09
-2.64
2.39
7.02
11.31
15.24
18.64
21.33
23.20
24.25
24.61
24.49
24.04
23.32
22.36
21.13
19.67
18.09
16.51
15.02
13.59
12.08
10.33
8.18
5.59
2.67
-0.33
-3.21
-5.85
-8.30
-10.78
-13.54
-16.78
-20.51
-24.51
-28.34
-31.40
-33.05
-32.80
-30.44
-26.14
-20.42
-14.01
-7.59
-1.67
3.51
7.95
11.75
14.95
17.51
19.33
20.39
20.70
20.46
19.87
19.20
18.58
18.04
17.52
16.90
16.05
14.89
13.37
11.48
9.24
6.65
3.78
0.75
-2.28
-5.12
-7.67
-9.92
-12.01
-14.18
-16.67
-19.58
-22.78
-25.89
-28.35
-29.54
-29.00
-26.54
-22.31
-16.77
-10.56
-4.30
1.53
6.68
11.06
14.73
17.74
20.07
21.64
22.39
22.38
21.78
20.86
19.92
19.15
18.62
18.26
17.91
17.40
16.59
15.36
13.66
11.49
8.97
6.25
3.53
0.97
-1.39
-3.58
-5.78
-8.18
-10.95
-14.13
-17.61
-21.10
-24.10
-26.08
-26.48
-25.00
-21.62
-16.71
-10.86
-4.77
0.97
6.04
10.36
14.01
17.09
19.56
21.30
22.19
22.19
21.43
20.17
18.64
17.01
15.34
13.65
12.01
10.56
9.41
8.56
7.92
7.21
6.16
4.60
2.52
0.04
-2.62
-5.24
-7.76
-10.15
-12.54
-15.09
-17.93
-21.10
-24.40
-27.40
-29.52
-30.16
-28.91
-25.70
-20.84
-14.93
-8.66
-2.67
2.67
7.20
10.95
14.03
16.50
18.35
19.58
20.20
20.33
20.10
19.62
18.95
18.08
16.93
15.50
13.88
12.23
10.69
9.24
7.75
6.00
3.81
1.20
-1.63
-4.32
-6.60
-8.38
-9.81
-11.18
-12.81
-14.91
-17.47
-20.29
-22.97
-25.05
-26.02
-25.51
-23.31
-19.54
-14.58
-9.04
-3.49
1.66
6.17
10.04
13.31
16.03
18.18
19.67
20.51
20.78
20.61
20.16
19.55
18.75
17.75
16.55
15.20
13.78
12.37
10.95
9.41
7.61
5.45
2.95
0.29
-2.28
-4.54
-6.40
-7.94
-9.42
-11.11
-13.21
-15.77
-18.53
-21.05
-22.78
-23.25
-22.17
-19.51
-15.50
-10.57
-5.23
0.04
4.86
9.00
12.36
14.99
16.94
18.25
18.95
19.00
18.39
17.22
15.65
13.96
12.39
11.04
9.85
8.65
7.22
5.47
3.46
1.34
-0.71
-2.58
-4.26
-5.84
-7.42
-9.06
-10.86
-12.87
-15.18
-17.82
-20.69
-23.47
-25.66
-26.61
-25.84
-23.10
-18.59
-12.89
-6.77
-1.00
3.95
7.95
11.11
13.67
15.74
17.29
18.17
18.29
17.70
16.65
15.47
14.45
13.68
13.10
12.52
11.78
10.74
9.34
7.54
5.40
3.03
0.64
-1.59
-3.54
-5.26
-6.94
-8.84
-11.14
-13.89
-16.97
-20.15
-23.08
-25.40
-26.67
-26.52
-24.69
-21.22
-16.44
-10.91
-5.23
0.11
4.84
8.85
12.14
14.73
16.63
17.87
18.53
18.71
18.54
18.11
17.49
16.74
15.97
15.23
14.53
13.82
12.96
11.82
10.34
8.54
6.51
4.35
2.09
-0.27
-2.70
-5.22
-7.73
-10.18
-12.57
-14.98
-17.50
-20.20
-22.94
-25.35
-26.96
-27.28
-25.99
-23.13
-19.00
-14.09
-8.93
-3.94
0.63
4.61
7.94
10.57
12.46
13.67
14.31
14.58
14.64
14.62
14.49
14.22
13.72
12.95
12.01
10.99
10.03
9.14
8.30
7.36
6.19
4.71
2.95
1.00
-1.00
-2.95
-4.80
-6.51
-8.14
-9.77
-11.48
-13.43
-15.69
-18.20
-20.71
-22.76
-23.82
-23.45
-21.53
-18.24
-14.02
-9.39
-4.77
-0.38
3.71
7.46
10.77
13.47
15.41
16.52
16.87
16.67
16.10
15.31
14.37
13.31
12.17
11.03
9.89
8.75
7.52
6.12
4.55
2.91
1.38
0.10
-0.88
-1.69
-2.53
-3.57
-4.96
-6.71
-8.80
-11.13
-13.64
-16.17
-18.56
-20.44
-21.40
-21.07
-19.29
-16.14
-12.06
-7.66
-3.51
0.02
2.86
5.17
7.20
9.11
10.85
12.23
13.01
13.10
12.56
11.66
10.71
9.90
9.29
8.79
8.25
7.52
6.53
5.29
3.81
2.11
0.19
-1.91
-4.09
-6.20
-8.15
-9.90
-11.55
-13.29
-15.27
-17.55
-19.97
-22.20
-23.78
-24.27
-23.38
-21.03
-17.44
-13.02
-8.29
-3.71
0.43
3.99
7.01
9.54
11.61
13.16
14.13
14.48
14.28
13.68
12.87
12.05
11.35
10.74
10.15
9.42
8.43
7.16
5.67
4.12
2.59
1.11
-0.46
-2.26
-4.40
-6.88
-9.57
-12.29
-14.92
-17.36
-19.49
-21.13
-21.95
-21.54
-19.65
-16.33
-11.97
-7.19
-2.65
1.25
4.41
6.98
9.21
11.21
12.90
14.10
14.61
14.40
13.61
12.56
11.58
10.88
10.44
10.07
9.50
8.51
7.05
5.16
3.02
0.80
-1.39
-3.47
-5.43
-7.27
-9.06
-10.83
-12.70
-14.73
-16.98
-19.35
-21.56
-23.17
-23.71
-22.80
-20.33
-16.50
-11.84
-6.98
-2.45
1.44
4.65
7.35
9.70
11.75
13.40
14.46
14.81
14.51
13.75
12.79
11.81
10.87
9.88
8.77
7.50
6.13
4.77
3.48
2.24
1.02
-0.25
-1.57
-2.88
-4.17
-5.43
-6.76
-8.28
-10.13
-12.36
-14.96
-17.79
-20.51
-22.71
-23.91
-23.79
-22.18
-19.24
-15.30
-10.81
-6.18
-1.70
2.48
6.26
9.60
12.38
14.48
15.85
16.51
16.62
16.39
16.04
15.68
15.30
14.84
14.20
13.36
12.34
11.22
10.03
8.76
7.37
5.83
4.17
2.49
0.87
-0.63
-2.04
-3.52
-5.21
-7.29
-9.88
-12.95
-16.31
-19.57
-22.20
-23.67
-23.58
-21.83
-18.63
-14.46
-9.90
-5.45
-1.44
2.00
4.88
7.27
9.21
10.71
11.76
12.37
12.61
12.58
12.41
12.19
11.95
11.67
11.31
10.75
9.92
8.75
7.23
5.42
3.41
1.33
-0.69
-2.53
-4.15
-5.55
-6.83
-8.13
-9.62
-11.44
-13.64
-16.12
-18.61
-20.72
-21.99
-22.09
-20.81
-18.18
-14.48
-10.13
-5.59
-1.25
2.65
6.02
8.92
11.40
13.47
15.09
16.19
16.71
16.66
16.17
15.34
14.34
13.28
12.23
11.23
10.32
9.47
8.61
7.64
6.41
4.79
2.78
0.46
-1.97
-4.33
-6.54
-8.69
-10.90
-13.36
-16.12
-19.08
-21.96
-24.37
-25.84
-25.95
-24.43
-21.28
-16.79
-11.46
-5.93
-0.73
3.83
7.68
10.91
13.66
15.98
17.78
18.93
19.33
18.97
18.04
16.80
15.52
14.40
13.50
12.75
11.99
11.07
9.87
8.38
6.62
4.63
2.43
0.06
-2.39
-4.83
-7.16
-9.34
-11.45
-13.62
-16.03
-18.70
-21.50
-24.03
-25.77
-26.17
-24.85
-21.80
-17.34
-12.05
-6.62
-1.62
2.65
6.16
9.04
11.45
13.47
15.08
16.17
16.64
16.46
15.67
14.48
13.13
11.86
10.80
9.97
9.27
8.54
7.70
6.68
5.45
4.00
2.31
0.42
-1.58
-3.56
-5.38
-6.98
-8.46
-10.04
-11.94
-14.23
-16.74
-19.05
-20.54
-20.63
-18.98
-15.62
-10.98
-5.72
-0.54
4.10
8.00
11.21
13.86
15.95
17.38
17.99
17.76
16.79
15.34
13.74
12.22
10.92
9.81
8.75
7.62
6.28
4.73
3.03
1.32
-0.27
-1.70
-3.06
-4.50
-6.18
-8.18
-10.47
-12.93
-15.45
-17.95
-20.31
-22.31
-23.57
-23.68
-22.32
-19.41
-15.28
-10.45
-5.56
-1.09
2.76
6.05
8.91
11.47
13.67
15.33
16.30
16.53
16.12
15.31
14.33
13.34
12.35
11.32
10.18
8.89
7.42
5.81
4.08
2.27
0.40
-1.49
-3.44
-5.50
-7.77
-10.37
-13.34
-16.56
-19.74
-22.40
-24.01
-24.16
-22.72
-19.88
-16.12
-11.92
-7.64
-3.49
0.51
4.32
7.80
10.69
12.75
13.87
14.13
13.79
13.14
12.44
11.74
11.07
10.37
9.65
8.90
8.09
7.18
6.04
4.59
2.80
0.74
-1.45
-3.66
-5.86
-8.08
-10.47
-13.08
-15.83
-18.50
-20.67
-21.93
-21.91
-20.47
-17.72
-13.94
-9.58
-5.07
-0.74
3.20
6.67
9.66
12.19
14.22
15.75
16.72
17.16
17.14
16.81
16.35
15.87
15.38
14.78
13.92
12.66
10.97
8.96
6.85
4.85
3.03
1.35
-0.37
-2.27
-4.47
-6.95
-9.64
-12.43
-15.20
-17.87
-20.31
-22.29
-23.43
-23.40
-21.94
-19.02
-14.88
-9.91
-4.62
0.60
5.41
9.68
13.33
16.35
18.68
20.28
21.10
21.22
20.76
19.90
18.80
17.59
16.30
14.94
13.55
12.16
10.90
9.79
8.81
7.83
6.69
5.29
3.60
1.70
-0.28
-2.28
-4.30
-6.40
-8.73
-11.38
-14.35
-17.46
-20.34
-22.50
-23.45
-22.83
-20.57
-16.87
-12.24
-7.23
-2.40
1.89
5.51
8.50
11.02
13.12
14.77
15.84
16.24
16.03
15.38
14.57
13.76
13.03
12.26
11.32
10.12
8.73
7.28
5.92
4.68
3.52
2.30
0.92
-0.56
-2.06
-3.41
-4.61
-5.75
-7.07
-8.85
-11.19
-13.95
-16.73
-18.95
-20.04
-19.61
-17.62
-14.37
-10.32
-5.97
-1.67
2.38
6.11
9.49
12.45
14.87
16.64
17.70
18.08
17.88
17.23
16.27
15.15
13.99
12.95
12.11
11.48
10.93
10.26
9.25
7.76
5.80
3.50
1.09
-1.22
-3.35
-5.33
-7.26
-9.28
-11.48
-13.92
-16.61
-19.45
-22.21
-24.47
-25.73
-25.54
-23.72
-20.42
-16.08
-11.27
-6.44
-1.86
2.39
6.31
9.79
12.69
14.85
16.21
16.90
17.17
17.29
17.37
17.41
17.21
16.64
15.66
14.36
12.95
11.58
10.33
9.09
7.71
6.01
4.00
1.81
-0.34
-2.26
-3.92
-5.45
-7.03
-8.87
-11.07
-13.67
-16.58
-19.62
-22.42
-24.51
-25.34
-24.51
-21.95
-17.95
-13.15
-8.19
-3.52
0.71
4.54
8.01
11.08
13.56
15.24
16.05
16.13
15.76
15.27
14.82
14.42
14.01
13.46
12.78
12.04
11.36
10.76
10.17
9.41
8.32
6.82
4.93
2.79
0.54
-1.66
-3.75
-5.66
-7.35
-8.80
-10.07
-11.35
-12.88
-14.92
-17.56
-20.69
-23.88
-26.50
-27.91
-27.63
-25.56
-21.90
-17.13
-11.84
-6.53
-1.59
2.78
6.46
9.42
11.68
13.35
14.57
15.46
16.10
16.51
16.62
16.42
15.94
15.25
14.43
13.53
12.61
11.72
10.89
10.19
9.57
8.93
8.12
6.96
5.38
3.47
1.42
-0.52
-2.24
-3.72
-5.12
-6.61
-8.34
-10.35
-12.65
-15.18
-17.86
-20.48
-22.65
-23.86
-23.63
-21.73
-18.29
-13.84
-9.03
-4.47
-0.40
3.18
6.42
9.44
12.14
14.32
15.74
16.33
16.26
15.80
15.26
14.83
14.50
14.14
13.57
12.69
11.51
10.13
8.67
7.25
5.87
4.50
3.06
1.48
-0.26
-2.13
-4.04
-5.90
-7.67
-9.38
-11.16
-13.18
-15.54
-18.20
-20.90
-23.17
-24.52
-24.52
-23.03
-20.17
-16.30
-11.90
-7.38
-3.04
0.98
4.64
7.88
10.61
12.75
14.20
14.99
15.20
14.98
14.50
13.91
13.31
12.76
12.22
11.66
11.02
10.24
9.29
8.11
6.66
4.89
2.82
0.47
-2.03
-4.55
-6.98
-9.34
-11.74
-14.35
-17.30
-20.49
-23.60
-26.12
-27.53
-27.46
-25.83
-22.83
-18.88
-14.42
-9.85
-5.42
-1.27
2.53
5.93
8.91
11.39
13.36
14.77
15.63
15.99
15.89
15.44
14.76
14.00
13.26
12.60
12.03
11.48
10.84
10.00
8.94
7.65
6.21
4.63
2.90
0.99
-1.14
-3.48
-6.00
-8.64
-11.41
-14.30
-17.24
-20.01
-22.18
-23.23
-22.79
-20.80
-17.55
-13.69
-9.86
-6.52
-3.85
-1.76
-0.09
1.21
2.06
2.31
1.84
0.73
-0.79
-2.43
-3.91
-5.07
-5.75
-5.90
-5.51
-4.61
-3.39
-2.15
-1.17
-0.65
-0.62
-0.92
-1.37
-1.85
-2.44
-3.32
-4.72
-6.77
-9.48
-12.67
-16.04
-19.23
-21.78
-23.23
-23.19
-21.50
-18.25
-13.78
-8.65
-3.36
1.66
6.21
10.23
13.72
16.66
19.06
20.84
22.03
22.71
23.02
23.17
23.30
23.52
23.74
23.73
23.20
21.88
19.75
17.05
14.24
11.77
9.91
8.61
7.54
6.32
4.61
2.31
-0.54
-3.80
-7.37
-11.16
-15.08
-18.85
-22.01
-23.98
-24.26
-22.67
-19.36
-14.93
-10.14
-5.73
-2.15
0.51
2.45
3.97
5.23
6.27
6.98
7.27
7.13
6.66
6.07
5.45
4.85
4.20
3.41
2.44
1.32
0.10
-1.18
-2.52
-3.93
-5.40
-6.93
-8.52
-10.28
-12.34
-14.85
-17.90
-21.31
-24.71
-27.56
-29.30
-29.49
-27.97
-24.85
-20.45
-15.19
-9.47
-3.65
1.97
7.17
11.73
15.47
18.23
19.89
20.44
19.99
18.78
17.17
15.56
14.22
13.26
12.55
11.85
10.95
9.77
8.34
6.79
5.22
3.63
1.96
0.14
-1.85
-4.01
-6.36
-8.89
-11.49
-13.92
-15.78
-16.58
-16.01
-13.97
-10.73
-6.73
-2.43
1.93
6.28
10.70
15.14
19.37
22.89
25.16
25.78
24.72
22.29
19.04
15.48
11.97
8.61
5.39
2.28
-0.65
-3.27
-5.37
-6.78
-7.36
-7.07
-5.96
-4.18
-2.09
-0.14
1.19
1.65
1.30
0.56
0.05
0.33
1.67
4.01
7.07
10.46
13.93
17.29
20.42
23.14
25.21
26.36
26.46
25.65
24.20
22.42
20.53
18.51
16.18
13.32
9.83
5.77
1.39
-2.97
-6.96
-10.26
-12.65
-14.01
-14.33
-13.78
-12.60
-11.13
-9.73
-8.73
-8.43
-9.11
-10.85
-13.62
-17.09
-20.68
-23.68
-25.47
-25.67
-24.27
-21.58
-17.98
-13.71
-8.82
-3.22
3.17
10.18
17.38
24.19
30.02
34.49
37.41
38.76
38.67
37.39
35.24
32.66
30.00
27.49
25.07
22.49
19.43
15.75
11.57
7.28
3.39
0.27
-1.95
-3.40
-4.38
-5.27
-6.29
-7.52
-8.86
-10.08
-10.97
-11.38
-11.21
-10.42
-9.01
-6.99
-4.42
-1.40
1.80
4.90
7.61
9.77
11.36
12.46
13.17
13.52
13.52
13.17
12.51
11.65
10.74
9.87
9.11
8.40
7.66
6.77
5.59
3.98
1.86
-0.71
-3.57
-6.48
-9.18
-11.54
-13.60
-15.57
-17.69
-20.16
-23.04
-26.13
-29.07
-31.39
-32.61
-32.34
-30.45
-27.01
-22.31
-16.81
-10.97
-5.22
0.12
4.86
8.87
12.08
14.49
16.06
16.84
16.91
16.43
15.63
14.72
13.83
13.02
12.26
11.49
10.65
9.70
8.63
7.35
5.78
3.83
1.47
-1.18
-3.94
-6.62
-9.03
-11.15
-13.05
-14.93
-17.00
-19.47
-22.34
-25.43
-28.30
-30.35
-30.98
-29.78
-26.69
-22.03
-16.36
-10.37
-4.60
0.58
5.06
8.86
12.06
14.66
16.60
17.79
18.20
17.93
17.26
16.51
15.99
15.81
15.87
15.92
15.70
15.08
14.08
12.85
11.55
10.21
8.75
7.08
5.12
2.95
0.76
-1.25
-3.02
-4.69
-6.54
-8.90
-11.85
-15.18
-18.36
-20.72
-21.67
-20.90
-18.51
-14.87
-10.49
-5.90
-1.48
2.54
6.01
8.86
11.09
12.73
13.89
14.64
15.03
15.07
14.75
14.16
13.39
12.59
11.89
11.29
10.69
9.92
8.86
7.41
5.65
3.71
1.75
-0.13
-1.85
-3.42
-4.92
-6.44
-8.09
-9.98
-12.21
-14.73
-17.40
-19.88
-21.73
-22.49
-21.85
-19.77
-16.46
-12.37
-8.01
-3.84
-0.15
2.96
5.45
7.38
8.82
9.83
10.50
10.90
11.10
11.14
11.03
10.72
10.23
9.61
8.90
8.14
7.33
6.39
5.24
3.81
2.11
0.23
-1.68
-3.50
-5.15
-6.65
-8.07
-9.56
-11.26
-13.23
-15.40
-17.55
-19.33
-20.28
-20.08
-18.58
-15.90
-12.40
-8.51
-4.62
-0.98
2.28
5.07
7.28
8.80
9.59
9.70
9.33
8.73
8.11
7.58
7.16
6.82
6.50
6.13
5.63
4.91
3.91
2.66
1.28
-0.10
-1.34
-2.38
-3.27
-4.12
-5.07
-6.23
-7.67
-9.39
-11.28
-13.11
-14.58
-15.39
-15.30
-14.27
-12.40
-9.92
-7.11
-4.22
-1.42
1.18
3.51
5.53
7.17
8.38
9.05
9.16
8.76
8.03
7.20
6.46
5.91
5.51
5.09
4.50
3.69
2.66
1.53
0.37
-0.80
-2.05
-3.45
-5.04
-6.86
-8.87
-11.03
-13.27
-15.45
-17.34
-18.63
-19.00
-18.24
-16.34
-13.51
-10.17
-6.78
-3.66
-0.96
1.36
3.39
5.18
6.65
7.66
8.09
7.95
7.39
6.70
6.12
5.76
5.55
5.25
4.60
3.44
1.81
-0.07
-1.91
-3.51
-4.83
-6.05
-7.45
-9.26
-11.54
-14.20
-16.99
-19.59
-21.72
-23.12
-23.56
-22.89
-21.03
-18.10
-14.38
-10.30
-6.33
-2.79
0.16
2.54
4.41
5.85
6.82
7.31
7.35
7.07
6.65
6.22
5.85
5.48
5.03
4.44
3.69
2.83
1.89
0.88
-0.24
-1.46
-2.79
-4.20
-5.77
-7.63
-9.96
-12.79
-15.96
-19.08
-21.61
-23.07
-23.19
-21.99
-19.73
-16.76
-13.39
-9.81
-6.12
-2.38
1.29
4.68
7.56
9.73
11.11
11.79
11.93
11.76
11.47
11.16
10.84
10.50
10.03
9.40
8.54
7.40
5.99
4.37
2.55
0.62
-1.36
-3.33
-5.26
-7.16
-9.11
-11.25
-13.68
-16.43
-19.38
-22.19
-24.42
-25.59
-25.42
-23.85
-21.05
-17.39
-13.27
-8.98
-4.72
-0.60
3.31
6.88
9.93
12.35
14.07
15.11
15.60
15.63
15.30
14.66
13.71
12.52
11.21
9.93
8.72
7.57
6.34
4.87
3.07
0.94
-1.40
-3.80
-6.13
-8.27
-10.17
-11.85
-13.39
-14.99
-16.83
-19.03
-21.46
-23.73
-25.22
-25.27
-23.50
-19.87
-14.75
-8.76
-2.62
3.05
7.81
11.45
13.94
15.38
15.91
15.74
15.03
13.88
12.36
10.51
8.39
6.12
3.89
1.90
0.27
-1.04
-2.24
-3.69
-5.70
-8.43
-11.77
-15.38
-18.89
-22.05
-24.89
-27.67
-30.84
-34.81
-39.82
-45.84
-52.47
-58.87
-63.73
-65.45
-62.51
-54.09
-40.46
-23.10
-4.26
13.71
29.14
41.34
50.46
56.96
61.23
63.31
63.15
60.89
57.16
52.91
49.04
46.00
43.64
41.37
38.53
34.83
30.45
25.97
21.97
18.73
16.14
13.82
11.41
8.72
5.85
3.00
0.41
-1.72
-3.25
-4.08
-4.16
-3.58
-2.58
-1.51
-0.72
-0.34
-0.22
-0.04
0.53
1.60
3.01
4.49
5.78
6.87
7.97
9.38
11.29
13.65
16.15
18.33
19.80
20.37
20.10
19.22
17.99
16.65
15.38
14.33
13.64
13.46
13.87
14.82
16.15
17.57
18.76
19.51
19.78
19.67
19.42
19.32
19.56
20.19
21.06
21.93
22.59
22.96
23.16
23.40
23.89
24.79
26.10
27.82
29.88
32.29
35.05
38.24
41.79
45.48
48.68
50.41
49.36
44.19
34.09
19.02
-0.02
-21.25
-42.61
-62.26
-79.04
-92.44
-102.54
-109.62
-114.09
-116.42
-117.28
-117.53
-118.04
-119.27
-120.84
-121.50
-119.40
-112.86
-101.10
-84.63
-65.03
-44.33
-24.21
-5.57
11.41
26.91
40.96
53.24
63.14
70.13
73.96
74.75
72.81
68.50
62.12
53.98
44.50
34.27
24.03
14.48
6.06
-1.15
-7.39
-13.05
-18.43
-23.51
-27.90
-30.81
-31.30
-28.51
-21.91
-11.63
1.48
15.90
29.85
41.68
50.31
55.37
57.11
56.12
53.07
48.46
42.76
36.40
29.90
23.74
18.23
13.42
9.10
4.99
0.90
-3.03
-6.38
-8.57
-9.14
-7.97
-5.39
-2.03
1.41
4.42
6.85
8.83
10.57
12.23
13.72
14.75
15.00
14.31
12.76
10.72
8.62
6.85
5.58
4.80
4.33
3.95
3.57
3.14
2.75
2.43
2.19
1.90
1.42
0.58
-0.70
-2.35
-4.17
-5.92
-7.38
-8.47
-9.32
-10.20
-11.45
-13.23
-15.55
-18.15
-20.67
-22.72
-24.01
-24.37
-23.79
-22.31
-20.10
-17.36
-14.36
-11.29
-8.29
-5.34
-2.33
0.78
3.89
6.76
9.04
10.44
10.87
10.47
9.57
8.48
7.44
6.54
5.72
4.91
4.01
3.00
1.87
0.68
-0.57
-1.85
-3.16
-4.50
-5.83
-7.04
-8.04
-8.73
-9.07
-9.14
-9.15
-9.28
-9.74
-10.63
-11.91
-13.44
-15.00
-16.27
-17.00
-16.99
-16.15
-14.59
-12.47
-10.01
-7.36
-4.58
-1.69
1.25
4.08
6.60
8.56
9.84
10.43
10.48
10.20
9.83
9.53
9.42
9.48
9.62
9.70
9.56
9.09
8.27
7.15
5.81
4.33
2.77
1.14
-0.51
-2.13
-3.72
-5.21
-6.65
-8.08
-9.61
-11.35
-13.45
-15.93
-18.74
-21.62
-24.16
-25.84
-26.23
-25.07
-22.39
-18.51
-13.92
-9.17
-4.73
-0.95
2.06
4.27
5.82
6.87
7.57
8.05
8.38
8.56
8.59
8.45
8.16
7.80
7.51
7.40
7.50
7.75
7.91
7.78
7.16
6.01
4.43
2.62
0.73
-1.10
-2.90
-4.70
-6.57
-8.61
-10.88
-13.46
-16.34
-19.39
-22.25
-24.44
-25.45
-24.90
-22.77
-19.32
-15.02
-10.40
-5.80
-1.43
2.60
6.19
9.20
11.46
12.87
13.46
13.44
13.04
12.52
12.01
11.54
11.05
10.49
9.88
9.31
8.85
8.51
8.21
7.75
6.96
5.72
4.07
2.14
0.14
-1.79
-3.67
-5.60
-7.80
-10.42
-13.51
-16.94
-20.38
-23.35
-25.33
-25.89
-24.82
-22.18
-18.36
-13.92
-9.45
-5.35
-1.73
1.51
4.61
7.69
10.74
13.53
15.76
17.19
17.75
17.61
17.05
16.36
15.80
15.44
15.21
14.97
14.53
13.73
12.48
10.72
8.44
5.70
2.63
-0.56
-3.64
-6.47
-9.01
-11.41
-13.86
-16.58
-19.60
-22.78
-25.77
-28.06
-29.14
-28.63
-26.41
-22.65
-17.79
-12.38
-6.91
-1.69
3.16
7.63
11.70
15.24
18.06
19.98
20.96
21.12
20.69
19.99
19.25
18.61
18.07
17.52
16.81
15.83
14.47
12.76
10.72
8.44
5.95
3.29
0.46
-2.48
-5.46
-8.44
-11.43
-14.51
-17.76
-21.13
-24.36
-26.96
-28.38
-28.10
-25.92
-22.01
-16.83
-11.03
-5.17
0.35
5.33
9.71
13.44
16.41
18.50
19.62
19.80
19.25
18.29
17.27
16.41
15.81
15.38
14.92
14.14
12.83
10.92
8.51
5.83
3.17
0.74
-1.37
-3.25
-5.04
-6.97
-9.19
-11.85
-15.00
-18.58
-22.32
-25.74
-28.24
-29.22
-28.29
-25.48
-21.18
-16.02
-10.62
-5.39
-0.45
4.21
8.61
12.65
16.04
18.51
19.86
20.11
19.55
18.57
17.54
16.73
16.20
15.81
15.35
14.62
13.47
11.87
9.92
7.76
5.49
3.19
0.82
-1.72
-4.52
-7.69
-11.27
-15.25
-19.56
-23.98
-28.16
-31.61
-33.80
-34.21
-32.56
-28.85
-23.44
-16.93
-10.03
-3.34
2.80
8.25
13.09
17.36
21.07
24.09
26.28
27.56
27.97
27.65
26.83
25.70
24.39
22.99
21.52
20.00
18.36
16.50
14.32
11.76
8.86
5.73
2.53
-0.60
-3.61
-6.54
-9.53
-12.68
-16.12
-19.83
-23.63
-27.15
-29.82
-31.10
-30.50
-27.88
-23.41
-17.61
-11.14
-4.63
1.43
6.79
11.33
15.11
18.18
20.60
22.38
23.54
24.15
24.34
24.28
24.10
23.90
23.65
23.30
22.76
21.95
20.83
19.34
17.45
15.16
12.50
9.54
6.42
3.18
-0.17
-3.69
-7.45
-11.55
-16.00
-20.73
-25.50
-29.87
-33.21
-34.82
-34.16
-31.08
-25.87
-19.28
-12.18
-5.31
0.92
6.39
11.22
15.46
19.04
21.79
23.51
24.17
23.88
22.94
21.68
20.40
19.26
18.28
17.39
16.46
15.38
14.04
12.43
10.56
8.46
6.16
3.61
0.80
-2.31
-5.75
-9.54
-13.65
-18.07
-22.70
-27.27
-31.30
-34.14
-35.14
-33.84
-30.22
-24.70
-18.02
-10.95
-4.07
2.30
8.06
13.10
17.28
20.32
22.10
22.68
22.34
21.49
20.52
19.66
18.92
18.22
17.37
16.23
14.70
12.80
10.58
8.14
5.59
2.99
0.38
-2.25
-4.87
-7.48
-10.13
-12.94
-16.13
-19.86
-24.07
-28.37
-32.04
-34.21
-34.16
-31.59
-26.74
-20.31
-13.19
-6.15
0.35
6.17
11.42
16.23
20.61
24.41
27.41
29.40
30.30
30.23
29.48
28.43
27.37
26.46
25.64
24.75
23.57
21.95
19.84
17.27
14.37
11.34
8.45
5.98
4.15
2.98
2.15
1.06
-0.95
-4.39
-9.27
-15.14
-21.17
-26.30
-29.60
-30.44
-28.62
-24.36
-18.24
-11.14
-3.92
2.66
8.21
12.69
16.29
19.26
21.74
23.72
25.07
25.75
25.77
25.36
24.68
23.85
22.85
21.60
20.01
18.13
16.09
13.99
11.91
9.74
7.31
4.46
1.16
-2.49
-6.26
-9.92
-13.37
-16.66
-19.99
-23.60
-27.63
-31.99
-36.30
-39.90
-42.05
-42.10
-39.76
-35.15
-28.82
-21.46
-13.78
-6.29
0.73
7.13
12.79
17.58
21.29
23.82
25.21
25.61
25.29
24.51
23.45
22.27
21.05
19.90
18.87
17.97
17.07
15.98
14.44
12.27
9.45
6.08
2.41
-1.32
-4.90
-8.26
-11.45
-14.64
-18.03
-21.77
-25.94
-30.45
-34.99
-38.98
-41.70
-42.42
-40.67
-36.45
-30.28
-22.96
-15.36
-8.13
-1.55
4.35
9.63
14.32
18.33
21.53
23.82
25.27
26.03
26.33
26.35
26.17
25.77
25.09
24.03
22.58
20.74
18.59
16.20
13.59
10.71
7.56
4.14
0.57
-2.95
-6.27
-9.33
-12.25
-15.28
-18.70
-22.71
-27.33
-32.19
-36.63
-39.73
-40.61
-38.68
-33.87
-26.76
-18.30
-9.57
-1.39
5.85
12.13
17.59
22.32
26.23
29.16
30.97
31.63
31.36
30.44
29.15
27.65
25.97
24.09
21.97
19.66
17.23
14.75
12.25
9.67
6.91
3.91
0.69
-2.62
-5.81
-8.78
-11.53
-14.26
-17.30
-20.96
-25.39
-30.49
-35.81
-40.65
-44.12
-45.38
-43.90
-39.62
-32.92
-24.67
-15.82
-7.22
0.63
7.51
13.43
18.43
22.51
25.63
27.77
28.97
29.29
28.87
27.85
26.39
24.71
23.00
21.42
20.01
18.66
17.21
15.46
13.29
10.62
7.47
3.93
0.16
-3.69
-7.42
-10.95
-14.33
-17.68
-21.24
-25.18
-29.50
-33.94
-37.98
-40.84
-41.73
-40.06
-35.65
-28.88
-20.61
-11.91
-3.71
3.43
9.37
14.28
18.36
21.69
24.16
25.63
26.06
25.56
24.41
22.91
21.33
19.80
18.35
16.91
15.37
13.64
11.63
9.33
6.79
4.07
1.30
-1.49
-4.25
-6.98
-9.73
-12.59
-15.72
-19.31
-23.48
-28.13
-32.79
-36.68
-38.83
-38.44
-35.19
-29.31
-21.62
-13.21
-5.11
1.97
7.74
12.24
15.66
18.18
19.94
20.94
21.22
20.85
19.95
18.70
17.30
15.91
14.65
13.57
12.63
11.72
10.71
9.51
8.01
6.20
4.08
1.67
-1.06
-4.13
-7.59
-11.46
-15.77
-20.44
-25.31
-30.00
-33.96
-36.52
-37.03
-35.09
-30.75
-24.52
-17.24
-9.76
-2.76
3.43
8.78
13.40
17.35
20.53
22.73
23.80
23.73
22.77
21.28
19.64
18.13
16.81
15.61
14.30
12.71
10.71
8.31
5.62
2.75
-0.14
-2.98
-5.76
-8.54
-11.38
-14.37
-17.66
-21.37
-25.56
-30.18
-34.82
-38.74
-40.97
-40.66
-37.34
-31.17
-22.93
-13.77
-4.83
3.09
9.65
14.90
19.07
22.43
25.04
26.86
27.77
27.76
26.93
25.55
23.96
22.43
21.08
19.87
18.63
17.19
15.39
13.20
10.61
7.67
4.45
1.01
-2.56
-6.18
-9.81
-13.48
-17.30
-21.43
-25.95
-30.76
-35.53
-39.64
-42.25
-42.58
-40.11
-34.77
-27.08
-17.95
-8.46
0.49
8.35
15.01
20.61
25.30
29.07
31.77
33.23
33.42
32.59
31.14
29.50
27.95
26.59
25.34
24.05
22.66
21.10
19.31
17.14
14.40
10.99
7.00
2.67
-1.66
-5.73
-9.45
-12.95
-16.48
-20.30
-24.61
-29.44
-34.53
-39.33
-43.02
-44.68
-43.52
-39.22
-32.08
-22.99
-13.16
-3.77
4.42
11.16
16.66
21.26
25.24
28.60
31.07
32.31
32.13
30.67
28.36
25.80
23.51
21.75
20.43
19.29
17.96
16.23
14.01
11.34
8.34
5.14
1.88
-1.28
-4.23
-6.99
-9.70
-12.65
-16.19
-20.51
-25.53
-30.79
-35.46
-38.56
-39.20
-36.85
-31.59
-24.07
-15.29
-6.36
1.87
8.97
14.85
19.63
23.42
26.22
27.94
28.50
27.98
26.65
24.93
23.17
21.59
20.20
18.80
17.13
15.02
12.45
9.57
6.60
3.68
0.88
-1.86
-4.62
-7.43
-10.32
-13.35
-16.64
-20.41
-24.85
-29.90
-35.09
-39.60
-42.35
-42.38
-39.24
-33.12
-24.85
-15.66
-6.69
1.25
7.90
13.38
17.97
21.84
24.94
27.06
27.98
27.72
26.50
24.73
22.83
21.06
19.51
18.06
16.60
15.00
13.17
11.11
8.79
6.25
3.50
0.56
-2.54
-5.79
-9.20
-12.81
-16.68
-20.81
-25.21
-29.78
-34.29
-38.26
-41.02
-41.78
-39.92
-35.21
-28.02
-19.24
-10.05
-1.48
5.88
11.89
16.76
20.77
24.00
26.29
27.42
27.31
26.15
24.39
22.55
21.03
19.92
19.09
18.24
17.13
15.63
13.73
11.49
8.97
6.19
3.20
0.02
-3.34
-6.77
-10.23
-13.67
-17.13
-20.74
-24.67
-29.03
-33.63
-37.91
-40.90
-41.58
-39.21
-33.71
-25.75
-16.50
-7.23
1.11
8.10
13.76
18.29
21.89
24.64
26.55
27.63
28.02
27.86
27.34
26.56
25.55
24.35
22.96
21.40
19.68
17.79
15.70
13.36
10.74
7.82
4.63
1.24
-2.22
-5.61
-8.81
-11.79
-14.67
-17.71
-21.22
-25.51
-30.63
-36.21
-41.51
-45.44
-46.93
-45.30
-40.47
-33.06
-24.15
-14.92
-6.25
1.44
8.13
14.02
19.25
23.79
27.45
30.01
31.40
31.70
31.14
30.00
28.47
26.72
24.86
23.01
21.26
19.65
18.08
16.33
14.16
11.38
7.99
4.11
0.02
-4.05
-7.90
-11.42
-14.67
-17.80
-21.05
-24.72
-28.96
-33.69
-38.37
-42.13
-43.91
-42.86
-38.64
-31.62
-22.69
-13.03
-3.68
4.73
12.02
18.28
23.61
28.03
31.33
33.32
33.91
33.24
31.68
29.66
27.54
25.55
23.72
21.99
20.23
18.32
16.17
13.73
11.01
8.05
4.99
1.93
-1.07
-4.00
-6.91
-9.92
-13.13
-16.67
-20.72
-25.39
-30.62
-36.02
-40.83
-44.00
-44.54
-41.89
-36.15
-28.08
-18.84
-9.55
-0.96
6.61
13.20
18.91
23.74
27.54
30.05
31.07
30.59
28.81
26.19
23.23
20.39
17.95
15.99
14.36
12.81
11.09
9.02
6.55
3.68
0.49
-2.92
-6.40
-9.77
-12.89
-15.65
-18.13
-20.61
-23.53
-27.23
-31.80
-36.80
-41.33
-44.19
-44.31
-41.16
-34.87
-26.24
-16.42
-6.53
2.61
10.59
17.34
22.93
27.41
30.74
32.87
33.79
33.64
32.66
31.18
29.48
27.72
25.97
24.21
22.40
20.48
18.39
16.03
13.29
10.10
6.49
2.61
-1.33
-5.16
-8.81
-12.30
-15.65
-18.95
-22.29
-25.84
-29.78
-34.11
-38.48
-42.08
-43.87
-42.85
-38.55
-31.25
-21.91
-11.86
-2.30
6.02
12.88
18.39
22.81
26.26
28.69
29.98
30.14
29.38
28.06
26.59
25.27
24.19
23.25
22.25
21.02
19.54
17.88
16.14
14.39
12.55
10.50
8.11
5.32
2.21
-1.11
-4.53
-8.08
-11.89
-16.17
-21.06
-26.53
-32.19
-37.34
-41.00
-42.21
-40.30
-35.17
-27.44
-18.23
-8.85
-0.37
6.66
12.22
16.62
20.15
22.95
24.90
25.87
25.85
24.99
23.58
21.93
20.24
18.59
16.98
15.38
13.78
12.13
10.33
8.20
5.61
2.53
-0.91
-4.46
-7.85
-10.93
-13.76
-16.58
-19.74
-23.50
-27.92
-32.80
-37.61
-41.58
-43.86
-43.69
-40.65
-34.85
-26.88
-17.75
-8.51
-0.00
7.32
13.40
18.38
22.37
25.30
26.98
27.24
26.14
24.08
21.62
19.33
17.55
16.27
15.15
13.79
11.90
9.46
6.65
3.73
0.87
-1.87
-4.55
-7.22
-9.95
-12.77
-15.75
-19.03
-22.76
-27.00
-31.55
-35.86
-39.12
-40.38
-38.99
-34.78
-28.17
-20.04
-11.41
-3.16
4.23
10.65
16.17
20.83
24.51
26.99
28.06
27.73
26.26
24.13
21.86
19.82
18.17
16.81
15.52
14.03
12.13
9.73
6.91
3.81
0.62
-2.49
-5.47
-8.38
-11.39
-14.66
-18.32
-22.38
-26.83
-31.46
-35.93
-39.68
-41.97
-42.04
-39.32
-33.81
-26.07
-17.14
-8.11
0.18
7.39
13.63
19.13
23.97
27.93
30.62
31.74
31.31
29.74
27.65
25.65
24.10
23.05
22.31
21.58
20.59
19.12
17.06
14.33
11.02
7.22
3.15
-1.01
-5.12
-9.12
-13.05
-16.97
-21.03
-25.33
-29.94
-34.68
-39.04
-42.23
-43.32
-41.59
-36.83
-29.45
-20.35
-10.65
-1.27
7.23
14.68
21.12
26.55
30.92
34.02
35.75
36.13
35.41
33.95
32.09
30.06
27.95
25.77
23.50
21.15
18.73
16.22
13.59
10.78
7.76
4.55
1.26
-2.04
-5.30
-8.55
-11.86
-15.29
-18.97
-22.97
-27.31
-31.87
-36.25
-39.76
-41.56
-40.87
-37.24
-30.84
-22.34
-12.76
-3.16
5.70
13.41
19.92
25.29
29.51
32.47
33.96
33.89
32.40
29.95
27.19
24.70
22.83
21.51
20.35
18.90
16.83
14.08
10.86
7.48
4.15
0.95
-2.19
-5.34
-8.55
-11.80
-15.07
-18.44
-22.05
-26.03
-30.35
-34.69
-38.37
-40.57
-40.51
-37.74
-32.36
-24.96
-16.45
-7.80
0.26
7.30
13.19
17.99
21.72
24.39
26.00
26.56
26.23
25.24
23.87
22.37
20.92
19.61
18.44
17.32
16.09
14.59
12.70
10.37
7.65
4.63
1.40
-1.98
-5.46
-9.00
-12.53
-16.08
-19.69
-23.49
-27.51
-31.59
-35.19
-37.50
-37.69
-35.16
-29.91
-22.53
-13.96
-5.20
3.01
10.31
16.67
22.07
26.46
29.63
31.40
31.71
30.76
28.92
26.62
24.17
21.72
19.30
16.91
14.58
12.37
10.29
8.26
6.13
3.73
0.99
-2.02
-5.09
-8.00
-10.59
-12.91
-15.18
-17.75
-20.96
-24.97
-29.65
-34.51
-38.74
-41.38
-41.67
-39.18
-34.06
-26.91
-18.65
-10.14
-2.02
5.43
12.08
17.89
22.73
26.40
28.69
29.60
29.32
28.25
26.77
25.19
23.58
21.93
20.16
18.28
16.38
14.58
12.87
11.13
9.16
6.76
3.88
0.62
-2.80
-6.17
-9.39
-12.49
-15.60
-18.88
-22.45
-26.35
-30.46
-34.51
-38.02
-40.38
-40.99
-39.40
-35.48
-29.45
-21.91
-13.64
-5.46
2.04
8.53
14.02
18.65
22.55
25.73
28.03
29.26
29.32
28.35
26.64
24.59
22.52
20.60
18.83
17.13
15.37
13.45
11.31
8.94
6.41
3.83
1.32
-1.08
-3.42
-5.82
-8.45
-11.45
-14.89
-18.79
-23.02
-27.31
-31.17
-33.90
-34.71
-33.04
-28.74
-22.20
-14.25
-5.93
1.85
8.51
13.81
17.84
20.77
22.81
24.03
24.51
24.32
23.57
22.47
21.20
19.91
18.58
17.12
15.33
13.11
10.46
7.51
4.43
1.43
-1.40
-4.04
-6.59
-9.23
-12.17
-15.56
-19.43
-23.65
-27.88
-31.64
-34.42
-35.70
-35.10
-32.47
-27.88
-21.75
-14.70
-7.46
-0.67
5.25
10.14
14.03
17.00
19.07
20.22
20.48
19.95
18.82
17.34
15.72
13.99
12.15
10.13
7.95
5.69
3.44
1.23
-1.00
-3.37
-6.02
-8.96
-12.12
-15.40
-18.69
-22.00
-25.35
-28.66
-31.70
-33.95
-34.81
-33.78
-30.68
-25.71
-19.45
-12.57
-5.71
0.79
6.77
12.26
17.24
21.62
25.22
27.87
29.59
30.55
31.08
31.52
32.06
32.66
33.12
33.26
33.00
32.52
32.10
31.96
32.13
32.34
32.10
30.86
28.21
23.91
18.00
10.79
2.81
-5.20
-12.37
-17.91
-21.26
-22.28
-21.26
-18.84
-15.82
-12.89
-10.51
-8.82
-7.76
-7.14
-6.87
-6.88
-7.20
-7.80
-8.61
-9.42
-10.00
-10.18
-9.87
-9.17
-8.32
-7.57
-7.15
-7.16
-7.57
-8.14
-8.57
-8.49
-7.63
-5.96
-3.74
-1.53
-0.05
-0.07
-2.14
-6.53
-13.06
-21.14
-29.76
-37.64
-43.52
-46.47
-46.23
-43.22
-38.39
-32.78
-27.10
-21.64
-16.43
-11.64
-7.86
-6.07
-7.25
-11.84
-19.50
-29.07
-39.14
-48.41
-56.10
-61.97
-66.12
-68.80
-70.21
-70.55
-69.97
-68.59
-66.46
-63.52
-59.65
-54.76
-48.95
-42.53
-36.09
-30.21
-25.34
-21.49
-18.27
-15.02
-11.10
-6.14
-0.27
6.03
12.09
17.38
21.67
25.01
27.53
29.27
30.01
29.48
27.50
24.20
20.05
15.76
12.02
9.26
7.60
6.80
6.54
6.51
6.56
6.69
6.92
7.29
7.77
8.35
8.99
9.60
9.93
9.53
7.82
4.27
-1.20
-8.02
-14.97
-20.48
-23.08
-21.87
-16.87
-8.90
0.60
10.17
18.65
25.48
30.68
34.65
37.96
41.12
44.46
48.14
52.13
56.19
59.89
62.70
64.14
63.97
62.23
59.27
55.50
51.33
46.98
42.50
37.75
32.43
26.14
18.53
9.49
-0.73
-11.55
-22.09
-31.50
-39.01
-44.01
-46.05
-44.86
-40.43
-33.11
-23.58
-12.69
-1.25
10.19
21.31
31.98
42.06
51.39
59.78
66.97
72.67
76.55
78.35
78.00
75.75
72.18
67.93
63.44
58.74
53.53
47.41
40.27
32.43
24.50
17.11
10.66
5.17
0.42
-3.90
-7.99
-11.92
-15.62
-18.93
-21.62
-23.37
-23.78
-22.51
-19.37
-14.46
-8.17
-1.09
6.16
13.12
19.53
25.31
30.45
34.88
38.48
41.09
42.62
43.08
42.66
41.59
40.11
38.37
36.40
34.14
31.55
28.64
25.52
22.29
18.90
15.16
10.71
5.21
-1.55
-9.48
-18.27
-27.41
-36.39
-44.71
-51.89
-57.42
-60.84
-61.79
-60.21
-56.43
-51.13
-45.14
-39.21
-33.69
-28.56
-23.55
-18.42
-13.21
-8.27
-4.16
-1.36
-0.04
-0.01
-0.83
-2.01
-3.22
-4.32
-5.36
-6.37
-7.40
-8.45
-9.52
-10.65
-11.81
-12.85
-13.32
-12.74
-10.72
-7.28
-2.91
1.66
5.80
9.39
12.84
16.91
22.20
28.86
36.42
44.01
50.70
55.81
59.00
60.17
59.25
56.16
50.92
43.78
35.42
26.83
18.93
12.36
7.19
3.09
-0.48
-3.87
-7.10
-9.88
-11.84
-12.84
-12.97
-12.64
-12.34
-12.53
-13.46
-15.16
-17.48
-20.03
-22.37
-24.00
-24.53
-23.73
-21.60
-18.25
-13.95
-8.96
-3.51
2.22
8.03
13.59
18.38
21.75
23.05
21.97
18.88
14.90
11.70
10.93
13.55
19.41
27.15
34.72
40.12
42.02
40.13
35.04
27.81
19.47
10.71
1.88
-6.97
-15.86
-24.77
-33.67
-42.48
-51.03
-59.09
-66.28
-72.10
-76.04
-77.73
-77.07
-74.32
-70.07
-64.99
-59.78
-54.94
-50.78
-47.49
-45.16
-43.82
-43.44
-43.92
-45.06
-46.59
-48.23
-49.72
-50.86
-51.45
-51.33
-50.37
-48.47
-45.61
-41.90
-37.59
-33.01
-28.59
-24.63
-21.18
-18.02
-14.71
-10.79
-5.98
-0.34
5.92
12.45
19.05
25.63
32.17
38.57
44.59
49.87
54.06
56.94
58.48
58.83
58.21
56.83
54.87
52.48
49.77
46.86
43.85
40.85
37.95
35.23
32.66
30.21
27.74
25.11
22.16
18.84
15.16
11.25
7.27
3.32
-0.62
-4.72
-9.24
-14.38
-20.24
-26.70
-33.46
-40.03
-45.90
-50.54
-53.54
-54.68
-53.93
-51.51
-47.76
-43.08
-37.78
-32.08
-26.14
-20.12
-14.31
-8.99
-4.52
-1.09
1.26
2.62
3.19
3.12
2.47
1.25
-0.56
-2.94
-5.83
-9.11
-12.68
-16.41
-20.12
-23.60
-26.53
-28.57
-29.44
-29.01
-27.41
-24.99
-22.30
-19.93
-18.48
-18.45
-20.14
-23.54
-28.28
-33.72
-39.13
-44.03
-48.28
-52.05
-55.61
-58.91
-61.42
-62.20
-60.15
-54.47
-44.98
-32.20
-17.19
-1.21
14.67
29.68
43.45
55.84
66.75
76.11
83.82
89.89
94.42
97.50
99.12
99.08
97.19
93.35
87.87
81.38
74.67
68.43
62.99
58.28
53.98
49.76
45.37
40.86
36.52
32.84
30.46
29.94
31.61
35.35
40.59
46.45
52.03
56.71
60.26
62.89
64.90
66.55
67.93
68.95
69.50
69.67
69.72
70.01
70.91
72.53
74.72
77.10
79.17
80.49
80.75
79.77
77.46
73.74
68.44
61.33
52.08
40.46
26.34
9.84
-8.67
-28.71
-49.51
-70.16
-89.44
-105.99
-118.45
-125.79
-127.61
-124.31
-117.03
-107.33
-96.87
-86.99
-78.60
-72.19
-67.84
-65.41
-64.61
-65.07
-66.36
-68.04
-69.64
-70.79
-71.19
-70.76
-69.57
-67.79
-65.63
-63.13
-60.27
-57.02
-53.40
-49.68
-46.31
-43.76
-42.34
-42.06
-42.46
-42.77
-42.07
-39.61
-35.05
-28.61
-21.03
-13.26
-6.15
-0.16
4.67
8.54
11.74
14.44
16.67
18.41
19.71
20.59
21.11
21.28
21.06
20.38
19.14
17.29
14.74
11.45
7.44
2.92
-1.81
-6.37
-10.54
-14.32
-17.98
-21.93
-26.55
-32.11
-38.63
-45.88
-53.34
-60.29
-65.89
-69.49
-70.71
-69.51
-66.13
-60.88
-54.02
-45.88
-36.91
-27.80
-19.30
-12.02
-6.15
-1.38
2.87
7.14
11.60
16.09
20.23
23.73
26.57
28.90
30.94
32.81
34.52
36.01
37.37
38.76
40.35
42.12
43.76
44.65
44.03
41.33
36.29
29.12
20.50
11.42
3.04
-3.48
-7.29
-7.97
-5.71
-1.17
4.65
10.75
16.32
20.86
24.14
26.13
26.92
26.64
25.50
23.76
21.72
19.71
18.02
16.91
16.57
17.08
18.39
20.30
22.54
24.85
27.03
29.03
30.86
32.56
34.14
35.55
36.69
37.44
37.66
37.22
36.02
34.02
31.33
28.23
25.11
22.38
20.29
18.87
17.88
16.93
15.70
13.99
11.79
9.20
6.28
2.95
-0.90
-5.43
-10.56
-16.06
-21.47
-26.33
-30.28
-33.20
-35.17
-36.40
-37.12
-37.50
-37.65
-37.59
-37.36
-37.05
-36.81
-36.82
-37.27
-38.35
-40.14
-42.65
-45.78
-49.29
-52.80
-55.81
-57.76
-58.14
-56.60
-53.05
-47.71
-41.07
-33.66
-26.01
-18.45
-11.21
-4.53
1.31
5.98
9.22
10.94
11.35
10.90
10.10
9.38
8.89
8.57
8.19
7.55
6.55
5.24
3.77
2.31
0.92
-0.46
-2.03
-4.04
-6.71
-10.14
-14.19
-18.58
-22.83
-26.37
-28.60
-29.04
-27.38
-23.63
-18.09
-11.31
-3.92
3.50
10.54
16.95
22.60
27.33
30.96
33.35
34.42
34.33
33.40
32.01
30.50
29.07
27.70
26.24
24.57
22.59
20.32
17.88
15.39
12.93
10.48
7.94
5.12
1.82
-2.10
-6.66
-11.67
-16.76
-21.31
-24.65
-26.11
-25.28
-22.10
-16.94
-10.46
-3.46
3.32
9.46
14.80
19.34
23.13
26.10
28.04
28.78
28.30
26.89
25.06
23.38
22.21
21.60
21.24
20.67
19.54
17.74
15.47
13.10
10.89
8.91
6.96
4.70
1.84
-1.73
-5.93
-10.52
-15.25
-19.81
-23.78
-26.61
-27.69
-26.51
-22.95
-17.32
-10.35
-2.90
4.34
10.98
16.91
22.11
26.47
29.76
31.72
32.28
31.65
30.25
28.62
27.15
26.00
25.11
24.25
23.17
21.69
19.69
17.14
14.09
10.67
7.06
3.47
0.06
-3.12
-6.16
-9.32
-12.84
-16.92
-21.52
-26.36
-30.85
-34.24
-35.76
-34.89
-31.46
-25.82
-18.67
-10.88
-3.24
3.70
9.69
14.71
18.85
22.16
24.62
26.14
26.68
26.32
25.22
23.69
22.06
20.55
19.31
18.24
17.21
16.02
14.55
12.77
10.70
8.38
5.86
3.15
0.28
-2.71
-5.80
-8.98
-12.33
-15.99
-20.12
-24.75
-29.67
-34.34
-37.93
-39.62
-38.76
-35.17
-29.20
-21.62
-13.33
-5.12
2.50
9.26
15.09
19.88
23.58
26.09
27.42
27.72
27.29
26.46
25.53
24.64
23.81
22.97
22.03
20.89
19.49
17.76
15.63
13.06
10.07
6.75
3.26
-0.18
-3.43
-6.43
-9.21
-11.92
-14.81
-18.12
-21.92
-26.03
-29.90
-32.71
-33.61
-32.07
-28.03
-22.02
-14.92
-7.66
-0.95
4.87
9.83
14.09
17.79
20.94
23.37
24.87
25.35
24.87
23.66
22.11
20.54
19.17
18.04
17.04
15.96
14.59
12.82
10.68
8.26
5.71
3.18
0.69
-1.82
-4.51
-7.50
-10.88
-14.61
-18.63
-22.79
-26.90
-30.61
-33.39
-34.59
-33.62
-30.22
-24.61
-17.51
-9.89
-2.58
3.88
9.41
14.16
18.30
21.83
24.57
26.27
26.80
26.22
24.81
22.97
21.07
19.40
18.06
17.00
16.03
14.89
13.37
11.38
8.94
6.20
3.36
0.53
-2.28
-5.10
-7.97
-10.89
-13.84
-16.84
-19.99
-23.44
-27.20
-30.97
-34.10
-35.72
-35.07
-31.76
-26.03
-18.63
-10.58
-2.80
4.16
10.10
15.12
19.28
22.56
24.79
25.86
25.75
24.67
22.97
20.99
19.03
17.27
15.75
14.47
13.41
12.44
11.42
10.16
8.50
6.40
3.92
1.25
-1.46
-4.10
-6.68
-9.31
-12.14
-15.37
-19.16
-23.52
-28.22
-32.69
-36.09
-37.53
-36.38
-32.52
-26.44
-19.09
-11.48
-4.39
1.81
7.16
11.83
15.95
19.45
22.16
23.91
24.70
24.67
24.05
23.10
21.96
20.71
19.39
18.05
16.74
15.48
14.23
12.85
11.24
9.26
6.93
4.34
1.60
-1.15
-3.83
-6.46
-9.07
-11.74
-14.65
-17.92
-21.65
-25.70
-29.68
-32.92
-34.62
-34.17
-31.29
-26.22
-19.61
-12.31
-5.13
1.36
6.91
11.45
15.05
17.74
19.52
20.43
20.57
20.12
19.35
18.50
17.74
17.12
16.59
16.03
15.35
14.45
13.28
11.76
9.89
7.67
5.12
2.32
-0.70
-3.88
-7.13
-10.40
-13.69
-17.05
-20.56
-24.31
-28.18
-31.79
-34.52
-35.65
-34.61
-31.22
-25.80
-19.03
-11.75
-4.73
1.53
6.79
11.03
14.29
16.64
18.11
18.78
18.75
18.19
17.32
16.34
15.39
14.59
13.93
13.31
12.55
11.43
9.82
7.70
5.20
2.58
0.06
-2.27
-4.49
-6.80
-9.38
-12.31
-15.57
-19.12
-22.88
-26.69
-30.21
-32.82
-33.77
-32.36
-28.34
-22.03
-14.26
-6.14
1.42
7.87
13.10
17.25
20.51
22.96
24.54
25.23
25.08
24.30
23.12
21.78
20.39
19.01
17.63
16.24
14.84
13.40
11.86
10.13
8.13
5.83
3.23
0.39
-2.70
-6.00
-9.60
-13.57
-17.93
-22.59
-27.27
-31.48
-34.62
-36.05
-35.37
-32.50
-27.81
-21.93
-15.60
-9.40
-3.69
1.39
5.84
9.67
12.82
15.24
16.92
17.90
18.28
18.20
17.84
17.38
17.00
16.85
16.96
17.25
17.49
17.41
16.91
15.99
14.84
13.60
12.32
10.85
8.91
6.25
2.74
-1.57
-6.48
-11.71
-16.82
-21.33
-24.60
-26.02
-25.16
-21.93
-16.65
-10.04
-2.99
3.69
9.36
13.70
16.63
18.22
18.59
17.89
16.25
13.91
11.23
8.59
6.33
4.61
3.36
2.31
1.14
-0.32
-2.09
-3.95
-5.66
-7.07
-8.19
-9.22
-10.42
-12.04
-14.18
-16.85
-19.97
-23.46
-27.30
-31.38
-35.44
-38.96
-41.18
-41.39
-39.13
-34.44
-27.84
-20.16
-12.22
-4.66
2.20
8.23
13.36
17.52
20.60
22.54
23.36
23.26
22.51
21.42
20.27
19.24
18.37
17.58
16.71
15.54
13.92
11.83
9.34
6.60
3.77
0.98
-1.67
-4.16
-6.49
-8.73
-11.02
-13.53
-16.45
-19.87
-23.69
-27.51
-30.70
-32.46
-32.09
-29.25
-24.09
-17.25
-9.64
-2.20
4.44
10.00
14.51
18.11
20.87
22.75
23.62
23.45
22.39
20.81
19.11
17.64
16.56
15.79
15.12
14.25
13.00
11.29
9.20
6.86
4.45
2.07
-0.26
-2.63
-5.14
-7.93
-11.08
-14.64
-18.56
-22.63
-26.47
-29.49
-31.03
-30.51
-27.65
-22.61
-15.99
-8.67
-1.51
4.85
10.13
14.31
17.51
19.83
21.29
21.87
21.60
20.60
19.17
17.63
16.29
15.34
14.75
14.31
13.72
12.75
11.22
9.17
6.80
4.31
1.92
-0.34
-2.51
-4.73
-7.12
-9.76
-12.71
-15.98
-19.53
-23.18
-26.51
-28.91
-29.70
-28.40
-24.88
-19.51
-13.03
-6.30
-0.04
5.32
9.70
13.18
15.89
17.86
19.03
19.41
19.08
18.28
17.35
16.57
16.02
15.56
14.89
13.71
11.90
9.57
6.97
4.36
1.85
-0.60
-3.19
-6.10
-9.36
-12.90
-16.58
-20.31
-24.08
-27.89
-31.60
-34.82
-36.95
-37.35
-35.60
-31.67
-25.94
-19.02
-11.53
-3.89
3.69
11.03
17.95
24.08
29.04
32.54
34.56
35.41
35.62
35.74
36.15
36.95
37.90
38.59
38.56
37.49
35.27
32.06
28.22
24.19
20.39
17.05
14.24
11.89
9.83
7.79
5.40
2.16
-2.44
-8.71
-16.54
-25.19
-33.39
-39.75
-43.18
-43.32
-40.60
-36.01
-30.67
-25.44
-20.73
-16.57
-12.85
-9.45
-6.42
-3.93
-2.08
-0.90
-0.23
0.17
0.54
0.98
1.51
2.01
2.36
2.45
2.25
1.74
0.89
-0.29
-1.81
-3.61
-5.57
-7.55
-9.45
-11.26
-13.05
-15.00
-17.29
-20.13
-23.51
-27.16
-30.50
-32.73
-33.08
-31.08
-26.76
-20.68
-13.68
-6.65
-0.21
5.36
10.08
14.10
17.54
20.37
22.45
23.61
23.77
23.01
21.60
19.94
18.41
17.23
16.38
15.58
14.47
12.75
10.35
7.35
4.05
0.79
-2.22
-4.91
-7.39
-9.92
-12.72
-15.96
-19.69
-23.81
-28.13
-32.25
-35.68
-37.83
-38.19
-36.39
-32.45
-26.80
-20.12
-13.19
-6.52
-0.30
5.61
11.41
17.14
22.50
26.98
30.06
31.48
31.39
30.33
28.97
27.92
27.51
27.72
28.26
28.69
28.64
27.90
26.46
24.44
22.01
19.26
16.19
12.78
9.03
4.97
0.68
-3.87
-8.69
-13.66
-18.40
-22.21
-24.18
-23.58
-20.18
-14.40
-7.26
0.03
6.41
11.31
14.72
16.99
18.65
20.08
21.46
22.71
23.61
23.94
23.54
22.39
20.55
18.16
15.37
12.33
9.22
6.19
3.39
0.86
-1.41
-3.51
-5.54
-7.61
-9.81
-12.24
-15.04
-18.33
-22.28
-26.95
-32.26
-37.91
-43.30
-47.62
-49.96
-49.53
-45.98
-39.46
-30.71
-20.77
-10.74
-1.44
6.68
13.45
18.87
22.99
25.85
27.52
28.19
28.10
27.52
26.58
25.24
23.41
21.02
18.17
15.16
12.30
9.79
7.58
5.35
2.75
-0.43
-4.12
-8.00
-11.71
-14.99
-17.84
-20.50
-23.37
-26.81
-31.08
-36.14
-41.63
-46.81
-50.72
-52.33
-50.95
-46.33
-38.88
-29.48
-19.27
-9.28
-0.20
7.68
14.40
20.16
25.06
29.11
32.20
34.16
34.95
34.60
33.30
31.25
28.67
25.77
22.79
20.04
17.77
16.17
15.22
14.66
14.04
12.94
11.12
8.64
5.80
2.99
0.44
-1.93
-4.43
-7.52
-11.51
-16.36
-21.66
-26.69
-30.55
-32.52
-32.16
-29.48
-24.88
-19.09
-12.94
-7.13
-2.11
1.99
5.23
7.80
9.81
11.31
12.28
12.76
12.85
12.72
12.54
12.41
12.29
12.08
11.67
11.04
10.23
9.37
8.52
7.63
6.61
5.28
3.53
1.33
-1.28
-4.26
-7.54
-11.09
-14.88
-18.86
-22.92
-26.86
-30.29
-32.67
-33.43
-32.12
-28.61
-23.19
-16.55
-9.53
-2.91
2.77
7.35
10.91
13.64
15.66
17.02
17.70
17.69
17.13
16.19
15.17
14.33
13.81
13.58
13.45
13.14
12.42
11.16
9.37
7.18
4.74
2.15
-0.55
-3.37
-6.27
-9.21
-12.14
-15.04
-18.06
-21.34
-24.90
-28.52
-31.64
-33.53
-33.48
-31.09
-26.43
-20.10
-12.99
-6.04
0.10
5.14
9.18
12.45
15.21
17.47
19.06
19.75
19.45
18.33
16.81
15.40
14.50
14.18
14.24
14.22
13.75
12.58
10.76
8.54
6.20
3.91
1.68
-0.60
-3.09
-5.84
-8.82
-11.95
-15.15
-18.40
-21.63
-24.65
-26.96
-27.94
-27.02
-23.96
-18.98
-12.77
-6.20
-0.07
5.18
9.45
12.88
15.62
17.69
19.00
19.49
19.24
18.56
17.82
17.35
17.27
17.43
17.49
17.11
16.09
14.47
12.46
10.33
8.26
6.23
4.11
1.69
-1.10
-4.23
-7.58
-11.08
-14.81
-18.96
-23.68
-28.85
-33.90
-37.90
-39.85
-39.07
-35.43
-29.47
-22.17
-14.59
-7.58
-1.55
3.47
7.65
11.21
14.26
16.79
18.72
20.00
20.63
20.65
20.18
19.38
18.42
17.46
16.56
15.68
14.68
13.37
11.57
9.28
6.61
3.74
0.84
-2.04
-4.88
-7.79
-10.83
-14.08
-17.65
-21.53
-25.67
-29.78
-33.32
-35.64
-36.08
-34.27
-30.25
-24.52
-17.82
-10.98
-4.62
0.88
5.44
9.13
12.10
14.42
16.10
17.08
17.39
17.16
16.61
15.98
15.46
15.08
14.81
14.48
13.98
13.17
11.95
10.29
8.17
5.71
3.07
0.43
-2.11
-4.56
-7.08
-9.84
-13.02
-16.64
-20.65
-24.82
-28.80
-32.08
-34.01
-33.98
-31.64
-27.03
-20.65
-13.33
-5.97
0.76
6.54
11.32
15.23
18.35
20.74
22.38
23.32
23.68
23.64
23.33
22.92
22.47
22.03
21.65
21.30
20.88
20.23
19.19
17.63
15.55
13.03
10.23
7.28
4.29
1.30
-1.68
-4.66
-7.74
-11.07
-14.73
-18.61
-22.33
-25.23
-26.56
-25.73
-22.57
-17.43
-11.00
-4.14
2.41
8.17
12.90
16.60
19.38
21.40
22.80
23.64
23.89
23.48
22.35
20.61
18.54
16.52
14.90
13.82
13.18
12.68
12.00
10.94
9.49
7.77
5.96
4.15
2.31
0.30
-2.01
-4.76
-7.97
-11.58
-15.42
-19.21
-22.56
-25.01
-26.09
-25.46
-22.94
-18.69
-13.15
-6.98
-0.86
4.66
9.26
12.89
15.63
17.62
18.96
19.70
19.88
19.56
18.80
17.77
16.62
15.48
14.40
13.31
12.07
10.52
8.58
6.30
3.87
1.48
-0.76
-2.93
-5.26
-7.95
-11.12
-14.70
-18.53
-22.33
-25.86
-28.84
-30.88
-31.53
-30.37
-27.16
-22.01
-15.43
-8.20
-1.12
5.13
10.24
14.16
17.02
19.04
20.32
20.89
20.73
19.84
18.36
16.55
14.73
13.17
11.94
10.92
9.80
8.34
6.42
4.14
1.73
-0.63
-2.87
-5.11
-7.60
-10.58
-14.16
-18.34
-22.92
-27.58
-31.86
-35.15
-36.79
-36.24
-33.28
-28.16
-21.56
-14.37
-7.44
-1.29
3.96
8.47
12.47
15.98
18.84
20.82
21.76
21.78
21.15
20.28
19.46
18.82
18.35
17.93
17.41
16.69
15.71
14.38
12.66
10.53
7.95
4.97
1.60
-2.17
-6.33
-10.85
-15.64
-20.54
-25.34
-29.73
-33.32
-35.63
-36.18
-34.67
-31.06
-25.69
-19.19
-12.31
-5.71
0.26
5.47
9.97
13.82
17.03
19.51
21.20
22.09
22.27
21.92
21.21
20.33
19.40
18.47
17.48
16.33
14.91
13.10
10.87
8.27
5.39
2.37
-0.69
-3.72
-6.67
-9.51
-12.28
-15.11
-18.17
-21.64
-25.49
-29.42
-32.83
-34.91
-34.94
-32.56
-27.85
-21.38
-14.01
-6.57
0.28
6.22
11.17
15.21
18.40
20.78
22.37
23.24
23.63
23.79
23.91
24.07
24.13
23.93
23.38
22.49
21.38
20.15
18.81
17.23
15.25
12.74
9.72
6.38
2.92
-0.47
-3.70
-6.80
-9.84
-12.98
-16.35
-20.07
-24.12
-28.24
-31.92
-34.47
-35.25
-33.81
-30.13
-24.59
-17.89
-10.72
-3.68
2.93
8.95
14.27
18.77
22.32
24.85
26.39
27.14
27.38
27.36
27.22
26.98
26.59
26.01
25.28
24.46
23.62
22.79
21.87
20.69
19.10
17.00
14.40
11.39
8.12
4.70
1.25
-2.17
-5.53
-8.82
-12.12
-15.57
-19.28
-23.20
-27.05
-30.31
-32.34
-32.59
-30.82
-27.17
-22.11
-16.27
-10.22
-4.36
1.12
6.17
10.69
14.54
17.52
19.44
20.25
20.08
19.18
17.91
16.58
15.43
14.55
13.92
13.43
12.96
12.36
11.50
10.33
8.74
6.70
4.24
1.48
-1.37
-4.08
-6.51
-8.65
-10.67
-12.89
-15.62
-19.10
-23.31
-27.92
-32.31
-35.62
-37.02
-35.96
-32.35
-26.63
-19.60
-12.15
-4.99
1.46
7.09
11.93
16.05
19.41
21.99
23.78
24.87
25.45
25.75
25.95
26.11
26.15
25.93
25.31
24.25
22.79
21.11
19.36
17.60
15.72
13.54
10.86
7.63
4.02
0.35
-3.06
-6.04
-8.60
-11.01
-13.58
-16.59
-20.19
-24.29
-28.56
-32.40
-35.13
-36.09
-34.85
-31.34
-25.86
-19.05
-11.67
-4.44
2.11
7.63
12.02
15.37
17.82
19.56
20.75
21.45
21.71
21.56
21.05
20.27
19.27
18.10
16.73
15.21
13.61
12.05
10.64
9.37
8.07
6.43
4.11
0.91
-3.15
-7.78
-12.51
-16.92
-20.74
-23.99
-26.98
-30.20
-34.21
-39.32
-45.49
-52.16
-58.41
-63.10
-65.26
-64.41
-60.68
-54.79
-47.82
-40.92
-34.93
-30.22
-26.58
-23.40
-19.86
-15.27
-9.22
-1.79
6.55
15.11
23.21
30.38
36.42
41.36
45.35
48.56
51.14
53.23
54.96
56.41
57.49
57.96
57.43
55.54
52.06
47.10
41.07
34.56
28.13
22.10
16.41
10.64
4.20
-3.34
-11.99
-21.16
-29.73
-36.36
-39.91
-39.71
-35.89
-29.18
-20.71
-11.66
-2.97
4.77
11.31
16.64
20.84
23.93
25.97
26.92
26.82
25.75
23.83
21.22
18.09
14.59
10.93
7.35
4.07
1.22
-1.19
-3.33
-5.41
-7.54
-9.72
-11.75
-13.35
-14.26
-14.30
-13.53
-12.19
-10.66
-9.39
-8.77
-9.06
-10.24
-12.11
-14.20
-15.96
-16.81
-16.31
-14.27
-10.77
-6.22
-1.12
3.95
8.57
12.53
15.81
18.48
20.60
22.20
23.22
23.62
23.38
22.59
21.40
20.00
18.52
17.02
15.49
13.89
12.18
10.40
8.54
6.59
4.47
2.08
-0.64
-3.62
-6.73
-9.80
-12.76
-15.67
-18.69
-22.01
-25.70
-29.57
-33.14
-35.77
-36.80
-35.80
-32.73
-27.95
-22.16
-16.12
-10.51
-5.69
-1.79
1.31
3.73
5.58
6.84
7.49
7.50
6.97
6.15
5.36
4.91
4.97
5.44
6.06
6.46
6.36
5.63
4.43
2.99
1.53
0.10
-1.43
-3.31
-5.74
-8.86
-12.65
-17.00
-21.71
-26.44
-30.73
-33.94
-35.41
-34.61
-31.35
-25.86
-18.79
-10.99
-3.27
3.80
9.96
15.23
19.75
23.60
26.80
29.28
30.99
31.94
32.27
32.16
31.77
31.12
30.14
28.60
26.37
23.39
19.77
15.75
11.54
7.26
2.92
-1.57
-6.29
-11.27
-16.40
-21.48
-26.20
-30.19
-33.01
-34.24
-33.61
-31.08
-26.95
-21.78
-16.18
-10.73
-5.74
-1.35
2.40
5.47
7.74
9.08
9.44
8.93
7.88
6.71
5.81
5.37
5.36
5.57
5.70
5.49
4.82
3.73
2.35
0.89
-0.47
-1.63
-2.60
-3.51
-4.63
-6.21
-8.40
-11.13
-14.01
-16.43
-17.71
-17.30
-15.01
-11.00
-5.79
-0.02
5.70
10.92
15.41
19.04
21.76
23.56
24.41
24.36
23.54
22.16
20.49
18.78
17.22
15.86
14.65
13.48
12.24
10.86
9.36
7.78
6.15
4.47
2.70
0.80
-1.31
-3.67
-6.35
-9.43
-12.91
-16.69
-20.43
-23.63
-25.68
-26.07
-24.54
-21.18
-16.42
-10.88
-5.27
-0.12
4.25
7.77
10.57
12.81
14.60
15.99
16.94
17.42
17.52
17.35
17.06
16.74
16.38
15.82
14.92
13.55
11.72
9.58
7.32
5.12
3.05
1.06
-1.03
-3.37
-6.05
-8.99
-11.98
-14.76
-17.08
-18.72
-19.47
-19.07
-17.29
-14.00
-9.37
-3.86
1.83
7.01
11.19
14.24
16.28
17.52
18.13
18.10
17.38
15.96
14.03
11.87
9.83
8.12
6.71
5.42
3.98
2.23
0.16
-2.04
-4.16
-6.05
-7.72
-9.34
-11.10
-13.15
-15.49
-18.06
-20.73
-23.37
-25.78
-27.67
-28.63
-28.19
-25.98
-21.95
-16.35
-9.78
-2.96
3.46
9.07
13.68
17.28
19.96
21.78
22.79
23.06
22.69
21.88
20.80
19.59
18.30
16.90
15.35
13.65
11.88
10.14
8.49
6.93
5.41
3.90
2.39
0.94
-0.42
-1.75
-3.22
-5.01
-7.23
-9.83
-12.48
-14.72
-15.99
-15.86
-14.10
-10.88
-6.63
-1.99
2.43
6.19
9.08
11.16
12.57
13.46
13.95
14.06
13.76
13.06
12.06
10.90
9.81
8.91
8.25
7.72
7.13
6.28
5.04
3.45
1.64
-0.22
-2.01
-3.74
-5.44
-7.22
-9.11
-11.15
-13.30
-15.55
-17.84
-20.00
-21.75
-22.69
-22.47
-20.87
-18.01
-14.29
-10.26
-6.41
-3.01
-0.09
2.48
4.71
6.52
7.69
8.07
7.67
6.71
5.55
4.52
3.84
3.53
3.50
3.52
3.38
2.90
2.05
0.89
-0.39
-1.61
-2.68
-3.66
-4.71
-6.02
-7.70
-9.75
-12.11
-14.64
-17.15
-19.42
-21.11
-21.88
-21.47
-19.76
-16.92
-13.32
-9.42
-5.69
-2.42
0.22
2.20
3.55
4.31
4.53
4.24
3.52
2.48
1.26
0.09
-0.88
-1.51
-1.77
-1.71
-1.39
-0.87
-0.18
0.65
1.59
2.54
3.37
3.99
4.31
4.30
3.93
3.10
1.73
-0.22
-2.61
-5.10
-7.22
-8.47
-8.58
-7.58
-5.72
-3.41
-1.03
1.17
3.03
4.48
5.40
5.69
5.26
4.09
2.32
0.19
-1.98
-3.90
-5.34
-6.16
-6.28
-5.72
-4.53
-2.88
-1.02
0.77
2.20
3.11
3.44
3.26
2.68
1.85
0.83
-0.35
-1.72
-3.33
-5.13
-7.06
-8.93
-10.49
-11.48
-11.68
-11.02
-9.59
-7.60
-5.31
-2.99
-0.76
1.32
3.30
5.17
6.90
8.44
9.71
10.65
11.26
11.60
11.68
11.52
11.06
10.29
9.20
7.87
6.38
4.78
3.08
1.25
-0.74
-2.88
-5.06
-7.18
-9.14
-10.94
-12.64
-14.28
-15.84
-17.17
-17.96
-17.94
-16.87
-14.72
-11.66
-8.02
-4.20
-0.60
2.50
4.91
6.59
7.53
7.80
7.51
6.82
5.95
5.11
4.51
4.19
4.10
4.03
3.76
3.11
2.05
0.70
-0.77
-2.17
-3.39
-4.42
-5.31
-6.17
-7.05
-7.98
-8.98
-10.07
-11.28
-12.61
-13.94
-14.99
-15.40
-14.85
-13.20
-10.63
-7.57
-4.56
-1.99
-0.05
1.33
2.33
3.09
3.63
3.87
3.76
3.34
2.78
2.31
2.13
2.30
2.74
3.22
3.53
3.51
3.11
2.41
1.49
0.49
-0.56
-1.70
-2.98
-4.50
-6.35
-8.59
-11.22
-14.15
-17.15
-19.84
-21.71
-22.31
-21.34
-18.84
-15.14
-10.78
-6.29
-2.08
1.63
4.77
7.33
9.24
10.45
10.95
10.83
10.31
9.67
9.10
8.66
8.29
7.87
7.36
6.79
6.26
5.85
5.54
5.23
4.76
4.03
3.03
1.78
0.34
-1.25
-2.99
-4.88
-6.91
-9.07
-11.28
-13.45
-15.42
-16.98
-17.89
-17.93
-16.95
-14.96
-12.16
-8.82
-5.28
-1.81
1.38
4.23
6.70
8.76
10.35
11.39
11.87
11.87
11.59
11.25
11.02
10.90
10.78
10.51
9.98
9.18
8.23
7.18
6.07
4.88
3.54
2.06
0.54
-0.92
-2.23
-3.41
-4.59
-5.88
-7.37
-9.14
-11.20
-13.50
-15.97
-18.39
-20.46
-21.74
-21.88
-20.69
-18.25
-14.93
-11.19
-7.46
-3.99
-0.79
2.16
4.87
7.27
9.16
10.45
11.18
11.55
11.82
12.20
12.71
13.25
13.63
13.66
13.30
12.58
11.66
10.70
9.83
9.08
8.33
7.37
6.04
4.26
2.14
-0.10
-2.20
-4.05
-5.75
-7.49
-9.49
-11.90
-14.69
-17.68
-20.62
-23.17
-24.97
-25.72
-25.23
-23.49
-20.73
-17.28
-13.47
-9.62
-5.91
-2.46
0.65
3.32
5.48
7.07
8.11
8.70
9.01
9.17
9.31
9.48
9.71
9.99
10.32
10.67
10.96
11.12
11.05
10.71
10.05
9.08
7.78
6.07
3.87
1.19
-1.78
-4.73
-7.35
-9.52
-11.40
-13.41
-15.96
-19.27
-23.20
-27.29
-30.90
-33.46
-34.64
-34.38
-32.91
-30.57
-27.80
-25.00
-22.41
-20.12
-18.14
-16.40
-14.89
-13.63
-12.64
-11.83
-11.05
-10.08
-8.77
-7.10
-5.15
-3.08
-1.02
0.94
2.78
4.44
5.86
6.92
7.48
7.47
6.92
5.96
4.81
3.68
2.75
2.06
1.49
0.88
0.08
-0.93
-2.03
-2.96
-3.38
-2.96
-1.42
1.42
5.54
10.75
16.60
22.56
28.08
32.82
36.69
39.87
42.58
44.99
47.10
48.78
49.87
50.34
50.30
49.95
49.44
48.80
47.88
46.44
44.27
41.32
37.67
33.56
29.30
25.13
21.24
17.69
14.48
11.53
8.74
5.99
3.18
0.22
-2.84
-5.84
-8.45
-10.23
-10.82
-10.01
-7.92
-4.93
-1.60
1.53
4.11
6.01
7.28
8.03
8.36
8.25
7.68
6.65
5.20
3.45
1.51
-0.55
-2.70
-4.90
-7.07
-9.08
-10.74
-11.93
-12.66
-13.00
-13.10
-13.09
-13.17
-13.50
-14.29
-15.69
-17.78
-20.41
-23.21
-25.67
-27.25
-27.52
-26.33
-23.79
-20.20
-15.95
-11.41
-6.89
-2.61
1.23
4.50
7.01
8.67
9.46
9.52
9.13
8.59
8.17
7.95
7.83
7.61
7.09
6.19
4.96
3.56
2.11
0.73
-0.64
-2.07
-3.68
-5.53
-7.68
-10.16
-12.90
-15.78
-18.52
-20.71
-21.84
-21.49
-19.46
-15.87
-11.12
-5.83
-0.61
4.05
7.91
10.93
13.20
14.87
16.03
16.69
16.85
16.53
15.84
14.93
13.92
12.89
11.75
10.38
8.71
6.77
4.72
2.78
1.08
-0.35
-1.72
-3.27
-5.25
-7.79
-10.83
-14.14
-17.33
-19.95
-21.56
-21.81
-20.57
-17.93
-14.15
-9.59
-4.67
0.24
4.84
8.90
12.23
14.77
16.50
17.45
17.69
17.33
16.51
15.39
14.15
12.98
11.98
11.19
10.55
9.92
9.15
8.13
6.77
5.08
3.09
0.89
-1.39
-3.69
-6.01
-8.39
-10.97
-13.85
-16.96
-20.06
-22.70
-24.30
-24.35
-22.58
-19.09
-14.30
-8.84
-3.36
1.69
6.10
9.80
12.80
15.07
16.52
17.13
16.96
16.23
15.24
14.29
13.54
12.99
12.52
11.92
11.01
9.65
7.82
5.56
3.08
0.59
-1.73
-3.78
-5.62
-7.43
-9.44
-11.83
-14.65
-17.83
-21.15
-24.26
-26.71
-28.05
-27.83
-25.84
-22.14
-17.09
-11.30
-5.46
-0.17
4.23
7.60
10.09
11.92
13.29
14.33
15.11
15.68
16.09
16.45
16.86
17.35
17.80
18.02
17.80
16.99
15.61
13.78
11.67
9.40
7.09
4.76
2.46
0.22
-1.97
-4.17
-6.48
-8.99
-11.67
-14.33
-16.59
-17.94
-17.86
-16.08
-12.60
-7.82
-2.42
2.84
7.33
10.74
13.12
14.76
15.93
16.77
17.19
16.98
16.03
14.48
12.66
11.04
9.95
9.42
9.21
8.94
8.25
7.05
5.45
3.69
2.04
0.60
-0.73
-2.17
-3.96
-6.24
-9.09
-12.44
-16.14
-19.92
-23.35
-25.93
-27.16
-26.71
-24.48
-20.76
-16.04
-10.93
-5.91
-1.33
2.68
6.07
8.84
10.94
12.30
12.91
12.82
12.23
11.45
10.75
10.33
10.16
10.04
9.72
8.98
7.76
6.18
4.43
2.72
1.16
-0.29
-1.77
-3.52
-5.71
-8.47
-11.81
-15.57
-19.39
-22.81
-25.31
-26.45
-25.97
-23.79
-20.14
-15.42
-10.11
-4.72
0.37
4.93
8.85
12.08
14.60
16.36
17.33
17.53
17.05
16.09
14.98
13.99
13.33
13.00
12.78
12.33
11.32
9.57
7.20
4.56
2.09
0.06
-1.48
-2.75
-4.09
-5.87
-8.28
-11.39
-15.04
-18.91
-22.52
-25.28
-26.58
-25.97
-23.30
-18.88
-13.28
-7.30
-1.59
3.43
7.67
11.20
14.20
16.78
18.92
20.55
21.56
21.95
21.78
21.18
20.31
19.29
18.21
17.10
15.92
14.61
13.11
11.32
9.18
6.71
4.00
1.20
-1.55
-4.17
-6.74
-9.40
-12.42
-15.94
-19.92
-24.06
-27.79
-30.43
-31.32
-30.06
-26.58
-21.26
-14.78
-7.95
-1.54
3.90
8.14
11.26
13.48
15.07
16.23
17.04
17.50
17.60
17.36
16.83
16.05
15.11
14.07
12.96
11.77
10.45
8.97
7.28
5.40
3.40
1.40
-0.53
-2.36
-4.20
-6.21
-8.54
-11.27
-14.38
-17.82
-21.51
-25.29
-28.88
-31.83
-33.49
-33.29
-30.93
-26.61
-20.96
-14.93
-9.39
-4.88
-1.49
1.00
2.95
4.61
6.04
7.18
7.95
8.39
8.70
9.08
9.70
10.57
11.56
12.53
13.39
14.06
14.54
14.79
14.77
14.44
13.76
12.76
11.49
9.98
8.21
6.14
3.71
0.87
-2.42
-6.15
-10.20
-14.30
-17.85
-20.17
-20.57
-18.70
-14.72
-9.28
-3.32
2.31
7.09
10.96
14.10
16.76
18.99
20.64
21.52
21.51
20.76
19.57
18.31
17.18
16.23
15.29
14.16
12.73
11.01
9.10
7.15
5.24
3.36
1.48
-0.45
-2.47
-4.59
-6.81
-9.20
-11.85
-14.85
-18.31
-22.17
-26.17
-29.85
-32.55
-33.66
-32.81
-29.96
-25.52
-20.10
-14.39
-8.89
-3.83
0.76
4.96
8.83
12.34
15.39
17.89
19.80
21.19
22.18
22.93
23.52
23.96
24.18
24.01
23.32
22.02
20.12
17.70
14.91
11.92
8.87
5.88
2.91
-0.10
-3.28
-6.75
-10.56
-14.64
-18.78
-22.59
-25.62
-27.37
-27.40
-25.45
-21.54
-16.03
-9.52
-2.73
3.70
9.39
14.17
18.13
21.31
23.70
25.22
25.75
25.33
24.19
22.70
21.24
20.06
19.15
18.30
17.23
15.68
13.58
11.00
8.15
5.24
2.47
-0.16
-2.69
-5.25
-7.99
-11.01
-14.37
-18.09
-22.11
-26.22
-30.04
-33.04
-34.58
-34.23
-31.80
-27.53
-21.96
-15.76
-9.54
-3.73
1.41
5.77
9.21
11.67
13.09
13.51
13.06
11.97
10.47
8.77
7.03
5.32
3.70
2.17
0.66
-0.90
-2.59
-4.48
-6.61
-8.93
-11.43
-14.11
-17.01
-20.24
-23.93
-28.17
-32.97
-38.20
-43.66
-48.99
-53.78
-57.59
-60.05
-60.98
-60.41
-58.64
-56.20
-53.65
-51.49
-49.99
-49.25
-49.20
-49.70
-50.61
-51.70
-52.53
-52.45
-50.65
-46.39
-39.27
-29.33
-17.05
-3.17
11.55
26.46
41.14
55.37
69.13
82.60
95.97
109.40
122.75
135.60
147.18
156.62
163.13
166.18
165.64
161.71
154.90
145.92
135.67
125.08
114.99
105.98
98.18
91.30
84.71
77.66
69.51
59.99
49.30
38.06
27.23
17.79
10.53
5.84
3.65
3.62
5.19
7.78
10.87
13.95
16.57
18.37
19.29
19.59
19.82
20.61
22.20
24.18
25.44
24.57
20.41
12.66
2.10
-9.67
-20.83
-29.97
-36.45
-40.36
-42.23
-42.58
-41.69
-39.71
-36.88
-33.62
-30.47
-27.79
-25.53
-23.29
-20.49
-16.85
-12.54
-8.13
-4.31
-1.49
0.31
1.38
2.01
2.27
1.91
0.56
-2.01
-5.68
-10.01
-14.43
-18.45
-21.81
-24.57
-26.98
-29.44
-32.27
-35.69
-39.78
-44.46
-49.51
-54.60
-59.39
-63.65
-67.27
-70.32
-72.97
-75.32
-77.32
-78.76
-79.26
-78.37
-75.59
-70.52
-63.01
-53.39
-42.62
-32.16
-23.73
-18.71
-17.68
-20.17
-24.74
-29.45
-32.51
-32.74
-29.80
-24.12
-16.67
-8.51
-0.57
6.64
13.08
19.03
24.85
30.71
36.47
41.68
45.82
48.44
49.23
47.89
44.13
37.72
28.77
18.02
6.80
-3.28
-10.93
-15.57
-17.46
-17.29
-15.80
-13.47
-10.64
-7.78
-5.54
-4.62
-5.32
-7.34
-9.86
-12.08
-13.63
-14.83
-16.38
-18.84
-22.28
-26.25
-30.11
-33.41
-36.04
-38.22
-40.24
-42.44
-45.15
-48.70
-53.25
-58.57
-63.83
-67.83
-69.41
-68.00
-63.88
-57.90
-50.97
