1531860185.00
64.000000
-0.00
-0.00
-0.00
-0.00
-0.00
-0.00
-0.00
-0.00
-0.00
-0.00
0.00
0.01
0.01
-0.00
-0.03
-0.05
-0.05
0.00
0.13
0.36
0.66
1.01
1.37
1.72
2.06
2.40
2.79
3.24
3.80
4.42
5.06
5.66
6.20
6.68
7.15
7.68
8.31
9.14
10.09
11.04
11.88
12.56
13.14
13.76
14.65
15.96
17.91
20.32
22.90
25.38
27.58
29.57
31.68
34.32
37.81
42.54
48.15
54.10
59.83
64.97
69.58
74.14
79.34
85.71
93.76
103.00
112.62
121.73
129.77
136.75
143.30
150.75
157.77
166.64
177.95
191.79
206.97
220.57
228.25
225.36
208.53
176.87
132.76
80.05
23.07
-34.94
-92.44
-149.16
-205.23
-260.37
-313.74
-363.87
-409.83
-450.91
-486.50
-515.74
-537.23
-549.22
-549.96
-538.37
-514.21
-478.67
-433.88
-382.45
-327.02
-269.84
-212.63
-156.66
-102.95
-52.38
-5.91
35.58
71.42
101.35
125.50
144.39
158.72
169.20
176.45
180.87
182.74
182.30
179.80
175.60
170.10
163.71
156.75
149.49
142.05
134.50
126.88
119.23
111.62
104.12
96.81
89.73
82.93
76.41
70.21
64.32
58.76
53.54
48.67
44.14
39.97
36.13
32.63
29.45
26.60
24.06
21.82
19.89
18.26
16.91
15.82
14.99
14.40
14.02
13.84
13.84
14.00
14.30
14.74
15.30
15.96
16.75
17.62
18.59
19.64
20.79
22.05
23.40
24.79
26.20
27.54
28.64
29.26
29.10
27.87
25.29
21.13
15.24
7.60
-1.60
-12.02
-23.14
-34.32
-44.83
-53.90
-60.83
-65.04
-66.01
-63.46
-57.47
-48.43
-37.12
-24.57
-11.95
-0.05
9.84
16.94
20.93
21.62
19.44
14.82
8.18
-0.02
-9.45
-19.69
-30.24
-40.57
-50.18
-58.60
-65.53
-70.80
-74.40
-76.48
-76.98
-75.63
-72.01
-65.68
-56.45
-44.54
-30.75
-15.75
-1.43
10.79
20.31
27.34
32.61
36.89
40.57
43.30
44.08
41.58
35.13
24.89
12.01
-1.77
-14.89
-26.39
-36.20
-44.94
-53.38
-61.93
-70.76
-79.84
-88.67
-95.89
-98.41
-91.60
-71.96
-38.63
5.20
52.46
94.68
125.16
141.29
145.20
141.54
134.62
126.67
117.76
106.90
93.64
79.86
66.26
53.89
42.98
32.67
21.80
9.72
-3.23
-15.60
-25.32
-30.65
-30.52
-25.05
-15.79
-4.95
5.42
13.78
19.62
23.43
26.13
28.86
32.37
36.25
39.38
40.54
38.52
32.99
24.71
15.18
6.28
-0.33
-4.40
-7.94
-11.70
-16.43
-22.24
-28.13
-32.31
-32.78
-27.21
-15.07
3.40
27.37
54.57
81.11
101.63
110.55
101.71
76.02
39.38
0.68
-31.68
-53.05
-63.45
-66.10
-64.83
-61.92
-57.33
-50.83
-43.02
-35.79
-31.51
-31.52
-35.13
-39.92
-42.84
-41.30
-35.04
-25.84
-16.71
-10.91
-10.73
-16.65
-26.47
-35.30
-36.68
-25.22
1.33
40.78
86.75
129.98
160.95
172.68
162.60
133.23
91.06
44.90
1.93
-32.52
-56.43
-71.03
-79.46
-85.04
-90.14
-95.53
-102.51
-111.89
-123.16
-133.88
-139.50
-134.79
-116.48
-85.63
-47.85
-11.46
16.13
31.46
35.57
32.64
27.38
22.89
20.05
18.30
16.86
15.67
15.26
15.94
17.24
18.15
17.69
15.32
11.61
7.76
5.22
4.93
6.68
9.27
11.09
10.83
8.20
4.13
0.32
-1.55
-0.52
3.01
7.61
11.65
13.99
14.57
14.42
15.11
18.30
25.47
37.34
53.83
73.45
92.80
106.86
110.40
100.15
76.35
44.71
13.23
-10.78
-23.62
-26.11
-22.27
-16.73
-12.55
-10.13
-8.32
-6.16
-3.78
-2.52
-3.78
-8.21
-15.25
-23.62
-31.73
-39.10
-47.01
-57.55
-71.81
-88.37
-102.79
-108.40
-100.98
-79.88
-48.71
-13.88
17.92
41.62
54.27
54.36
41.27
15.73
-18.87
-56.17
-88.32
-108.40
-113.45
-105.45
-90.12
-74.00
-61.75
-56.24
-57.29
-62.75
-69.00
-71.89
-67.09
-52.15
-27.75
1.77
30.38
52.71
66.05
71.28
71.50
70.09
69.05
68.79
68.58
67.78
66.59
65.26
63.97
62.26
59.45
55.22
50.18
45.58
42.95
43.55
47.19
52.94
59.24
64.64
67.14
67.55
66.91
66.04
66.48
66.56
64.90
60.47
53.30
44.41
35.68
29.00
26.21
29.01
37.55
50.62
64.77
74.66
74.57
60.97
34.21
-2.10
-38.45
-66.54
-82.00
-85.59
-81.58
-74.88
-68.40
-62.66
-56.69
-49.55
-42.01
-35.67
-31.85
-30.67
-30.96
-30.87
-28.74
-24.06
-17.34
-10.25
-4.50
-0.97
0.44
0.72
1.28
3.23
6.92
12.03
17.50
22.17
25.44
27.23
27.97
28.24
28.55
28.99
29.30
28.93
27.03
23.43
18.15
11.55
4.16
-3.38
-10.60
-17.14
-22.35
-26.65
-30.16
-33.04
-35.40
-37.27
-38.56
-39.19
-39.06
-38.20
-36.85
-35.34
-34.09
-33.56
-34.21
-35.58
-37.10
-38.08
-38.10
-37.25
-36.09
-35.49
-36.27
-38.62
-41.86
-44.64
-45.45
-43.36
-38.55
-32.61
-27.15
-23.74
-22.82
-23.37
-23.37
-20.65
-14.38
-5.28
4.36
11.82
15.12
14.15
10.15
4.81
-0.26
-3.99
-4.83
-0.36
12.10
33.53
61.29
88.95
108.84
116.23
112.17
103.47
98.29
100.86
108.38
112.83
106.16
85.86
56.90
28.59
9.79
3.74
6.99
12.41
13.71
9.03
0.97
-6.03
-9.59
-9.94
-10.14
-14.38
-25.49
-43.68
-66.43
-89.80
-106.95
-116.82
-120.66
-121.14
-121.27
-123.29
-128.45
-137.04
-148.55
-161.21
-171.96
-175.78
-167.47
-144.40
-108.38
-65.93
-25.99
3.43
18.37
19.81
12.70
3.42
-2.95
-3.68
1.81
12.15
24.27
33.60
35.51
26.36
5.67
-23.21
-53.23
-75.42
-81.53
-66.12
-30.19
19.87
74.21
123.13
159.09
178.94
183.59
176.72
162.77
145.06
127.01
108.21
89.05
69.88
51.43
33.76
16.30
-1.66
-20.51
-39.42
-57.27
-70.57
-77.58
-77.08
-69.45
-56.26
-39.68
-22.02
-4.61
11.79
27.46
40.75
52.20
61.93
69.52
74.39
75.89
74.23
69.93
63.98
57.04
49.89
42.74
35.38
28.89
21.85
13.84
4.90
-4.59
-14.25
-23.48
-31.87
-39.23
-45.62
-51.39
-56.47
-60.82
-64.40
-67.09
-68.51
-68.18
-65.59
-60.49
-53.09
-43.54
-32.31
-20.01
-7.24
2.69
9.47
13.58
15.34
14.66
11.75
6.60
-0.76
-10.14
-18.68
-26.65
-33.61
-39.09
-43.21
-46.11
-48.64
-51.82
-56.30
-62.18
-68.90
-74.66
-78.14
-79.47
-79.45
-79.85
-82.22
-87.01
-93.14
-98.14
-96.94
-84.80
-64.27
-38.17
-10.47
15.47
37.94
57.23
75.24
97.18
127.30
166.84
214.43
266.40
318.17
364.16
397.81
412.50
407.02
384.00
349.78
313.76
285.74
272.64
275.28
287.62
280.55
236.66
158.90
68.96
-9.17
-63.49
-95.42
-113.29
-125.14
-134.38
-137.44
-131.57
-119.98
-111.74
-116.38
-137.74
-170.72
-203.73
-224.24
-222.06
-195.16
-150.05
-98.06
-50.42
-15.22
3.99
5.78
-9.31
-36.73
-69.61
-100.45
-123.27
-133.88
-132.36
-122.23
-108.17
-93.88
-80.53
-68.39
-57.96
-50.39
-46.59
-46.32
-47.73
-48.29
-46.14
-40.89
-33.98
-28.05
-25.43
-26.88
-31.46
-36.99
-41.34
-42.91
-40.91
-35.34
-26.72
-16.57
-7.72
-3.79
-7.41
-18.11
-31.33
-39.65
-36.23
-18.13
11.65
45.51
74.88
94.30
103.19
104.85
104.11
102.69
99.88
93.65
82.79
68.43
54.64
46.47
47.40
57.20
71.11
81.40
80.11
62.80
30.66
-9.85
-49.51
-79.63
-94.81
-93.76
-78.62
-53.39
-22.61
9.49
39.16
63.32
80.20
89.12
92.63
93.93
94.67
93.79
88.02
73.80
49.64
17.76
-16.49
-46.77
-68.44
-80.35
-84.60
-84.58
-82.98
-80.67
-76.87
-70.70
-62.94
-54.73
-48.18
-44.70
-44.04
-44.62
-44.59
-42.38
-37.87
-32.17
-27.09
-24.31
-24.50
-27.06
-30.45
-32.96
-33.06
-30.20
-24.69
-17.51
-9.78
-2.27
4.77
12.38
20.20
28.23
36.33
44.15
51.10
56.64
60.39
62.16
61.97
59.87
56.35
51.84
46.50
40.55
34.09
26.88
18.52
8.72
-2.67
-15.02
-27.36
-37.47
-45.03
-50.01
-53.00
-55.10
-57.51
-61.01
-65.46
-69.88
-73.00
-74.02
-72.58
-69.28
-65.25
-61.74
-60.73
-62.27
-66.45
-72.70
-79.39
-83.27
-80.29
-67.23
-43.49
-11.19
22.66
50.89
68.79
75.49
73.73
67.75
61.04
55.08
49.66
44.06
38.32
33.39
30.42
29.86
30.96
32.16
31.82
29.08
24.29
18.89
14.57
12.43
12.54
13.85
14.79
14.03
11.14
6.75
2.34
-0.61
-1.30
-0.03
1.93
2.95
1.92
-1.27
-5.61
-9.41
-11.21
-10.46
-7.76
-4.72
-2.91
-3.25
-5.38
-7.90
-8.94
-6.77
-0.09
11.90
28.96
49.43
69.73
84.72
89.18
80.15
58.69
29.74
1.47
-19.15
-28.99
-29.47
-24.80
-19.31
-15.26
-12.51
-9.64
-5.77
-1.52
1.47
1.80
-0.74
-4.89
-8.69
-10.19
-8.60
-4.47
0.48
4.19
5.23
3.33
-0.52
-4.51
-6.80
-6.29
-3.10
1.40
5.24
6.67
4.85
0.13
-6.11
-12.05
-16.51
-19.15
-20.79
-22.90
-26.79
-33.11
-42.08
-53.48
-66.59
-79.75
-89.84
-92.76
-84.67
-64.08
-33.22
1.89
33.65
55.82
65.71
64.76
56.88
46.16
34.63
23.29
11.75
-0.12
-11.43
-20.70
-26.80
-29.75
-30.74
-31.31
-32.71
-35.20
-37.98
-39.65
-38.86
-34.96
-28.09
-19.28
-9.75
-0.42
8.31
16.60
24.94
33.69
42.82
51.62
59.09
64.27
66.57
65.97
62.97
58.38
53.07
47.85
43.13
39.07
35.81
33.46
32.09
31.72
32.26
33.38
34.67
35.43
35.00
32.98
29.27
24.04
17.65
10.55
2.17
-6.56
-15.09
-23.11
-30.28
-36.24
-40.62
-43.17
-43.84
-43.02
-41.28
-39.41
-37.91
-36.75
-35.39
-33.04
-29.00
-22.98
-15.26
-7.07
0.14
5.40
8.64
10.74
13.08
16.94
23.06
30.84
38.81
45.45
49.81
52.03
53.27
55.08
58.90
66.09
77.18
91.85
108.49
123.63
132.17
128.63
109.51
73.68
27.72
-18.60
-56.17
-79.85
-89.80
-90.09
-85.82
-80.53
-75.24
-69.09
-61.70
-53.90
-47.36
-43.54
-42.65
-43.52
-44.28
-43.13
-39.19
-33.22
-26.90
-22.01
-19.60
-19.66
-21.17
-22.70
-23.07
-21.77
-19.33
-16.81
-15.27
-15.20
-16.35
-17.88
-18.82
-18.47
-16.70
-14.02
-11.27
-9.10
-7.81
-7.16
-6.69
-6.04
-5.00
-3.83
-3.04
-3.07
-4.01
-5.54
-6.99
-7.83
-8.01
-7.70
-7.54
-8.00
-9.16
-10.72
-12.49
-14.53
-17.08
-20.30
-23.17
-23.90
-20.39
-11.40
2.71
19.89
37.33
52.28
62.70
67.46
65.95
57.79
42.88
21.81
-3.33
-28.73
-49.46
-60.78
-59.81
-46.90
-25.67
-1.74
18.43
30.98
35.33
33.77
29.71
25.82
22.65
19.20
14.44
8.21
2.11
-1.72
-1.90
1.41
6.66
11.69
14.88
15.91
15.59
15.21
15.57
16.62
17.73
18.15
17.89
17.82
19.28
23.04
28.52
33.67
35.64
32.09
21.88
5.95
-12.75
-29.85
-40.65
-41.34
-30.55
-10.22
14.23
35.00
44.61
38.90
19.07
-8.73
-36.21
-56.04
-63.94
-58.70
-41.16
-13.91
18.64
49.90
71.99
78.08
65.64
38.12
4.18
-24.77
-41.05
-43.24
-35.73
-25.69
-19.37
-19.41
-24.48
-30.17
-31.10
-22.72
-3.19
26.07
60.75
94.85
122.31
138.11
138.44
123.02
93.92
55.65
14.68
-22.43
-49.70
-63.86
-65.40
-57.95
-46.44
-35.31
-27.26
-23.35
-23.47
-26.92
-32.85
-40.34
-48.35
-54.64
-59.03
-61.81
-63.74
-65.66
-67.99
-70.57
-72.75
-73.48
-72.96
-69.66
-63.26
-54.41
-44.37
-34.18
-24.59
-15.98
-7.55
0.17
7.05
12.51
15.76
16.14
13.43
8.34
0.97
-9.39
-23.48
-40.62
-58.31
-72.21
-77.64
-71.54
-55.72
-36.76
-22.49
-16.61
-17.29
-19.65
-19.57
-16.31
-10.68
-4.78
-0.17
3.72
10.90
25.39
47.67
73.98
99.06
121.65
143.32
165.85
189.29
214.04
238.60
259.69
273.16
262.98
224.35
163.55
99.75
38.71
-18.68
-73.97
-126.62
-174.44
-212.67
-233.28
-224.79
-186.39
-131.06
-76.09
-33.75
-6.21
11.82
27.29
44.13
60.52
67.06
54.10
19.43
-31.99
-91.53
-150.90
-204.85
-250.74
-283.97
-301.99
-303.49
-287.12
-253.42
-205.71
-148.39
-86.84
-26.90
23.91
55.44
58.71
31.27
-20.44
-82.05
-134.16
-161.01
-156.32
-124.89
-79.42
-33.07
6.55
38.44
65.77
94.81
129.69
171.13
217.35
265.92
316.06
368.65
424.58
466.38
478.94
455.57
402.47
333.93
263.79
201.16
149.73
109.00
76.08
49.78
29.53
14.99
5.37
-0.33
-2.67
-2.03
0.56
2.71
2.65
-2.11
-14.09
-34.76
-63.30
-95.82
-126.99
-152.35
-170.05
-179.84
-183.40
-183.21
-181.22
-177.83
-171.12
-158.18
-136.76
-106.78
-70.52
-32.49
2.04
29.00
47.08
58.27
66.15
73.70
81.35
86.69
85.49
74.33
53.82
27.72
3.83
-9.90
-8.70
6.73
30.58
55.19
74.76
87.34
93.11
94.11
89.63
76.38
51.22
14.39
-28.92
-70.15
-101.09
-118.17
-121.64
-115.77
-105.77
-95.18
-85.15
-75.28
-65.11
-55.10
-46.57
-40.26
-36.34
-34.09
-32.74
-31.72
-31.65
-33.76
-38.38
-46.25
-56.80
-68.95
-81.19
-91.54
-97.30
-95.53
-83.61
-60.97
-30.08
3.97
35.03
58.50
73.40
82.76
90.58
99.39
107.83
111.85
106.16
88.30
60.68
29.86
4.49
-9.81
-12.30
-6.75
1.06
6.72
9.14
10.03
11.94
16.28
22.17
27.47
30.24
29.98
27.74
25.52
25.30
27.68
31.95
36.06
38.13
36.88
32.17
24.77
16.01
7.10
-1.31
-8.78
-15.83
-22.69
-29.26
-35.06
-39.70
-42.95
-44.98
-46.25
-47.20
-48.13
-48.86
-49.28
-48.88
-47.80
-46.71
-46.52
-47.95
-51.06
-55.25
-59.32
-62.26
-63.47
-63.29
-62.71
-62.83
-64.60
-68.64
-75.37
-84.58
-94.92
-103.37
-105.79
-98.33
-79.41
-51.15
-19.11
9.67
29.62
38.71
38.83
33.99
28.14
23.51
20.40
18.37
17.36
18.26
22.34
30.34
41.61
54.29
66.01
74.67
79.40
80.41
78.68
75.36
71.32
66.77
61.53
55.26
48.02
40.64
34.16
29.70
27.92
28.80
31.59
35.07
37.96
39.41
39.35
38.05
36.15
34.22
32.49
30.75
28.48
25.19
19.84
13.23
6.22
-0.24
-5.51
-9.50
-12.66
-15.75
-19.47
-24.04
-28.84
-32.89
-34.97
-34.46
-31.68
-27.96
-25.12
-24.69
-27.18
-31.60
-36.02
-38.17
-36.81
-32.33
-26.77
-22.93
-22.89
-27.09
-33.78
-39.83
-42.04
-38.54
-29.13
-14.80
2.69
20.97
36.46
44.49
39.89
21.21
-7.65
-37.45
-56.69
-56.87
-36.53
-1.98
35.98
67.42
87.58
97.34
100.77
102.05
101.97
99.47
93.48
84.78
76.26
71.84
74.51
84.41
98.23
109.81
112.05
99.75
71.94
32.96
-8.80
-44.19
-66.94
-75.89
-74.81
-69.68
-65.50
-64.09
-64.18
-63.09
-58.99
-52.13
-44.47
-38.44
-35.47
-35.41
-36.88
-37.91
-37.01
-33.64
-28.36
-22.35
-17.02
-13.37
-11.75
-11.75
-12.43
-12.63
-11.34
-8.21
-3.52
1.94
7.10
10.90
12.75
12.14
8.65
2.33
-5.91
-13.60
-16.92
-12.00
3.10
26.69
53.39
75.77
87.30
84.89
69.88
47.12
22.57
0.94
-15.42
-26.29
-32.40
-34.37
-32.55
-27.36
-19.42
-10.02
-0.69
6.95
12.10
15.17
17.58
20.59
24.45
28.43
30.60
29.09
22.84
12.55
0.60
-10.05
-17.06
-19.91
-19.18
-16.38
-12.97
-10.40
-9.43
-10.34
-13.19
-15.62
-18.51
-22.08
-26.09
-29.61
-32.32
-33.94
-34.37
-33.73
-32.25
-30.45
-28.20
-27.04
-25.20
-22.25
-18.14
-13.16
-7.79
-2.35
2.87
8.42
15.16
24.34
35.77
48.69
61.76
73.25
81.56
85.58
85.32
81.66
76.14
68.98
59.89
47.85
31.46
9.40
-19.14
-54.25
-96.16
-140.58
-185.84
-231.49
-277.86
-325.85
-376.51
-430.88
-489.05
-549.86
-609.81
-663.59
-703.67
-722.26
-714.35
-680.00
-624.51
-556.02
-482.80
-410.56
-342.29
-278.35
-218.21
-161.95
-110.51
-64.95
-24.49
12.55
47.63
80.61
110.08
134.17
151.18
160.52
163.07
163.98
168.37
178.89
194.56
212.23
228.58
241.22
249.31
253.64
262.18
281.87
314.63
356.26
399.58
438.38
469.00
490.20
502.71
517.93
545.15
586.05
633.77
678.53
713.69
737.57
752.05
760.97
780.65
823.55
891.87
977.13
1067.40
1153.92
1231.43
1295.15
1262.95
1087.21
779.14
407.98
53.80
-233.57
-440.02
-574.60
-656.39
-704.87
-722.33
-708.05
-666.28
-609.02
-551.24
-503.70
-470.84
-452.74
-446.42
-438.07
-416.72
-380.71
-337.38
-297.39
-267.75
-249.99
-243.26
-244.66
-244.39
-234.69
-215.02
-190.25
-167.23
-149.94
-138.67
-133.97
-135.40
-138.91
-141.87
-147.21
-154.38
-164.84
-178.07
-191.57
-205.00
-217.64
-226.86
-215.78
-177.32
-116.53
-47.56
6.71
45.52
70.09
81.10
82.64
75.83
58.93
31.00
-7.68
-46.24
-73.61
-86.41
-87.29
-80.83
-70.99
-61.33
-53.38
-47.21
-41.46
-34.70
-28.11
-22.65
-18.16
-14.25
-11.47
-10.19
-10.37
-11.19
-11.77
-12.83
-14.66
-16.70
-18.38
-19.91
-21.80
-24.60
-28.48
-33.17
-38.99
-45.48
-51.57
-56.31
-59.59
-62.03
-64.55
-69.59
-76.02
-83.02
-89.18
-93.02
-93.51
-90.74
-85.88
-80.76
-77.34
-76.99
-81.14
-90.30
-103.34
-116.92
-125.96
-125.20
-111.45
-85.67
-52.49
-19.65
5.53
18.91
20.62
13.96
3.08
-9.13
-21.86
-34.91
-48.38
-61.41
-72.11
-78.50
-79.46
-75.03
-65.78
-56.56
-49.64
-45.84
-44.35
-43.37
-40.94
-35.88
-28.30
-19.60
-11.95
-6.77
-4.65
-4.82
-5.26
-3.46
2.64
13.76
28.94
45.96
62.57
77.05
88.81
98.68
108.45
120.84
138.61
164.04
197.49
236.22
273.31
298.58
301.56
275.65
221.50
147.76
68.76
-0.26
-47.79
-69.18
-66.65
-46.87
-17.77
14.05
44.24
70.50
91.72
107.38
117.42
122.60
124.63
126.51
131.88
144.14
165.67
197.50
239.52
291.22
351.04
415.76
479.60
534.39
571.28
583.74
569.90
533.31
481.40
422.26
361.91
303.01
245.56
188.67
132.18
76.92
23.91
-26.61
-75.77
-125.53
-177.61
-232.56
-289.47
-346.00
-399.20
-446.43
-485.77
-516.66
-539.75
-556.66
-569.48
-580.33
-591.12
-603.37
-617.74
-633.52
-648.07
-656.75
-653.74
-633.51
-592.57
-530.73
-451.14
-359.31
-261.41
-162.61
-66.41
25.41
112.27
194.44
272.66
348.29
423.40
500.27
580.18
661.96
741.02
809.48
858.51
881.12
875.26
844.81
798.34
745.93
695.71
651.91
614.94
583.06
554.17
526.95
500.73
474.78
447.90
418.48
385.20
347.62
306.10
261.44
214.24
164.41
111.33
54.45
-6.22
-69.81
-134.72
-199.19
-261.90
-322.49
-381.82
-441.99
-505.91
-576.62
-655.69
-741.63
-828.89
-908.49
-970.58
-1007.89
-1018.49
-1006.15
-978.56
-943.87
-907.80
-872.49
-837.37
-801.13
-763.23
-724.32
-685.37
-646.68
-607.55
-566.82
-523.77
-478.85
-433.58
-390.07
-349.88
-313.48
-280.11
-248.21
-216.35
-183.81
-150.85
-118.45
-87.64
-58.76
-31.20
-3.61
25.50
57.07
91.03
126.44
161.95
196.54
230.06
263.22
297.23
332.97
370.46
408.71
446.14
481.19
513.03
541.84
568.75
595.59
624.73
658.53
698.55
744.20
791.68
833.95
862.19
868.79
850.18
808.41
750.35
685.01
620.40
561.29
509.08
463.04
422.14
386.02
355.00
329.19
307.86
289.27
271.22
251.71
229.56
204.58
177.33
148.69
119.40
89.63
58.81
25.78
-10.79
-51.75
-97.13
-146.28
-198.66
-254.73
-316.00
-383.99
-457.92
-533.07
-600.51
-649.29
-670.16
-658.90
-617.43
-552.33
-471.71
-382.99
-292.26
-205.34
-128.71
-69.08
-31.13
-15.42
-17.51
-29.68
-44.59
-58.76
-74.03
-95.84
-129.62
-176.68
-232.44
-287.49
-331.17
-355.99
-360.27
-348.33
-327.85
-306.30
-287.87
-273.06
-260.03
-246.97
-233.87
-222.28
-214.10
-209.90
-208.28
-206.46
-201.67
-192.47
-179.48
-165.04
-151.89
-142.02
-135.74
-131.62
-127.00
-119.08
-105.90
-87.06
-63.57
-37.24
-9.76
18.12
46.91
78.07
113.41
154.07
199.81
248.72
297.75
343.52
383.42
416.21
442.24
463.19
481.67
500.63
522.90
550.23
582.06
614.85
642.17
656.51
651.94
626.59
583.53
529.48
471.81
415.69
362.85
312.16
261.71
210.66
159.59
109.76
61.58
13.67
-36.83
-93.13
-157.85
-232.34
-316.30
-407.47
-501.23
-590.63
-667.48
-724.42
-757.26
-766.54
-757.17
-736.31
-710.56
-683.88
-657.16
-629.27
-598.79
-565.03
-528.11
-488.17
-444.67
-396.41
-342.15
-281.50
-215.51
-146.52
-77.76
-12.53
46.62
98.31
142.47
180.20
213.36
244.01
273.85
303.92
334.38
364.86
394.93
424.43
453.75
483.65
514.73
547.03
580.04
612.92
644.52
673.05
695.19
705.80
698.60
668.06
611.60
531.18
433.06
325.80
217.64
114.44
19.21
-67.29
-145.15
-214.76
-276.80
-332.89
-385.94
-439.91
-498.92
-565.73
-640.26
-718.43
-792.16
-851.14
-885.89
-890.98
-866.88
-819.61
-758.00
-690.30
-621.59
-553.36
-484.97
-415.90
-347.14
-281.03
-220.09
-165.72
-117.69
-74.75
-35.83
-0.89
28.90
51.66
65.90
71.33
69.18
62.02
52.87
44.40
38.22
34.76
33.47
33.43
33.75
34.03
34.40
35.27
37.18
40.42
44.93
50.40
56.32
62.30
68.19
74.26
81.13
89.69
100.81
115.05
132.46
152.50
174.33
197.04
220.07
243.43
267.81
294.52
325.36
362.49
407.77
461.90
523.24
587.23
646.94
694.83
725.11
735.42
727.19
703.89
668.75
622.91
565.31
494.09
408.74
311.41
206.71
100.40
-2.25
-97.26
-182.10
-255.10
-314.98
-360.91
-392.70
-411.12
-417.74
-414.48
-402.83
-383.66
-357.67
-326.56
-294.00
-265.64
-247.46
-243.03
-251.30
-266.09
-278.25
-279.21
-264.47
-234.41
-193.45
-147.03
-98.82
-49.64
1.69
56.33
113.75
171.31
225.61
273.68
314.01
346.50
371.94
390.97
403.59
409.03
406.58
397.45
384.21
370.22
358.44
350.35
345.69
342.82
339.47
333.57
326.44
320.06
316.09
315.12
316.95
321.11
326.79
332.12
333.74
332.39
327.95
319.26
304.43
282.67
256.31
230.95
213.37
208.38
225.23
267.28
330.62
404.84
477.24
538.41
585.04
618.97
644.60
677.86
732.23
814.30
920.63
1039.29
1155.25
1255.42
1331.43
1310.17
1148.16
841.37
434.47
0.22
-396.09
-718.31
-958.75
-1126.82
-1238.38
-1298.14
-1309.86
-1279.51
-1218.09
-1140.20
-1059.54
-985.76
-924.12
-876.78
-835.64
-793.05
-745.29
-694.76
-647.76
-609.86
-582.61
-563.85
-549.63
-531.36
-503.14
-463.59
-416.50
-368.72
-326.88
-294.87
-272.78
-257.20
-239.81
-212.86
-172.46
-121.04
-66.54
-18.85
14.20
29.63
29.86
21.89
12.98
8.22
9.19
14.79
23.30
33.58
45.23
57.80
69.93
79.30
83.72
81.90
74.58
64.27
54.06
46.31
41.44
37.89
33.54
27.09
18.65
9.50
1.25
-5.33
-10.67
-15.17
-19.26
-22.69
-24.44
-23.58
-19.96
-14.25
-7.85
-2.22
1.85
4.33
5.98
7.92
11.05
15.68
21.47
27.51
32.65
35.74
35.77
31.91
23.75
11.53
-3.57
-19.65
-34.51
-46.35
-54.60
-60.32
-65.46
-71.63
-78.99
-86.01
-90.48
-91.27
-89.45
-88.33
-91.78
-101.69
-116.14
-129.71
-135.77
-129.83
-111.84
-86.29
-60.03
-39.29
-27.54
-25.18
-30.53
-40.88
-52.70
-61.62
-62.76
-52.17
-28.78
4.60
41.72
75.39
100.27
114.62
120.03
119.70
116.68
113.03
109.97
108.52
109.76
114.52
122.67
132.96
143.33
151.67
156.61
157.86
156.13
152.71
148.73
144.49
139.28
131.73
120.74
106.39
90.55
76.42
67.16
64.03
65.51
67.64
65.50
55.35
36.43
11.56
-13.79
-33.47
-43.14
-41.71
-31.57
-17.60
-5.56
-0.22
-3.70
-14.45
-27.29
-34.89
-29.75
-7.29
31.27
78.08
120.58
145.65
144.36
115.27
64.16
3.05
-54.06
-96.26
-119.24
-125.79
-123.52
-121.14
-125.19
-140.05
-165.13
-196.35
-229.11
-260.66
-290.56
-319.30
-347.11
-374.02
-403.69
-439.29
-482.24
-531.15
-581.32
-624.81
-651.70
-653.32
-625.90
-575.90
-512.66
-444.41
-376.31
-310.62
-247.84
-187.30
-128.55
-48.86
53.24
161.58
254.32
318.79
354.61
367.63
365.19
353.33
336.52
314.30
287.81
261.38
238.97
223.06
213.67
209.85
210.23
213.71
217.05
219.60
223.35
230.94
243.89
257.54
267.33
269.52
262.42
245.34
221.14
195.30
173.17
157.96
149.93
147.87
149.93
153.98
157.54
159.41
159.40
156.90
151.01
140.64
125.76
107.63
87.28
65.43
42.88
19.97
-4.37
-31.31
-60.97
-91.43
-118.60
-139.78
-153.70
-160.88
-163.88
-167.29
-175.51
-191.00
-213.19
-238.08
-262.77
-285.08
-303.66
-308.41
-291.70
-253.19
-200.57
-151.18
-107.19
-68.16
-34.26
-5.78
14.96
26.97
31.34
31.08
30.22
33.26
41.20
53.06
67.58
84.57
106.88
137.43
176.90
222.66
270.25
313.19
346.08
366.31
359.84
321.62
258.40
185.21
115.98
58.32
13.30
-21.08
-47.74
-69.56
-86.99
-100.55
-111.18
-119.76
-127.12
-132.46
-134.55
-132.79
-127.63
-118.70
-106.51
-92.60
-79.38
-68.84
-61.91
-58.25
-56.50
-54.74
-49.94
-40.55
-27.50
-14.19
-4.95
-3.02
-9.38
-22.88
-40.77
-59.21
-74.80
-84.87
-87.42
-80.53
-62.61
-32.77
7.13
52.08
95.14
129.62
151.24
158.47
152.31
134.35
107.14
72.31
30.77
-16.17
-65.21
-110.94
-147.88
-171.62
-181.12
-176.07
-158.85
-134.20
-107.73
-83.19
-60.95
-39.36
-14.75
15.71
56.72
111.02
177.77
252.40
328.58
400.08
460.64
506.66
515.05
473.26
387.50
280.47
176.12
88.67
27.16
-15.65
-45.61
-66.98
-79.92
-84.87
-83.84
-80.95
-80.38
-84.48
-94.44
-108.67
-125.30
-140.13
-149.71
-152.95
-151.56
-148.24
-145.08
-143.73
-143.99
-145.84
-148.14
-150.27
-152.67
-156.27
-161.30
-166.60
-170.69
-171.64
-168.72
-161.73
-151.31
-138.91
-126.24
-114.48
-103.50
-92.47
-79.87
-64.98
-48.37
-32.10
-18.86
-10.69
-7.67
-7.79
-8.04
-5.69
0.49
10.30
22.85
37.45
53.76
71.40
89.38
106.09
119.78
129.40
134.91
136.95
136.08
132.17
124.42
111.75
93.70
71.02
45.76
20.75
-1.08
-17.37
-26.74
-28.83
-24.24
-14.40
-1.47
11.95
23.16
30.05
31.69
28.56
22.32
15.14
8.93
4.75
2.65
2.03
2.25
3.05
4.71
7.74
12.48
18.58
24.99
30.35
33.53
34.12
32.47
29.43
25.77
21.83
17.37
11.93
5.33
-2.00
-9.10
-14.87
-18.54
-19.98
-19.53
-17.64
-14.41
-9.60
-2.77
6.34
17.36
29.35
40.99
51.08
59.02
64.89
69.27
72.82
75.93
78.59
80.46
81.14
80.40
78.25
74.84
70.37
64.89
58.45
51.16
43.32
35.38
27.79
20.93
14.95
9.85
5.56
2.02
-0.59
-1.95
-1.64
0.60
4.48
8.91
12.09
11.96
7.05
-2.94
-17.15
-34.10
-52.22
-70.19
-86.76
-100.40
-109.22
-111.41
-105.87
-93.13
-75.30
-55.24
-35.51
-17.68
-2.34
10.35
20.06
26.36
28.59
26.45
20.29
11.13
0.14
-11.87
-24.64
-39.48
-56.20
-73.41
-88.95
-100.28
-104.81
-100.64
-87.58
-67.58
-44.83
-23.93
-8.27
0.93
4.95
6.46
8.03
10.87
16.00
22.61
30.27
38.99
48.41
57.44
64.31
67.26
65.23
59.39
52.09
46.58
45.79
50.89
61.13
74.49
88.99
100.61
107.91
110.60
105.25
91.20
70.98
48.98
28.72
12.56
-1.75
-15.82
-30.64
-46.67
-63.41
-80.27
-96.75
-112.50
-127.34
-141.48
-154.79
-167.63
-174.43
-171.52
-158.36
-137.36
-112.07
-85.66
-61.01
-40.01
-23.75
-11.88
-3.22
3.91
10.91
18.12
24.86
29.92
32.78
33.87
34.24
34.61
35.35
36.51
37.91
39.21
39.93
39.90
39.16
38.07
36.73
35.15
33.30
31.09
28.43
25.38
22.30
19.76
18.24
17.68
17.47
17.01
16.03
14.77
13.96
14.32
16.12
18.95
21.92
23.84
24.24
23.53
22.56
21.98
21.56
20.11
16.41
9.67
0.34
-9.90
-18.92
-25.19
-28.37
-29.07
-28.54
-27.68
-27.40
-28.62
-32.42
-39.72
-50.35
-62.16
-70.29
-71.21
-61.72
-42.21
-16.61
9.20
30.03
43.27
49.39
50.81
49.75
47.53
44.14
39.34
33.53
27.81
23.30
20.21
17.57
13.63
7.32
-1.00
-9.59
-15.95
-17.52
-13.61
-5.62
3.45
10.03
11.19
5.40
-6.93
-23.21
-39.21
-50.18
-52.24
-43.94
-27.45
-8.39
5.76
8.64
-1.80
-21.95
-43.78
-58.32
-59.64
-47.27
-25.59
-0.95
21.83
41.49
59.77
79.10
100.21
121.17
138.37
148.49
150.30
145.16
136.13
126.42
117.95
110.88
104.05
96.22
87.10
77.81
70.37
66.65
67.17
70.71
74.65
76.04
72.57
62.90
46.74
24.56
-2.44
-32.47
-63.21
-92.22
-117.31
-137.13
-151.99
-163.81
-175.35
-188.90
-205.43
-224.38
-244.20
-262.72
-277.63
-287.11
-289.58
-283.29
-266.27
-237.69
-199.26
-155.65
-112.51
-73.81
-40.89
-12.43
14.44
42.57
72.38
101.05
123.40
134.92
134.36
123.60
107.28
91.70
83.54
86.61
102.20
123.10
136.66
135.50
120.97
100.77
79.03
57.71
36.61
14.49
-7.39
-25.85
-35.95
-35.23
-24.63
-7.89
10.42
25.45
33.75
34.12
28.27
19.98
10.62
-1.13
-17.74
-40.70
-70.20
-103.89
-137.44
-165.44
-173.24
-152.74
-110.00
-60.27
-15.48
20.33
48.87
73.89
98.04
121.29
140.94
154.74
163.27
170.30
175.34
179.67
184.10
188.85
193.83
197.74
199.44
199.17
198.22
197.86
199.25
202.43
206.43
209.58
209.31
203.43
191.17
173.02
149.88
122.96
92.78
59.48
23.24
-15.28
-54.47
-91.64
-124.02
-149.51
-166.88
-176.24
-178.69
-175.86
-169.52
-161.36
-152.88
-146.11
-142.78
-143.68
-148.70
-156.79
-166.23
-174.74
-180.06
-180.67
-177.92
-174.28
-172.24
-173.48
-178.40
-185.91
-193.52
-198.21
-197.69
-193.94
-190.05
-188.50
-189.93
-193.42
-196.84
-197.36
-192.06
-178.20
-157.29
-131.26
-101.92
-71.26
-42.82
-21.81
-13.32
-20.35
-23.42
-10.36
20.33
60.34
100.74
135.76
161.80
177.13
180.74
177.98
170.69
160.98
151.62
145.21
142.01
138.96
131.67
114.20
84.32
43.93
0.47
-38.82
-70.45
-94.50
-111.83
-120.72
-117.18
-96.00
-58.70
-13.14
29.33
58.77
72.79
73.31
66.44
59.35
59.98
71.47
92.64
119.40
147.12
172.37
193.59
211.72
216.51
207.38
188.91
167.39
147.24
129.88
114.75
99.86
82.76
61.03
34.73
5.33
-24.70
-52.28
-74.96
-91.93
-103.93
-113.69
-124.94
-138.64
-151.73
-158.25
-152.14
-130.26
-94.37
-51.38
-10.61
21.70
37.04
34.60
22.69
13.44
16.30
33.87
61.17
88.14
104.32
103.46
86.92
61.61
36.00
16.72
6.08
2.11
0.92
-0.11
-0.61
2.77
12.86
28.69
45.57
57.96
61.59
55.59
42.56
26.77
12.72
2.73
-4.49
-11.82
-21.97
-35.92
-52.16
-67.43
-78.14
-81.94
-78.45
-70.24
-60.89
-54.07
-52.64
-57.96
-69.66
-86.07
-106.09
-121.24
-126.51
-119.14
-99.48
-70.33
-35.17
3.46
44.27
84.78
122.67
154.68
177.73
189.03
187.18
173.19
150.57
124.67
99.14
78.42
66.25
63.73
67.54
70.80
66.60
51.28
25.66
-9.30
-49.97
-91.50
-129.33
-160.70
-184.30
-199.75
-208.51
-194.65
-158.56
-116.78
-87.27
-74.88
-73.10
-72.99
-68.83
-59.60
-47.47
-38.43
-35.55
-37.41
-40.33
-41.64
-40.72
-38.09
-34.45
-30.61
-29.21
-31.47
-36.47
-42.81
-49.92
-57.36
-63.21
-63.60
-54.06
-33.43
-3.64
30.67
63.17
87.77
101.15
104.00
99.95
93.32
86.40
79.94
74.12
69.16
65.37
62.97
61.79
61.12
60.11
58.06
54.97
51.81
49.87
49.80
51.38
53.84
56.02
57.02
56.45
54.40
51.49
48.86
47.76
49.03
52.09
54.46
52.31
41.94
22.10
-4.66
-32.23
-53.26
-62.39
-58.46
-44.70
-26.85
-10.37
1.60
8.60
11.75
12.37
10.85
7.15
1.42
-5.28
-11.22
-14.81
-15.23
-13.23
-10.81
-10.46
-14.02
-22.01
-33.32
-45.29
-54.87
-59.59
-58.50
-52.29
-42.90
-32.57
-23.07
-15.55
-9.81
-5.09
-0.68
3.41
6.64
8.20
7.68
5.50
2.48
0.27
-0.06
1.51
3.49
3.38
-1.40
-12.80
-29.33
-51.10
-77.10
-104.87
-129.89
-146.19
-147.98
-132.05
-100.01
-58.25
-16.34
17.34
38.22
46.72
46.69
42.75
37.93
32.99
27.48
20.81
13.72
7.76
4.20
3.12
3.29
2.86
0.12
-5.45
-13.29
-21.80
-29.25
-34.45
-37.16
-37.94
-37.68
-37.06
-36.29
-34.69
-31.19
-25.06
-16.17
-5.27
6.25
16.83
25.19
30.70
33.46
34.12
33.53
32.42
31.18
29.93
28.69
27.53
26.70
26.61
27.83
30.69
35.21
41.02
47.41
53.57
58.78
62.52
64.50
64.90
63.90
61.62
58.12
53.41
47.53
40.72
33.41
26.21
20.39
17.30
18.23
23.94
34.30
48.00
62.89
76.63
84.90
85.37
77.09
60.49
37.09
9.42
-19.12
-44.57
-63.12
-72.28
-71.44
-62.54
-49.28
-35.60
-24.31
-16.54
-12.24
-11.24
-13.81
-20.24
-30.41
-43.18
-56.52
-68.45
-77.98
-85.45
-92.02
-98.78
-105.76
-112.35
-118.01
-123.18
-129.56
-139.26
-153.50
-171.24
-188.86
-200.86
-201.78
-188.32
-160.81
-123.44
-83.02
-46.51
-18.40
0.83
14.52
27.86
45.27
68.56
96.75
127.68
160.06
194.60
233.15
276.40
321.63
362.48
390.99
401.20
392.21
368.78
339.14
311.16
289.26
273.34
260.15
245.76
227.40
203.87
174.91
140.63
101.60
59.65
18.25
-18.28
-46.54
-65.79
-78.64
-90.24
-106.07
-129.61
-160.92
-196.66
-231.35
-259.19
-275.78
-279.01
-269.29
-248.79
-220.49
-187.23
-151.29
-114.49
-78.64
-45.76
-17.80
4.05
20.04
31.87
41.98
52.36
63.49
74.20
82.32
85.97
84.62
79.42
72.51
65.91
60.40
55.27
48.79
39.40
26.63
11.53
-3.78
-17.09
-27.13
-34.03
-39.12
-44.17
-50.55
-58.75
-68.41
-78.66
-88.21
-95.55
-98.85
-96.46
-87.53
-72.78
-54.72
-37.15
-23.92
-17.68
-19.23
-27.58
-40.73
-56.39
-72.50
-87.31
-99.40
-107.79
-112.20
-113.20
-112.00
-110.04
-108.44
-107.78
-108.08
-108.98
-109.92
-110.42
-110.26
-109.65
-109.14
-109.36
-110.54
-112.01
-112.10
-108.47
-98.78
-81.61
-57.13
-27.27
4.66
34.79
59.79
77.66
88.26
93.12
94.71
95.54
97.28
100.38
104.20
107.59
109.47
109.19
106.52
101.40
93.72
83.29
70.15
54.82
38.48
22.81
9.46
-0.47
-6.75
-10.02
-11.45
-12.41
-14.11
-17.41
-22.69
-29.69
-37.38
-44.14
-48.13
-47.89
-42.83
-33.40
-20.89
-6.92
7.08
20.05
31.33
40.48
47.26
51.67
54.13
55.37
56.11
56.63
56.44
54.38
49.10
39.78
26.74
11.52
-3.71
-17.05
-27.48
-34.87
-39.43
-40.98
-38.91
-32.67
-22.50
-10.01
2.09
11.11
15.48
15.33
11.93
6.87
1.47
-3.05
-5.07
-2.27
7.87
26.80
53.91
86.36
120.06
151.36
178.09
199.84
217.11
230.31
239.10
242.56
239.85
231.08
217.44
200.88
183.28
165.86
148.64
130.65
110.62
87.78
62.27
34.97
6.93
-21.13
-48.92
-76.06
-101.38
-122.51
-136.28
-139.86
-132.20
-114.82
-91.55
-67.39
-46.76
-32.17
-23.70
-19.53
-16.91
-13.18
-6.30
5.09
21.74
43.71
70.11
98.83
126.69
150.27
166.93
175.66
177.13
173.02
165.01
154.12
140.64
124.64
106.46
86.79
66.26
44.97
22.17
-3.44
-33.09
-67.22
-104.98
-144.03
-180.93
-211.75
-233.06
-243.01
-241.98
-232.56
-218.56
-203.59
-189.70
-176.83
-163.29
-146.98
-126.66
-102.51
-76.01
-49.28
-24.32
-2.57
15.21
28.66
37.47
41.25
39.80
33.59
24.10
13.86
5.63
1.35
1.22
3.48
5.39
4.77
1.30
-3.39
-6.69
-6.69
-3.43
0.95
3.21
0.41
-8.83
-23.85
-42.21
-60.54
-75.57
-84.97
-87.92
-85.17
-78.46
-69.64
-59.95
-49.74
-39.02
-28.22
-18.66
-12.29
-10.52
-13.29
-18.74
-24.11
-27.09
-26.97
-24.82
-22.52
-21.72
-23.32
-27.94
-36.64
-51.23
-73.22
-102.29
-135.31
-167.10
-192.60
-209.67
-220.40
-230.12
-244.30
-265.09
-289.68
-311.32
-322.57
-318.76
-299.90
-270.02
-234.68
-198.18
-162.26
-126.50
-89.99
-53.06
-17.80
12.87
36.73
53.66
65.89
77.13
91.08
110.36
135.98
167.36
202.47
238.04
269.82
293.21
304.51
302.20
287.78
265.38
240.37
217.40
198.91
184.91
173.81
163.81
153.89
143.99
134.43
125.31
116.24
106.66
96.47
86.33
77.53
71.43
68.74
68.98
70.69
71.96
71.19
67.70
61.86
54.68
47.28
40.41
34.25
28.50
22.75
16.62
9.97
2.82
-4.72
-12.43
-19.83
-26.15
-30.30
-31.12
-27.80
-20.31
-9.55
2.82
14.88
25.09
32.67
37.79
41.36
44.72
49.44
57.01
68.47
83.82
101.46
118.21
130.00
133.27
126.45
110.78
89.96
68.76
51.17
38.95
31.26
25.26
17.44
4.83
-14.10
-39.16
-68.76
-100.21
-130.10
-154.71
-170.57
-175.13
-167.57
-149.10
-122.88
-93.14
-64.09
-38.91
-19.29
-5.49
3.29
8.30
10.75
11.65
11.71
11.39
10.97
10.58
10.24
9.88
9.32
8.23
6.32
3.36
-0.55
-4.93
-9.06
-12.20
-13.89
-14.19
-13.64
-13.01
-12.95
-13.52
-13.94
-12.71
-8.14
0.97
14.76
32.28
51.61
70.49
86.62
97.84
102.21
98.24
85.44
64.80
38.96
11.62
-13.62
-34.49
-50.60
-63.12
-73.63
-83.11
-91.68
-99.10
-105.78
-113.28
-123.92
-139.56
-160.37
-184.31
-207.93
-227.74
-241.63
-249.19
-251.31
-249.10
-243.15
-233.37
-219.36
-201.03
-178.95
-154.46
-129.24
-104.73
-81.53
-59.21
-36.60
-12.59
13.08
39.38
64.19
85.00
99.81
107.72
108.81
103.71
93.30
79.00
63.23
49.72
42.64
45.06
57.11
75.28
93.37
104.78
105.21
94.31
75.71
55.30
38.91
30.19
29.67
35.23
43.41
51.27
57.63
63.42
71.03
82.84
99.73
120.45
142.07
161.22
175.43
183.71
186.15
182.87
173.09
155.19
127.64
90.37
45.62
-2.17
-47.55
-85.59
-113.18
-129.51
-135.86
-134.78
-129.19
-121.69
-114.12
-107.50
-102.15
-97.95
-94.59
-91.64
-88.69
-85.35
-81.33
-76.66
-71.76
-67.36
-64.25
-62.80
-62.74
-63.16
-62.84
-60.80
-56.62
-50.51
-43.10
-35.09
-27.07
-19.53
-12.89
-7.43
-3.20
0.26
3.82
8.48
14.98
23.30
32.73
42.04
49.93
55.44
58.04
57.63
54.40
48.78
41.41
33.12
24.79
17.15
10.52
4.74
-0.68
-6.32
-12.53
-19.36
-26.49
-33.30
-39.05
-42.90
-44.13
-42.30
-37.48
-30.34
-22.00
-13.74
-6.61
-1.16
2.56
4.89
6.27
7.02
7.37
7.44
7.41
7.58
8.31
10.00
12.83
16.75
21.40
26.23
30.66
34.24
36.80
38.45
39.45
40.06
40.39
40.39
39.81
38.27
35.29
30.43
23.45
14.57
4.63
-4.96
-12.43
-16.19
-15.31
-9.89
-1.07
9.34
19.31
27.19
32.11
33.96
33.34
31.15
28.35
25.69
23.58
22.14
21.20
20.44
19.52
18.22
16.52
14.63
12.86
11.52
10.71
10.28
9.88
9.13
7.78
5.84
3.54
1.26
-0.64
-2.00
-2.88
-3.65
-4.78
-6.76
-9.75
-13.50
-17.28
-20.13
-21.15
-19.86
-16.37
-11.36
-5.81
-0.68
3.34
5.92
7.06
6.99
6.04
4.58
2.91
1.32
-0.00
-0.99
-1.68
-2.10
-2.29
-2.22
-1.83
-1.09
-0.13
0.85
1.58
1.80
1.38
0.27
-1.52
-3.94
-6.93
-10.38
-14.15
-18.09
-22.11
-26.15
-30.23
-34.27
-38.07
-41.28
-43.46
-44.23
-43.45
-41.27
-38.12
-34.68
-31.81
-30.44
-31.45
-35.39
-42.21
-51.21
-61.06
-70.11
-76.87
-80.28
-80.03
-76.52
-70.76
-64.08
-57.64
-52.00
-46.84
-41.19
-33.83
-24.04
-11.84
1.92
16.01
29.19
40.53
49.21
54.42
55.49
52.32
46.07
39.19
34.80
35.52
42.26
53.81
67.37
79.86
88.95
93.82
94.99
93.88
92.16
91.54
93.50
98.82
106.78
114.45
117.04
109.49
88.99
56.99
19.52
-14.73
-37.79
-45.63
-39.35
-24.04
-5.88
10.68
24.21
35.69
46.68
57.61
67.27
73.47
74.34
69.15
58.51
43.91
27.18
10.10
-5.54
-17.79
-24.60
-24.41
-16.73
-2.81
14.35
30.60
41.89
45.38
40.14
27.02
7.75
-15.81
-42.02
-69.04
-94.06
-113.19
-122.52
-120.03
-107.43
-90.41
-76.80
-73.11
-81.16
-96.86
-111.74
-116.50
-104.85
-75.61
-32.70
16.87
65.36
106.13
134.43
147.48
144.56
127.23
99.64
68.05
39.60
20.24
12.99
17.16
28.99
43.45
56.17
64.61
68.32
68.21
65.64
61.82
57.59
53.59
50.25
47.68
45.46
42.67
38.27
31.58
22.67
12.29
1.60
-8.27
-16.48
-22.51
-26.20
-27.69
-27.47
-26.39
-25.50
-25.85
-28.25
-33.16
-40.51
-49.56
-58.86
-66.48
-70.43
-69.42
-63.34
-53.40
-41.77
-30.89
-22.86
-18.97
-19.33
-22.87
-27.49
-30.66
-30.29
-25.66
-17.74
-8.82
-1.41
3.06
4.81
5.36
6.47
9.06
12.82
16.61
19.26
20.21
19.56
17.66
14.68
10.41
4.45
-3.36
-12.57
-22.14
-30.75
-37.27
-41.18
-42.68
-42.45
-41.31
-39.78
-38.03
-36.00
-33.60
-30.89
-28.09
-25.42
-23.05
-21.06
-19.51
-18.49
-18.09
-18.16
-18.29
-17.78
-15.95
-12.47
-7.66
-2.44
1.95
4.43
4.59
2.82
0.15
-2.22
-3.47
-3.41
-2.57
-1.91
-2.41
-4.72
-8.84
-13.95
-18.46
-20.29
-17.40
-8.48
6.50
26.06
47.45
67.49
83.41
93.68
98.18
97.94
94.44
89.03
82.52
75.19
66.95
57.67
47.40
36.37
25.04
13.97
3.79
-4.81
-11.02
-14.12
-13.64
-9.69
-3.04
4.98
12.83
19.10
22.86
23.74
21.80
17.41
11.05
3.32
-5.08
-13.34
-20.46
-25.25
-26.30
-22.10
-11.48
5.83
28.65
54.27
79.00
99.26
112.69
118.85
118.89
114.76
108.04
99.32
88.22
74.12
57.00
37.85
18.61
1.52
-11.68
-20.14
-24.05
-24.38
-22.54
-19.99
-17.99
-17.45
-18.81
-22.01
-26.50
-31.37
-35.56
-38.12
-38.52
-36.87
-33.88
-30.60
-28.03
-26.66
-26.32
-26.29
-25.65
-23.70
-20.24
-15.56
-10.28
-5.09
-0.60
2.73
4.61
5.03
4.25
2.81
1.30
0.06
-1.21
-3.20
-6.79
-12.39
-19.45
-26.52
-32.04
-35.54
-38.25
-42.50
-50.08
-60.77
-72.04
-80.39
-83.51
-81.77
-77.92
-75.17
-74.96
-75.98
-75.19
-70.06
-60.47
-49.05
-39.59
-34.83
-34.92
-37.55
-39.36
-37.76
-31.93
-22.90
-12.91
-4.17
1.97
5.37
6.86
7.56
8.31
9.34
10.34
10.92
11.04
11.11
11.81
13.61
16.54
20.07
23.41
25.74
26.49
25.41
22.57
18.27
13.03
7.47
2.22
-2.19
-5.48
-7.70
-9.18
-10.45
-12.06
-14.41
-17.54
-21.02
-24.04
-25.64
-25.14
-22.44
-18.04
-12.77
-7.39
-2.33
2.38
6.90
11.27
15.34
18.94
21.97
24.54
26.81
28.76
30.06
30.25
28.98
26.28
22.50
18.18
13.83
9.80
6.37
3.74
2.03
1.22
1.04
1.13
1.16
0.99
0.71
0.57
0.74
1.29
2.12
3.12
4.28
5.67
7.44
9.71
12.49
15.76
19.44
23.40
27.46
31.31
34.49
36.47
36.75
35.10
31.65
26.95
21.84
17.15
13.42
10.75
8.81
7.17
5.51
3.86
2.52
1.88
2.12
3.05
4.18
4.98
5.19
4.96
4.66
4.64
4.82
4.76
3.80
1.50
-2.05
-6.43
-11.07
-15.74
-20.55
-25.67
-31.00
-35.89
-39.31
-40.33
-38.63
-34.70
-29.66
-24.71
-20.67
-17.78
-15.82
-14.40
-13.29
-12.46
-11.95
-11.77
-11.75
-11.66
-11.34
-10.78
-10.19
-9.80
-9.80
-10.13
-10.57
-10.79
-10.61
-10.02
-9.26
-8.67
-8.59
-9.14
-10.28
-11.79
-13.41
-14.86
-16.00
-16.78
-17.24
-17.51
-17.71
-17.92
-18.10
-17.96
-17.16
-15.34
-12.38
-8.45
-3.99
0.49
4.54
7.97
10.72
12.79
14.16
14.74
14.49
13.49
12.02
10.50
9.38
9.03
9.64
11.17
13.38
15.87
18.20
19.96
20.90
20.92
20.03
18.29
15.78
12.61
9.01
5.31
1.95
-0.75
-2.64
-3.90
-4.91
-6.10
-7.78
-10.05
-12.79
-15.72
-18.44
-20.57
-21.75
-21.73
-20.47
-18.13
-15.07
-11.63
-8.11
-4.62
-1.19
2.08
5.00
7.24
8.50
8.64
7.79
6.30
4.62
3.17
2.16
1.68
1.65
1.98
2.61
3.51
4.66
5.99
7.43
8.86
10.19
11.35
12.26
12.76
12.65
11.79
10.15
7.94
5.52
3.19
1.04
-1.15
-3.70
-6.77
-10.12
-13.03
-14.56
-13.98
-11.11
-6.47
-1.17
3.52
6.58
7.55
6.56
4.13
0.90
-2.60
-6.06
-9.34
-12.29
-14.78
-16.69
-18.03
-18.92
-19.69
-20.65
-21.97
-23.57
-25.19
-26.43
-26.98
-26.67
-25.58
-23.95
-22.08
-20.23
-18.53
-16.94
-15.30
-13.45
-11.32
-9.04
-6.99
-5.56
-5.02
-5.33
-6.01
-6.32
-5.51
-3.11
0.92
6.11
11.70
16.91
21.05
23.78
25.02
24.90
23.62
21.38
18.34
14.66
10.58
6.45
2.70
-0.33
-2.56
-4.27
-6.18
-9.14
-13.92
-20.88
-29.87
-40.26
-51.11
-61.39
-70.07
-76.15
-78.68
-76.73
-69.64
-57.22
-40.08
-19.65
2.02
22.73
40.58
54.30
63.33
67.64
67.69
64.44
59.36
54.30
51.07
50.73
53.21
57.25
60.94
62.49
60.98
56.56
50.28
43.47
37.18
31.95
27.79
24.51
22.11
20.89
21.43
24.18
28.92
34.52
39.11
40.76
38.51
32.94
26.03
20.15
16.75
15.48
14.21
10.02
0.35
-15.97
-38.52
-65.38
-93.37
-118.23
-135.23
-140.28
-131.67
-111.24
-84.19
-57.11
-35.24
-20.36
-10.74
-3.11
4.62
11.69
15.08
11.73
1.04
-14.20
-28.99
-38.37
-39.58
-32.91
-21.05
-7.60
4.32
12.99
18.21
21.03
23.11
26.21
31.71
40.27
51.67
64.74
77.41
86.95
90.53
85.94
72.49
51.53
26.32
0.85
-21.48
-39.10
-52.56
-63.86
-75.38
-89.00
-105.67
-125.40
-147.42
-170.26
-191.63
-208.59
-218.16
-218.27
-208.79
-191.84
-170.97
-149.72
-130.15
-112.25
-94.61
-75.80
-55.68
-35.77
-18.55
-6.02
1.49
5.80
10.24
18.29
32.08
51.53
74.33
96.75
114.88
125.76
128.18
122.70
111.13
95.77
78.71
61.65
45.99
33.03
23.90
19.23
18.90
21.94
26.76
31.43
34.00
32.97
27.96
20.23
12.90
10.23
16.11
32.19
56.69
84.54
108.99
124.14
127.01
118.40
102.27
83.95
68.35
58.82
56.86
62.55
75.32
94.38
118.66
146.05
172.88
194.24
205.25
203.01
187.87
163.29
134.12
104.22
74.81
44.53
11.27
-25.58
-63.63
-97.97
-123.07
-135.22
-134.09
-122.60
-105.61
-87.92
-72.93
-62.10
-55.13
-50.80
-47.84
-45.35
-42.81
-39.96
-36.53
-32.27
-27.05
-21.08
-15.00
-9.73
-6.14
-4.70
-5.24
-7.08
-9.28
-11.03
-11.90
-11.96
-11.49
-10.84
-10.20
-9.58
-8.90
-8.11
-7.24
-6.36
-5.63
-5.29
-5.62
-6.97
-9.55
-13.26
-17.59
-21.65
-24.42
-25.06
-23.24
-19.19
-13.64
-7.60
-2.06
2.22
4.81
5.63
4.92
3.11
0.73
-1.79
-4.14
-6.21
-8.08
-9.94
-12.03
-14.55
-17.51
-20.66
-23.54
-25.59
-26.33
-25.56
-23.42
-20.32
-16.74
-13.15
-9.78
-6.74
-4.04
-1.68
0.32
1.90
3.09
3.98
4.76
5.68
6.95
8.71
10.91
13.29
15.40
16.67
16.54
14.66
11.04
6.05
0.38
-5.19
-10.01
-13.73
-16.36
-18.12
-19.31
-20.21
-21.00
-21.87
-22.92
-24.18
-25.50
-26.47
-26.56
-25.32
-22.50
-18.18
-12.72
-6.61
-0.35
5.56
10.62
14.41
16.63
17.26
16.64
15.41
14.24
13.61
13.55
13.69
13.50
12.59
11.00
9.14
7.62
6.88
6.94
7.41
7.72
7.45
6.51
5.16
3.77
2.61
1.63
0.57
-0.85
-2.73
-4.87
-6.82
-8.06
-8.14
-6.85
-4.29
-0.84
2.94
6.44
9.14
10.71
11.01
10.14
8.33
5.87
3.09
0.33
-2.13
-4.03
-5.20
-5.58
-5.24
-4.39
-3.37
-2.61
-2.44
-2.94
-3.98
-5.22
-6.38
-7.36
-8.32
-9.38
-10.39
-10.61
-8.84
-3.88
4.94
17.31
31.88
46.68
59.63
68.98
73.55
72.71
66.32
54.73
38.91
20.45
1.43
-15.89
-29.69
-38.88
-43.38
-43.95
-41.76
-37.97
-33.42
-28.42
-22.92
-16.78
-10.10
-3.38
2.54
6.74
8.52
7.68
4.54
-0.15
-5.44
-10.42
-14.36
-16.80
-17.59
-16.94
-15.37
-13.55
-12.07
-11.22
-10.81
-10.27
-8.90
-6.25
-2.37
2.20
6.64
10.21
12.57
13.82
14.37
14.68
15.02
15.37
15.51
15.23
14.40
13.11
11.53
9.88
8.26
6.68
5.10
3.48
1.91
0.55
-0.41
-0.78
-0.53
0.34
1.75
3.56
5.58
7.53
9.01
9.66
9.25
7.88
6.03
4.45
3.93
5.05
8.00
12.53
18.06
23.85
29.25
33.83
37.40
40.00
41.71
42.57
42.49
41.17
38.22
33.24
25.98
16.47
5.09
-7.42
-20.03
-31.68
-41.49
-49.01
-54.33
-57.87
-60.14
-61.43
-61.64
-60.42
-57.47
-52.82
-46.93
-40.56
-34.50
-29.30
-25.13
-21.85
-19.10
-16.45
-13.47
-9.80
-5.30
-0.12
5.34
10.56
15.14
18.97
22.10
24.61
26.43
27.28
26.92
25.38
23.08
20.77
19.08
18.31
18.21
18.25
17.92
16.97
15.54
14.00
12.74
11.98
11.72
11.79
11.95
12.02
11.84
11.34
10.45
9.10
7.28
5.07
2.72
0.62
-0.76
-1.04
-0.02
2.22
5.35
8.93
12.49
15.64
18.07
19.56
19.95
19.22
17.49
15.08
12.45
10.17
8.67
8.20
8.72
9.91
11.27
12.27
12.45
11.54
9.52
6.59
3.13
-0.33
-3.26
-5.23
-6.12
-6.15
-5.87
-5.95
-6.93
-8.96
-11.75
-14.61
-16.82
-17.80
-17.41
-15.90
-13.79
-11.65
-9.84
-8.50
-7.52
-6.69
-5.80
-4.78
-3.70
-2.77
-2.23
-2.28
-2.92
-3.99
-5.12
-5.92
-6.10
-5.60
-4.63
-3.54
-2.68
-2.29
-2.38
-2.86
-3.57
-4.37
-5.16
-5.87
-6.40
-6.70
-6.77
-6.74
-6.76
-6.97
-7.32
-7.55
-7.29
-6.18
-4.09
-1.14
2.25
5.58
8.42
10.55
11.94
12.73
13.07
13.09
12.84
12.30
11.51
10.55
9.56
8.68
8.02
7.59
7.34
7.21
7.09
6.89
6.53
5.94
5.11
4.09
2.99
1.87
0.80
-0.29
-1.46
-2.77
-4.24
-5.83
-7.47
-9.02
-10.31
-11.03
-10.87
-9.60
-7.19
-3.95
-0.41
2.80
5.17
6.50
6.91
6.69
6.22
5.73
5.33
4.93
4.43
3.77
3.02
2.33
1.88
1.76
1.92
2.17
2.28
2.10
1.62
0.96
0.26
-0.38
-0.98
-1.63
-2.43
-3.38
-4.45
-5.58
-6.82
-8.22
-9.85
-11.58
-13.09
-13.86
-13.43
-11.57
-8.45
-4.57
-0.59
2.89
5.57
7.41
8.59
9.26
9.49
9.25
8.53
7.43
6.19
5.15
4.54
4.48
4.84
5.34
5.72
5.81
5.60
5.23
4.88
4.62
4.37
3.89
2.93
1.26
-1.15
-4.21
-7.65
-11.25
-14.76
-18.05
-20.99
-23.41
-25.07
-25.70
-25.08
-23.09
-19.92
-15.94
-11.67
-7.61
-4.04
-0.98
1.73
4.29
6.74
8.89
10.37
10.81
9.96
7.83
4.66
0.86
-3.11
-6.79
-9.76
-11.68
-12.32
-11.67
-9.92
-7.48
-4.84
-2.42
-0.52
0.81
1.66
2.22
2.64
2.99
3.23
3.22
2.87
2.21
1.41
0.78
0.64
1.09
1.98
2.92
3.45
3.23
2.17
0.38
-1.89
-4.38
-6.94
-9.47
-11.91
-14.17
-16.14
-17.79
-19.19
-20.51
-21.87
-23.22
-24.23
-24.34
-22.87
-19.37
-13.75
-6.45
1.74
9.88
17.13
22.86
26.66
28.23
27.32
23.88
18.26
11.33
4.46
-0.82
-3.36
-2.71
0.71
5.82
11.34
16.14
19.63
21.64
22.40
22.32
21.90
21.61
21.84
22.78
24.37
26.27
27.99
29.03
29.06
28.02
26.08
23.48
20.44
17.05
13.33
9.34
5.28
1.44
-1.85
-4.40
-6.26
-7.71
-9.09
-10.71
-12.68
-14.87
-17.00
-18.81
-20.04
-20.54
-20.18
-18.90
-16.74
-13.86
-10.55
-7.22
-4.24
-1.87
-0.16
1.03
1.96
2.88
3.94
5.13
6.33
7.33
7.98
8.18
8.00
7.57
7.03
6.53
6.12
5.82
5.63
5.55
5.55
5.58
5.57
5.38
4.94
4.14
2.94
1.32
-0.67
-2.92
-5.24
-7.38
-9.14
-10.35
-10.96
-11.04
-10.66
-9.88
-8.70
-7.10
-5.12
-2.93
-0.75
1.12
2.43
3.10
3.19
2.86
2.33
1.76
1.26
0.85
0.56
0.40
0.40
0.58
0.89
1.22
1.45
1.44
1.15
0.61
-0.10
-0.84
-1.59
-2.30
-3.04
-3.87
-4.88
-6.13
-7.66
-9.41
-11.21
-12.77
-13.72
-13.77
-12.73
-10.67
-7.80
-4.49
-1.14
1.90
4.34
5.99
6.74
6.66
5.94
4.85
3.70
2.74
2.11
1.84
1.87
2.12
2.47
2.83
3.11
3.27
3.35
3.39
3.45
3.54
3.62
3.57
3.28
2.68
1.80
0.72
-0.43
-1.57
-2.61
-3.48
-4.04
-4.04
-3.23
-1.37
1.59
5.52
10.11
14.95
19.56
23.49
26.23
27.26
26.15
22.68
17.03
9.83
2.08
-5.18
-11.08
-15.18
-17.46
-18.28
-18.15
-17.54
-16.78
-15.99
-15.11
-13.96
-12.37
-10.32
-8.04
-6.08
-5.26
-6.48
-10.40
-17.13
-26.07
-35.96
-45.16
-52.04
-55.44
-54.83
-50.45
-43.14
-34.02
-24.21
-14.54
-5.33
3.45
12.05
20.62
28.99
36.60
42.57
45.89
45.63
41.21
32.55
20.29
5.74
-9.25
-22.67
-32.86
-38.89
-40.65
-38.66
-33.66
-26.36
-17.35
-7.27
3.01
12.44
19.97
24.80
26.49
24.99
20.40
12.95
3.04
-8.56
-20.62
-31.54
-39.73
-44.04
-44.13
-40.46
-34.02
-25.99
-17.37
-8.86
-0.86
6.33
12.43
17.09
19.99
20.94
19.97
17.36
13.62
9.27
4.82
0.69
-2.81
-5.39
-6.83
-7.03
-6.06
-4.18
-1.87
0.39
2.19
3.32
3.74
3.52
2.72
1.35
-0.61
-3.04
-5.66
-8.00
-9.49
-9.66
-8.28
-5.42
-1.44
3.17
7.85
12.11
15.60
18.06
19.40
19.65
19.00
17.73
16.18
14.62
13.23
12.04
11.06
10.28
9.72
9.40
9.26
9.16
8.91
8.37
7.59
6.71
5.96
5.44
5.04
4.46
3.37
1.53
-1.12
-4.36
-7.84
-11.07
-13.53
-14.75
-14.40
-12.42
-9.03
-4.71
0.01
4.63
8.84
12.51
15.61
18.13
20.00
21.18
21.68
21.66
21.37
21.15
21.29
21.91
23.01
24.43
25.98
27.47
28.71
29.51
29.62
28.85
27.21
25.01
22.80
21.19
20.37
19.80
18.37
14.91
8.90
0.88
-7.74
-15.35
-20.80
-23.65
-23.83
-21.14
-15.11
-5.25
8.34
24.61
41.73
57.87
71.87
83.46
92.84
99.99
104.34
105.02
101.56
94.44
84.97
74.73
64.94
56.05
47.91
40.19
32.66
25.36
18.44
12.09
6.55
2.35
0.28
1.19
5.47
12.68
21.40
29.68
35.81
38.94
39.21
37.43
34.49
30.84
26.58
21.81
17.16
13.78
12.99
15.46
20.72
27.11
32.46
34.88
33.45
28.25
19.89
8.93
-4.36
-19.79
-36.72
-53.71
-68.75
-79.94
-86.43
-88.91
-89.39
-90.33
-93.49
-99.19
-106.22
-112.56
-116.36
-116.76
-114.10
-109.50
-104.20
-99.04
-94.26
-89.68
-84.85
-79.29
-72.41
-63.63
-52.50
-39.09
-24.23
-9.41
3.62
13.47
19.47
21.63
20.26
15.54
7.50
-3.59
-16.70
-29.92
-41.05
-48.61
-52.73
-55.06
-57.93
-62.88
-69.73
-76.64
-81.24
-82.06
-79.48
-75.61
-73.25
-74.53
-80.00
-88.58
-98.19
-106.59
-112.01
-113.18
-108.97
-98.06
-78.92
-50.39
-12.61
32.20
79.65
124.09
160.24
184.86
197.65
201.04
198.90
194.96
191.76
190.46
191.11
192.85
193.92
191.80
183.90
168.86
147.65
123.64
101.33
84.00
71.96
62.29
50.56
33.44
10.65
-15.00
-39.24
-58.68
-72.46
-82.36
-91.46
-102.32
-115.80
-130.93
-145.63
-158.08
-167.74
-175.49
-183.04
-191.66
-200.93
-208.39
-210.01
-201.72
-181.09
-148.42
-106.79
-60.99
-16.01
24.30
57.87
84.12
103.34
115.87
121.89
121.53
115.35
104.69
91.61
78.44
67.09
58.58
52.82
48.92
45.65
42.03
37.65
32.66
27.56
22.78
18.39
14.06
9.30
3.83
-2.10
-7.69
-11.93
-14.01
-13.69
-11.38
-7.95
-4.39
-1.51
0.27
0.85
0.43
-0.57
-1.68
-2.40
-2.41
-1.58
-0.08
1.78
3.63
5.27
6.59
7.55
8.08
8.03
7.27
5.77
3.68
1.20
-1.52
-4.42
-7.48
-10.54
-13.18
-14.82
-14.94
-13.33
-10.23
-6.21
-1.91
2.22
6.01
9.44
12.49
15.01
16.81
17.71
17.69
16.94
15.72
14.29
12.81
11.39
10.06
8.90
7.97
7.30
6.94
6.79
6.74
6.62
6.30
5.71
4.81
3.58
1.96
-0.11
-2.67
-5.66
-8.89
-12.10
-14.99
-17.30
-18.81
-19.37
-18.86
-17.28
-14.76
-11.62
-8.33
-5.42
-3.29
-2.14
-1.95
-2.50
-3.54
-4.83
-6.22
-7.57
-8.78
-9.64
-9.96
-9.47
-8.00
-5.55
-2.33
1.24
4.65
7.46
9.49
10.79
11.75
12.77
14.12
15.72
17.13
17.71
16.93
14.59
10.87
6.27
1.39
-3.15
-6.82
-9.13
-9.66
-8.19
-4.89
-0.46
3.98
7.15
8.19
6.94
4.04
0.64
-2.08
-3.38
-3.07
-1.50
0.78
3.32
5.86
8.32
10.62
12.58
13.88
14.22
13.49
11.83
9.66
7.44
5.54
3.99
2.51
0.71
-1.70
-4.73
-8.12
-11.45
-14.42
-16.93
-19.13
-21.23
-23.32
-25.26
-26.70
-27.20
-26.48
-24.50
-21.50
-17.94
-14.33
-11.14
-8.57
-6.65
-5.18
-3.86
-2.45
-0.76
1.26
3.55
5.98
8.38
10.57
12.46
14.02
15.34
16.53
17.64
18.69
19.58
20.22
20.52
20.45
20.03
19.27
18.18
16.74
14.98
13.01
10.97
9.03
7.26
5.64
4.11
2.67
1.53
1.11
1.86
4.04
7.56
11.79
15.76
18.37
18.84
16.96
13.18
8.38
3.58
-0.40
-3.16
-4.70
-5.22
-4.93
-3.94
-2.29
-0.05
2.50
4.93
6.77
7.71
7.73
7.08
6.14
5.20
4.35
3.53
2.65
1.66
0.67
-0.16
-0.79
-1.31
-2.03
-3.21
-4.95
-6.99
-8.80
-9.73
-9.28
-7.37
-4.30
-0.66
2.87
5.78
7.80
8.86
9.04
8.39
7.00
4.98
2.56
0.04
-2.19
-3.76
-4.41
-4.09
-2.99
-1.49
-0.08
0.78
0.86
0.17
-1.00
-2.34
-3.59
-4.65
-5.55
-6.27
-6.72
-6.70
-6.08
-4.94
-3.60
-2.53
-2.13
-2.52
-3.46
-4.44
-4.89
-4.36
-2.71
-0.04
3.31
6.89
10.26
13.08
15.13
16.35
16.78
16.50
15.61
14.18
12.22
9.78
7.03
4.25
1.83
0.18
-0.44
-0.01
1.24
2.95
4.71
6.21
7.26
7.81
7.84
7.35
6.35
4.92
3.22
1.42
-0.26
-1.66
-2.61
-2.92
-2.36
-0.81
1.75
5.08
8.74
12.23
15.15
17.35
18.95
20.24
21.47
22.75
23.91
24.69
24.90
24.56
23.99
23.75
24.44
26.51
30.25
35.79
43.11
51.95
61.66
71.10
78.86
83.75
85.27
83.93
80.90
77.44
74.08
70.34
65.01
56.87
45.46
31.41
16.17
1.26
-12.42
-24.87
-36.76
-48.85
-61.37
-73.82
-85.18
-94.37
-100.80
-104.55
-106.27
-106.68
-106.25
-104.95
-102.46
-98.52
-93.15
-86.77
-80.06
-73.73
-68.32
-64.22
-61.60
-60.58
-61.18
-63.39
-67.02
-71.66
-76.69
-81.31
-84.65
-86.00
-84.95
-81.57
-76.38
-70.27
-64.14
-58.61
-53.82
-49.40
-44.74
-39.25
-32.73
-25.43
-17.95
-10.96
-4.91
0.15
4.46
8.36
12.14
15.89
19.55
23.07
26.42
29.66
32.86
36.01
38.95
41.38
43.02
43.67
43.30
42.02
40.06
37.66
35.02
32.29
29.60
27.06
24.73
22.62
20.59
18.39
15.76
12.55
8.82
4.85
1.08
-2.03
-4.08
-4.92
-4.69
-3.77
-2.68
-1.91
-1.76
-2.27
-3.29
-4.57
-5.93
-7.27
-8.54
-9.59
-10.20
-10.09
-9.10
-7.27
-4.89
-2.31
0.17
2.42
4.49
6.54
8.67
10.90
13.13
15.15
16.71
17.57
17.59
16.78
15.39
13.88
12.79
12.58
13.48
15.52
18.53
22.33
26.75
31.68
36.95
42.24
47.11
51.10
53.91
55.53
56.26
56.63
57.23
58.52
60.73
63.74
67.16
70.44
73.04
74.63
75.30
75.51
75.99
77.42
80.09
83.68
87.29
89.69
89.70
86.58
80.14
70.72
58.97
45.65
31.38
16.65
1.78
-13.01
-27.59
-41.81
-55.44
-68.19
-79.64
-89.42
-97.25
-103.05
-106.89
-108.92
-109.26
-108.01
-105.32
-101.51
-97.15
-93.05
-89.98
-88.45
-88.44
-89.39
-90.38
-90.56
-89.48
-87.30
-84.64
-82.23
-80.59
-79.88
-79.90
-80.32
-80.84
-81.25
-81.36
-80.88
-79.53
-77.04
-73.35
-68.64
-63.25
-57.60
-52.00
-46.67
-41.73
-37.29
-33.44
-30.25
-27.64
-25.31
-22.71
-19.11
-13.85
-6.63
2.30
12.18
21.96
30.59
37.35
41.85
44.10
44.28
42.79
40.19
37.25
34.82
33.58
33.81
35.19
37.01
38.38
38.66
37.66
35.72
33.43
31.41
30.10
29.63
29.89
30.71
31.90
33.33
34.83
36.12
36.85
36.66
35.27
32.61
28.79
24.10
18.89
13.56
8.47
3.92
0.13
-2.87
-5.17
-6.99
-8.59
-10.19
-12.01
-14.28
-17.27
-21.19
-26.09
-31.86
-38.26
-45.04
-52.07
-59.16
-65.90
-71.46
-74.56
-73.83
-68.26
-57.57
-42.43
-24.29
-4.94
13.89
30.84
45.06
56.15
64.14
69.27
71.95
72.65
71.83
69.92
67.39
64.62
61.85
59.16
56.41
53.39
50.01
46.42
43.02
40.35
38.84
38.62
39.46
40.89
42.32
43.26
43.42
42.72
41.15
38.77
35.56
31.48
26.55
20.93
15.00
9.30
4.45
0.94
-0.91
-1.04
0.39
3.02
6.33
9.67
12.40
14.05
14.39
13.54
11.86
9.81
7.75
5.87
4.25
2.88
1.81
1.12
0.90
1.21
1.97
3.00
4.08
4.96
5.50
5.65
5.46
5.00
4.32
3.43
2.33
1.04
-0.40
-1.97
-3.69
-5.57
-7.60
-9.62
-11.33
-12.36
-12.40
-11.31
-9.21
-6.39
-3.24
-0.12
2.63
4.71
5.96
6.26
5.67
4.36
2.64
0.79
-0.87
-2.11
-2.76
-2.73
-2.09
-0.96
0.44
1.91
3.34
4.63
5.73
6.57
7.10
7.25
6.98
6.30
5.25
3.84
2.09
0.03
-2.31
-4.88
-7.63
-10.43
-13.07
-15.19
-16.37
-16.22
-14.56
-11.54
-7.64
-3.58
-0.05
2.50
3.92
4.37
4.14
3.51
2.65
1.68
0.68
-0.26
-0.96
-1.31
-1.26
-0.88
-0.34
0.22
0.74
1.26
1.82
2.44
2.98
3.30
3.22
2.68
1.75
0.59
-0.66
-1.89
-3.09
-4.30
-5.58
-6.94
-8.32
-9.52
-10.29
-10.35
-9.51
-7.77
-5.36
-2.63
0.09
2.50
4.47
5.99
7.05
7.68
7.86
7.61
7.02
6.23
5.39
4.62
3.98
3.47
3.10
2.88
2.82
2.98
3.33
3.83
4.33
4.73
4.92
4.88
4.62
4.19
3.64
2.96
2.16
1.20
0.04
-1.34
-2.95
-4.70
-6.41
-7.80
-8.57
-8.50
-7.54
-5.78
-3.53
-1.10
1.19
3.07
4.41
5.15
5.32
5.01
4.36
3.46
2.41
1.27
0.06
-1.11
-2.14
-2.87
-3.19
-3.06
-2.54
-1.77
-0.96
-0.27
0.17
0.30
0.19
-0.09
-0.41
-0.72
-0.99
-1.28
-1.66
-2.20
-2.97
-4.00
-5.23
-6.52
-7.58
-8.09
-7.77
-6.50
-4.37
-1.72
1.03
3.51
5.52
6.99
7.98
8.54
8.67
8.34
7.53
6.32
4.88
3.47
2.36
1.69
1.52
1.76
2.23
2.76
3.23
3.57
3.78
3.88
3.87
3.72
3.43
2.98
2.40
1.68
0.82
-0.20
-1.40
-2.80
-4.37
-6.02
-7.59
-8.84
-9.53
-9.45
-8.47
-6.60
-4.00
-0.96
2.13
4.88
6.92
8.03
8.17
7.51
6.35
5.02
3.81
2.84
2.11
1.57
1.18
0.95
0.96
1.26
1.84
2.56
3.24
3.70
3.85
3.67
3.22
2.57
1.76
0.79
-0.29
-1.45
-2.62
-3.80
-5.02
-6.28
-7.54
-8.56
-9.00
-8.52
-6.97
-4.51
-1.57
1.28
3.58
5.05
5.69
5.68
5.23
4.52
3.67
2.73
1.73
0.70
-0.32
-1.28
-2.09
-2.71
-3.13
-3.39
-3.55
-3.71
-3.89
-4.08
-4.24
-4.32
-4.37
-4.43
-4.59
-4.91
-5.45
-6.22
-7.27
-8.64
-10.38
-12.41
-14.51
-16.31
-17.36
-17.32
-16.03
-13.55
-10.22
-6.46
-2.73
0.60
3.28
5.22
6.46
7.11
7.28
7.05
6.45
5.50
4.28
2.93
1.69
0.76
0.30
0.29
0.66
1.28
2.03
2.83
3.59
4.18
4.47
4.38
3.90
3.18
2.40
1.70
1.12
0.57
-0.09
-1.01
-2.27
-3.82
-5.50
-7.03
-8.07
-8.29
-7.52
-5.81
-3.49
-1.04
1.04
2.44
3.08
3.06
2.62
1.93
1.15
0.33
-0.49
-1.27
-2.02
-2.71
-3.31
-3.77
-4.01
-3.94
-3.54
-2.85
-2.02
-1.21
-0.58
-0.23
-0.17
-0.39
-0.79
-1.24
-1.61
-1.81
-1.84
-1.84
-2.03
-2.62
-3.67
-5.03
-6.35
-7.21
-7.27
-6.38
-4.68
-2.48
-0.11
2.13
4.08
5.71
6.99
7.86
8.23
7.98
7.13
5.87
4.49
3.35
2.69
2.58
2.94
3.55
4.23
4.82
5.25
5.49
5.50
5.29
4.88
4.37
3.86
3.44
3.12
2.81
2.38
1.69
0.64
-0.78
-2.47
-4.21
-5.73
-6.71
-6.89
-6.14
-4.53
-2.31
0.19
2.55
4.50
5.82
6.45
6.44
5.94
5.14
4.27
3.51
2.96
2.68
2.62
2.75
3.05
3.49
4.05
4.68
5.27
5.72
5.96
5.98
5.77
5.37
4.78
3.97
2.96
1.77
0.46
-0.90
-2.29
-3.73
-5.24
-6.79
-8.20
-9.21
-9.51
-8.89
-7.32
-4.95
-2.12
0.74
3.22
5.00
5.91
5.97
5.34
4.29
3.09
1.87
0.72
-0.35
-1.34
-2.17
-2.72
-2.89
-2.67
-2.15
-1.52
-0.97
-0.62
-0.53
-0.63
-0.89
-1.28
-1.83
-2.56
-3.48
-4.53
-5.62
-6.66
-7.63
-8.54
-9.41
-10.24
-10.91
-11.22
-10.92
-9.86
-7.97
-5.39
-2.40
0.63
3.33
5.41
6.74
7.36
7.41
7.05
6.41
5.58
4.62
3.61
2.67
1.92
1.42
1.14
0.95
0.73
0.36
-0.15
-0.77
-1.40
-2.01
-2.59
-3.17
-3.78
-4.43
-5.16
-5.97
-6.91
-8.02
-9.29
-10.68
-12.04
-13.23
-14.05
-14.34
-13.98
-12.91
-11.18
-8.92
-6.39
-3.84
-1.54
0.33
1.66
2.40
2.58
2.24
1.49
0.45
-0.74
-2.00
-3.27
-4.54
-5.79
-6.94
-7.94
-8.68
-9.14
-9.29
-9.15
-8.76
-8.15
-7.37
-6.49
-5.57
-4.61
-3.54
-2.24
-0.64
1.27
3.33
5.29
6.92
8.10
8.88
9.45
10.07
10.95
12.22
13.89
15.88
18.00
19.98
21.50
22.27
22.06
20.81
18.60
15.64
12.24
8.72
5.38
2.45
0.04
-1.85
-3.29
-4.41
-5.33
-6.11
-6.80
-7.39
-7.94
-8.52
-9.15
-9.81
-10.44
-10.92
-11.12
-10.98
-10.49
-9.66
-8.61
-7.50
-6.53
-5.90
-5.65
-5.65
-5.54
-4.95
-3.57
-1.32
1.65
5.03
8.47
11.70
14.52
16.85
18.61
19.77
20.31
20.24
19.65
18.64
17.36
15.91
14.40
12.90
11.45
10.11
8.92
7.93
7.17
6.59
6.06
5.45
4.62
3.54
2.24
0.84
-0.54
-1.85
-3.11
-4.44
-5.92
-7.60
-9.38
-11.06
-12.35
-13.04
-12.97
-12.12
-10.59
-8.49
-6.01
-3.37
-0.87
1.17
2.47
2.89
2.53
1.67
0.67
-0.21
-0.88
-1.43
-2.01
-2.71
-3.47
-4.18
-4.71
-4.97
-4.96
-4.72
-4.31
-3.80
-3.33
-3.07
-3.23
-3.94
-5.17
-6.68
-8.15
-9.31
-10.10
-10.65
-11.17
-11.85
-12.67
-13.39
-13.64
-13.07
-11.45
-8.81
-5.37
-1.52
2.25
5.52
7.92
9.29
9.66
9.21
8.20
6.84
5.31
3.70
2.08
0.61
-0.57
-1.28
-1.45
-1.09
-0.35
0.56
1.46
2.24
2.84
3.27
3.53
3.59
3.43
3.11
2.69
2.25
1.80
1.29
0.62
-0.31
-1.50
-2.84
-4.14
-5.12
-5.48
-5.02
-3.64
-1.48
1.11
3.64
5.64
6.82
7.17
6.94
6.47
6.04
5.76
5.51
5.12
4.47
3.58
2.62
1.80
1.29
1.14
1.29
1.62
2.04
2.54
3.11
3.74
4.34
4.76
4.82
4.40
3.53
2.36
1.09
-0.10
-1.16
-2.20
-3.37
-4.72
-6.10
-7.20
-7.68
-7.30
-6.12
-4.39
-2.48
-0.71
0.84
2.18
3.43
4.63
5.69
6.43
6.70
6.41
5.63
4.55
3.42
2.45
1.80
1.52
1.59
1.97
2.61
3.48
4.49
5.50
6.29
6.67
6.50
5.72
4.40
2.68
0.68
-1.47
-3.70
-5.98
-8.29
-10.50
-12.41
-13.79
-14.43
-14.25
-13.32
-11.85
-10.15
-8.50
-7.07
-5.91
-4.96
-4.09
-3.16
-2.15
-1.14
-0.28
0.25
0.34
0.00
-0.67
-1.56
-2.58
-3.69
-4.80
-5.79
-6.42
-6.53
-6.03
-5.01
-3.73
-2.48
-1.49
-0.86
-0.60
-0.66
-1.03
-1.72
-2.73
-3.96
-5.19
-6.06
-6.17
-5.24
-3.22
-0.35
2.91
6.02
8.54
10.21
11.00
11.04
10.53
9.70
8.76
7.87
7.12
6.50
5.94
5.33
4.60
3.73
2.79
1.87
1.00
0.17
-0.63
-1.44
-2.18
-2.78
-3.18
-3.39
-3.53
-3.80
-4.37
-5.34
-6.70
-8.37
-10.26
-12.23
-14.07
-15.52
-16.22
-15.89
-14.37
-11.80
-8.56
-5.16
-2.11
0.31
1.99
3.02
3.53
3.62
3.37
2.83
2.12
1.38
0.76
0.32
0.03
-0.18
-0.37
-0.54
-0.58
-0.37
0.18
0.99
1.88
2.59
2.92
2.79
2.30
1.62
0.92
0.24
-0.52
-1.55
-3.01
-4.87
-6.88
-8.53
-9.35
-9.00
-7.45
-5.00
-2.14
0.61
2.90
4.65
5.94
6.95
7.83
8.61
9.20
9.53
9.50
9.17
8.63
8.05
7.59
7.36
7.36
7.55
7.82
8.05
8.18
8.17
8.03
7.78
7.42
6.90
6.11
5.03
3.64
2.10
0.53
-0.93
-2.23
-3.43
-4.60
-5.73
-6.72
-7.32
-7.27
-6.42
-4.81
-2.65
-0.24
2.11
4.17
5.80
6.93
7.50
7.51
6.97
6.04
4.91
3.81
2.94
2.34
1.90
1.51
1.07
0.63
0.37
0.50
1.16
2.31
3.76
5.19
6.33
7.02
7.24
7.11
6.81
6.50
6.29
6.20
6.26
6.42
6.65
6.88
7.08
7.25
7.46
7.90
8.76
10.19
12.18
14.43
16.39
17.38
16.73
14.07
9.42
3.25
-3.60
-10.23
-15.83
-20.00
-22.74
-24.36
-25.24
-25.62
-25.59
-25.12
-24.18
-22.84
-21.18
-19.34
-17.34
-15.22
-13.02
-10.91
-9.11
-7.92
-7.52
-8.00
-9.33
-11.36
-13.85
-16.47
-18.75
-20.17
-20.26
-18.74
-15.67
-11.41
-6.55
-1.79
2.27
5.30
7.25
8.33
8.88
9.21
9.45
9.64
9.72
9.67
9.51
9.28
9.03
8.71
8.28
7.74
7.23
6.94
7.06
7.63
8.56
9.66
10.70
11.44
11.71
11.38
10.35
8.67
6.52
4.15
1.88
-0.16
-1.98
-3.73
-5.49
-7.18
-8.49
-8.91
-7.99
-5.54
-1.78
2.70
7.12
10.74
13.09
14.10
14.07
13.50
12.97
12.85
13.22
13.82
14.24
14.05
13.14
11.81
10.77
10.86
12.69
16.30
21.05
25.76
29.24
30.80
30.65
29.80
29.70
31.55
35.69
41.41
47.20
51.44
53.15
52.49
50.70
49.64
51.03
55.75
63.51
72.83
81.18
85.32
81.84
68.15
43.64
10.58
-25.87
-58.92
-82.67
-94.49
-96.13
-92.81
-90.59
-93.54
-102.19
-114.03
-125.51
-134.16
-139.54
-142.62
-144.45
-145.11
-143.68
-139.16
-131.63
-122.63
-114.83
-110.58
-110.66
-113.61
-115.99
-113.24
-101.13
-76.95
-40.39
6.31
58.97
112.31
161.16
201.30
230.14
247.10
253.48
252.11
246.39
239.30
232.60
226.58
220.41
212.89
203.39
192.11
180.08
168.62
158.56
149.94
142.30
135.32
129.32
125.14
123.09
121.76
117.40
104.71
79.03
38.93
-12.32
-67.52
-118.15
-157.74
-184.02
-199.06
-207.34
-213.17
-218.80
-223.97
-226.92
-225.75
-219.55
-208.58
-193.95
-176.97
-158.56
-139.27
-119.40
-99.37
-79.90
-62.15
-47.28
-36.14
-29.04
-25.83
-26.19
-29.80
-36.35
-45.35
-55.92
-66.79
-76.52
-83.87
-88.18
-89.51
-88.69
-87.09
-86.30
-87.75
-92.19
-99.36
-107.91
-115.89
-121.60
-124.53
-125.68
-127.17
-130.84
-136.78
-142.47
-143.34
-134.25
-111.59
-74.80
-26.61
27.84
82.78
133.45
177.14
213.16
242.14
264.95
281.99
292.93
297.12
294.11
284.07
267.69
245.81
219.16
188.25
153.81
117.14
80.39
46.28
17.37
-4.78
-20.05
-29.68
-35.80
-40.54
-45.32
-50.43
-55.14
-58.15
-58.40
-55.69
-50.89
-45.57
-41.32
-38.95
-38.13
-37.70
-36.23
-32.71
-26.83
-18.98
-9.86
-0.15
9.67
19.16
27.79
34.83
39.61
41.83
41.94
41.10
40.78
42.03
44.93
48.39
50.47
49.32
43.97
34.97
24.14
13.96
6.58
3.08
3.21
5.71
8.85
10.96
10.88
8.08
2.65
-4.69
-12.66
-19.60
-23.83
-24.28
-21.00
-15.14
-8.68
-3.61
-1.19
-1.62
-4.15
-7.67
-11.21
-14.30
-16.82
-18.76
-19.97
-20.15
-19.14
-17.11
-14.72
-12.90
-12.50
-13.86
-16.76
-20.46
-24.06
-26.92
-28.78
-29.82
-30.44
-31.07
-31.98
-33.25
-34.81
-36.54
-38.26
-39.80
-40.95
-41.54
-41.43
-40.51
-38.81
-36.41
-33.52
-30.41
-27.31
-24.40
-21.73
-19.31
-17.18
-15.39
-14.10
-13.37
-13.12
-12.97
-12.32
-10.55
-7.23
-2.36
3.61
9.93
15.76
20.44
23.57
25.08
25.11
23.97
22.04
19.74
17.47
15.58
14.37
14.05
14.67
16.09
17.93
19.66
20.74
20.84
20.03
18.72
17.45
16.66
16.38
16.27
15.81
14.54
12.29
9.21
5.64
2.02
-1.31
-4.12
-6.29
-7.75
-8.52
-8.65
-8.31
-7.67
-6.98
-6.40
-6.05
-5.96
-6.12
-6.44
-6.87
-7.36
-7.90
-8.51
-9.14
-9.72
-10.09
-10.08
-9.54
-8.42
-6.79
-4.78
-2.58
-0.34
1.79
3.71
5.30
6.47
7.13
7.25
6.88
6.11
5.14
4.14
3.30
2.71
2.40
2.28
2.24
2.13
1.87
1.45
0.98
0.60
0.45
0.56
0.80
0.95
0.74
-0.00
-1.27
-2.87
-4.50
-5.86
-6.69
-6.85
-6.31
-5.14
-3.47
-1.54
0.43
2.20
3.63
4.64
5.27
5.58
5.68
5.61
5.44
5.18
4.84
4.41
3.88
3.25
2.56
1.87
1.27
0.83
0.54
0.39
0.34
0.34
0.36
0.34
0.24
-0.07
-0.63
-1.48
-2.53
-3.65
-4.70
-5.54
-6.11
-6.34
-6.16
-5.52
-4.39
-2.88
-1.19
0.43
1.77
2.74
3.39
3.83
4.14
4.30
4.23
3.83
3.10
2.15
1.19
0.42
-0.02
-0.12
0.04
0.35
0.68
0.93
1.04
0.98
0.78
0.50
0.20
-0.09
-0.39
-0.78
-1.38
-2.23
-3.30
-4.40
-5.29
-5.68
-5.43
-4.51
-3.12
-1.54
-0.06
1.11
1.90
2.36
2.62
2.78
2.89
2.86
2.61
2.08
1.31
0.45
-0.33
-0.83
-0.99
-0.86
-0.59
-0.35
-0.24
-0.28
-0.40
-0.52
-0.60
-0.63
-0.66
-0.75
-0.92
-1.19
-1.55
-2.00
-2.54
-3.17
-3.82
-4.31
-4.44
-4.02
-2.97
-1.42
0.36
2.05
3.35
4.12
4.40
4.31
4.02
3.65
3.22
2.75
2.22
1.62
1.00
0.42
-0.06
-0.37
-0.52
-0.57
-0.62
-0.73
-0.89
-0.98
-0.90
-0.62
-0.24
-0.02
-0.15
-0.69
-1.55
-2.49
-3.28
-3.84
-4.20
-4.42
-4.52
-4.43
-4.04
-3.27
-2.16
-0.85
0.49
1.67
2.58
3.19
3.49
3.52
3.31
2.91
2.35
1.65
0.85
0.02
-0.73
-1.24
-1.41
-1.23
-0.84
-0.44
-0.25
-0.35
-0.70
-1.17
-1.63
-2.02
-2.34
-2.65
-2.96
-3.23
-3.38
-3.40
-3.37
-3.44
-3.69
-4.09
-4.47
-4.55
-4.14
-3.18
-1.80
-0.22
1.25
2.42
3.20
3.58
3.64
3.47
3.14
2.69
2.12
1.46
0.77
0.16
-0.24
-0.36
-0.22
0.07
0.33
0.44
0.38
0.22
0.08
0.01
-0.02
-0.10
-0.36
-0.81
-1.45
-2.22
-3.08
-3.99
-4.91
-5.75
-6.36
-6.53
-6.14
-5.18
-3.81
-2.26
-0.79
0.41
1.27
1.81
2.09
2.15
2.02
1.71
1.25
0.70
0.12
-0.38
-0.71
-0.81
-0.62
-0.20
0.35
0.85
1.11
1.02
0.58
-0.11
-0.86
-1.52
-2.04
-2.41
-2.73
-3.07
-3.52
-4.11
-4.85
-5.66
-6.46
-7.09
-7.40
-7.27
-6.70
-5.74
-4.54
-3.27
-2.08
-1.04
-0.16
0.59
1.24
1.78
2.17
2.33
2.21
1.79
1.19
0.50
-0.11
-0.54
-0.73
-0.66
-0.34
0.18
0.86
1.59
2.23
2.62
2.64
2.24
1.49
0.51
-0.51
-1.49
-2.42
-3.36
-4.43
-5.62
-6.81
-7.76
-8.19
-7.89
-6.85
-5.24
-3.35
-1.50
0.11
1.43
2.51
3.43
4.25
4.91
5.30
5.33
4.95
4.26
3.40
2.53
1.79
1.22
0.83
0.60
0.51
0.53
0.61
0.68
0.66
0.50
0.17
-0.30
-0.92
-1.68
-2.64
-3.80
-5.11
-6.44
-7.60
-8.42
-8.77
-8.67
-8.11
-7.16
-5.85
-4.20
-2.32
-0.34
1.55
3.22
4.60
5.68
6.46
6.90
6.93
6.47
5.56
4.36
3.12
2.13
1.61
1.61
2.05
2.69
3.23
3.40
3.00
2.01
0.50
-1.36
-3.36
-5.34
-7.12
-8.59
-9.66
-10.34
-10.72
-10.99
-11.39
-12.06
-12.92
-13.68
-13.88
-13.13
-11.25
-8.41
-5.04
-1.67
1.27
3.56
5.19
6.29
7.04
7.55
7.87
7.98
7.85
7.49
7.00
6.53
6.22
6.25
6.62
7.23
7.84
8.22
8.21
7.82
7.16
6.36
5.47
4.47
3.33
2.04
0.68
-0.72
-2.20
-3.95
-6.20
-8.99
-12.10
-14.98
-16.93
-17.41
-16.27
-13.73
-10.39
-6.89
-3.77
-1.35
0.28
1.20
1.54
1.50
1.33
1.20
1.27
1.58
2.08
2.67
3.25
3.74
4.10
4.29
4.31
4.19
4.02
3.91
3.95
4.12
4.32
4.35
4.02
3.28
2.21
0.95
-0.36
-1.70
-3.17
-4.86
-6.74
-8.55
-9.93
-10.42
-9.75
-7.87
-4.98
-1.42
2.44
6.29
9.90
13.12
15.82
17.91
19.36
20.20
20.48
20.31
19.79
19.02
18.07
16.99
15.77
14.46
13.08
11.74
10.57
9.74
9.36
9.43
9.85
10.37
10.71
10.57
9.78
8.29
6.25
3.96
1.78
0.02
-1.27
-2.28
-3.42
-5.04
-7.21
-9.59
-11.55
-12.50
-12.13
-10.67
-8.67
-6.80
-5.49
-4.85
-4.74
-4.99
-5.61
-6.71
-8.43
-10.71
-13.25
-15.62
-17.45
-18.55
-19.05
-19.27
-19.58
-20.25
-21.40
-22.96
-24.71
-26.37
-27.62
-28.20
-27.87
-26.53
-24.19
-21.03
-17.41
-13.80
-10.71
-8.51
-7.37
-7.14
-7.43
-7.72
-7.51
-6.47
-4.53
-1.80
1.49
5.08
8.86
12.77
16.87
21.21
25.86
30.85
36.19
41.80
47.34
52.10
55.04
55.25
52.41
47.19
41.14
36.17
33.69
34.10
36.70
40.22
43.54
46.15
48.12
49.69
50.92
51.53
51.13
49.56
47.03
44.08
41.29
38.98
37.15
35.52
33.68
31.25
28.00
23.82
18.81
13.20
7.32
1.55
-3.74
-8.26
-11.77
-14.16
-15.36
-15.46
-14.72
-13.57
-12.52
-12.06
-12.50
-13.87
-15.88
-18.04
-19.86
-20.97
-21.25
-20.82
-19.93
-18.89
-17.90
-17.08
-16.45
-15.99
-15.64
-15.36
-15.11
-14.88
-14.62
-14.36
-14.13
-14.01
-14.06
-14.30
-14.69
-15.09
-15.38
-15.52
-15.58
-15.74
-16.19
-17.01
-18.06
-18.96
-19.23
-18.41
-16.31
-13.01
-8.86
-4.36
0.07
4.10
7.53
10.21
11.95
12.53
11.87
10.09
7.60
4.99
2.83
1.45
0.87
0.84
0.97
1.01
0.87
0.64
0.49
0.51
0.67
0.85
0.89
0.70
0.26
-0.39
-1.19
-2.10
-3.10
-4.28
-5.68
-7.38
-9.35
-11.47
-13.51
-15.16
-16.10
-16.11
-15.15
-13.35
-10.95
-8.18
-5.23
-2.20
0.77
3.49
5.71
7.21
7.89
7.85
7.34
6.65
6.00
5.40
4.78
4.05
3.19
2.35
1.72
1.48
1.63
2.03
2.42
2.55
2.32
1.77
1.04
0.32
-0.34
-0.98
-1.72
-2.68
-3.87
-5.25
-6.72
-8.23
-9.75
-11.29
-12.73
-13.86
-14.42
-14.14
-12.92
-10.82
-8.05
-4.94
-1.78
1.17
3.74
5.80
7.33
8.30
8.81
8.93
8.72
8.24
7.50
6.56
5.56
4.67
4.04
3.74
3.67
3.65
3.53
3.21
2.75
2.26
1.82
1.42
0.96
0.30
-0.63
-1.77
-3.02
-4.25
-5.36
-6.37
-7.32
-8.24
-9.13
-9.94
-10.57
-10.92
-10.86
-10.26
-9.04
-7.19
-4.80
-2.03
0.88
3.72
6.28
8.40
9.93
10.76
10.84
10.25
9.21
8.01
6.87
5.93
5.21
4.61
4.10
3.70
3.52
3.59
3.91
4.29
4.54
4.50
4.11
3.45
2.65
1.82
0.96
0.06
-0.96
-2.15
-3.52
-5.08
-6.80
-8.60
-10.33
-11.81
-12.82
-13.17
-12.72
-11.42
-9.35
-6.68
-3.68
-0.61
2.25
4.72
6.70
8.16
9.06
9.35
8.99
8.02
6.59
4.98
3.50
2.43
1.84
1.67
1.76
1.97
2.16
2.30
2.32
2.20
1.93
1.53
1.09
0.70
0.43
0.23
0.01
-0.36
-0.98
-1.91
-3.19
-4.73
-6.39
-7.94
-9.08
-9.53
-9.12
-7.85
-5.82
-3.23
-0.31
2.70
5.53
7.90
9.57
10.40
10.41
9.77
8.69
7.36
5.94
4.48
3.08
1.86
0.93
0.33
0.05
-0.00
0.02
0.00
-0.14
-0.43
-0.87
-1.45
-2.13
-2.91
-3.80
-4.83
-6.06
-7.56
-9.32
-11.23
-13.11
-14.70
-15.76
-16.11
-15.68
-14.47
-12.52
-9.97
-7.01
-3.93
-1.01
1.48
3.33
4.50
5.03
5.03
4.64
4.02
3.25
2.43
1.63
0.92
0.38
0.06
-0.03
0.04
0.16
0.12
-0.22
-0.91
-1.89
-3.00
-4.07
-5.01
-5.79
-6.50
-7.22
-8.04
-9.00
-10.06
-11.15
-12.19
-13.03
-13.52
-13.46
-12.65
-10.97
-8.42
-5.22
-1.72
1.62
4.43
6.52
7.87
8.61
8.87
8.72
8.17
7.24
6.01
4.68
3.45
2.51
1.92
1.61
1.49
1.47
1.50
1.59
1.67
1.65
1.37
0.72
-0.31
-1.58
-2.85
-3.95
-4.84
-5.64
-6.55
-7.70
-9.04
-10.27
-10.98
-10.80
-9.59
-7.45
-4.66
-1.57
1.52
4.36
6.79
8.65
9.84
10.28
10.07
9.35
8.37
7.33
6.37
5.55
4.88
4.38
4.10
4.09
4.33
4.73
5.09
5.23
5.03
4.47
3.62
2.62
1.58
0.56
-0.47
-1.59
-2.86
-4.31
-5.88
-7.45
-8.81
-9.72
-9.92
-9.21
-7.54
-5.01
-1.83
1.65
5.10
8.25
10.86
12.83
14.07
14.51
14.14
13.03
11.36
9.41
7.47
5.79
4.50
3.64
3.16
3.00
3.07
3.27
3.51
3.67
3.61
3.27
2.64
1.79
0.84
-0.15
-1.17
-2.32
-3.67
-5.26
-7.00
-8.67
-10.02
-10.76
-10.68
-9.70
-7.82
-5.20
-2.10
1.15
4.25
6.93
9.09
10.72
11.81
12.33
12.21
11.40
9.91
7.93
5.75
3.70
2.06
0.96
0.42
0.39
0.78
1.49
2.37
3.19
3.71
3.74
3.18
2.08
0.60
-1.10
-2.89
-4.70
-6.53
-8.36
-10.13
-11.72
-12.94
-13.58
-13.45
-12.43
-10.50
-7.79
-4.54
-1.09
2.21
5.14
7.54
9.37
10.62
11.27
11.25
10.55
9.27
7.60
5.85
4.32
3.29
2.91
3.18
4.01
5.16
6.33
7.15
7.33
6.65
5.12
2.95
0.40
-2.24
-4.82
-7.30
-9.74
-12.18
-14.57
-16.79
-18.65
-19.96
-20.59
-20.38
-19.25
-17.14
-14.12
-10.42
-6.46
-2.74
0.33
2.55
3.97
4.79
5.18
5.20
4.76
3.78
2.33
0.63
-0.90
-1.84
-1.91
-1.09
0.44
2.35
4.27
5.91
7.08
7.65
7.59
6.88
5.57
3.76
1.61
-0.65
-2.85
-4.87
-6.79
-8.77
-11.01
-13.53
-16.17
-18.54
-20.18
-20.75
-20.18
-18.63
-16.43
-13.97
-11.51
-9.22
-7.16
-5.40
-3.99
-3.00
-2.46
-2.26
-2.21
-2.01
-1.36
-0.07
1.84
4.20
6.76
9.31
11.80
14.31
16.98
19.86
22.84
25.62
27.83
29.20
29.60
29.20
28.27
27.13
25.91
24.53
22.76
20.38
17.37
13.97
10.67
8.01
6.38
5.96
6.65
8.22
10.31
12.54
14.51
15.93
16.67
16.80
16.52
16.04
15.51
14.97
14.40
13.87
13.57
13.77
14.65
16.19
18.13
20.02
21.43
22.08
21.97
21.24
20.30
19.79
20.56
23.51
29.19
37.41
47.00
56.02
62.28
64.10
60.87
53.18
42.61
31.13
20.45
11.62
4.92
0.08
-3.35
-5.71
-7.08
-7.40
-6.66
-5.04
-2.98
-0.94
0.84
2.47
4.31
6.61
9.32
12.00
14.10
15.29
15.54
15.09
14.00
11.96
8.21
1.89
-7.58
-20.05
-34.61
-49.80
-64.06
-76.09
-85.14
-90.95
-93.64
-93.59
-91.31
-87.42
-82.56
-77.32
-72.09
-67.01
-62.01
-56.83
-51.28
-45.31
-39.03
-32.77
-26.86
-21.61
-17.23
-13.84
-11.47
-10.12
-9.70
-9.99
-10.69
-11.48
-12.09
-12.42
-12.52
-12.55
-12.56
-12.51
-12.14
-11.12
-9.09
-5.82
-1.29
4.27
10.33
16.22
21.21
24.83
26.99
28.05
28.71
29.74
31.73
34.93
39.14
43.87
48.50
52.53
55.72
58.14
60.17
62.23
64.62
67.29
69.81
71.48
71.69
70.10
66.78
62.23
57.02
51.63
46.30
40.99
35.53
29.76
23.69
17.49
11.49
6.01
1.32
-2.45
-5.34
-7.51
-9.15
-10.40
-11.30
-11.83
-12.00
-12.02
-12.27
-13.24
-15.34
-18.67
-22.93
-27.43
-31.36
-34.14
-35.59
-35.96
-35.69
-34.98
-33.69
-31.40
-27.83
-23.23
-18.50
-14.90
-13.44
-14.37
-17.08
-20.31
-22.76
-23.42
-21.73
-17.54
-11.09
-3.00
5.62
13.24
18.24
19.38
16.28
9.60
0.87
-7.98
-15.09
-19.18
-19.68
-16.82
-11.38
-4.49
2.69
9.10
13.95
16.73
17.18
15.37
11.64
6.63
1.21
-3.65
-7.08
-8.45
-7.52
-4.58
-0.36
4.12
7.89
10.24
11.01
10.46
9.12
7.46
5.67
3.67
1.23
-1.77
-5.22
-8.73
-11.82
-14.10
-15.42
-15.97
-16.08
-16.09
-16.15
-16.18
-15.99
-15.41
-14.52
-13.64
-13.20
-13.56
-14.76
-16.53
-18.37
-19.72
-20.18
-19.63
-18.19
-16.16
-13.84
-11.49
-9.30
-7.43
-6.06
-5.32
-5.27
-5.78
-6.57
-7.27
-7.59
-7.42
-6.87
-6.19
-5.66
-5.43
-5.53
-5.81
-6.18
-6.59
-7.05
-7.66
-8.41
-9.27
-10.12
-10.89
-11.55
-12.21
-13.02
-14.06
-15.32
-16.64
-17.74
-18.33
-18.19
-17.25
-15.59
-13.40
-10.95
-8.47
-6.16
-4.20
-2.67
-1.62
-1.08
-1.05
-1.52
-2.47
-3.78
-5.26
-6.62
-7.55
-7.77
-7.16
-5.82
-4.08
-2.35
-1.05
-0.38
-0.37
-0.83
-1.52
-2.23
-2.91
-3.58
-4.33
-5.18
-6.07
-6.86
-7.47
-7.86
-8.09
-8.13
-7.86
-7.00
-5.33
-2.79
0.37
3.66
6.52
8.55
9.63
9.89
9.61
9.00
8.22
7.31
6.36
5.50
4.87
4.56
4.56
4.74
4.89
4.88
4.70
4.44
4.28
4.27
4.37
4.43
4.28
3.76
2.85
1.62
0.15
-1.52
-3.37
-5.41
-7.51
-9.37
-10.55
-10.63
-9.41
-7.00
-3.86
-0.67
1.90
3.42
3.74
3.01
1.51
-0.48
-2.74
-5.08
-7.35
-9.34
-10.81
-11.57
-11.60
-11.07
-10.36
-9.95
-10.23
-11.38
-13.33
-15.83
-18.52
-21.05
-23.15
-24.69
-25.63
-26.12
-26.38
-26.74
-27.45
-28.63
-30.10
-31.33
-31.67
-30.44
-27.29
-22.33
-16.09
-9.33
-2.85
2.82
7.41
10.91
13.45
15.19
16.23
16.71
16.81
16.83
17.02
17.58
18.50
19.62
20.64
21.26
21.36
20.92
20.07
18.97
17.71
16.27
14.58
12.49
9.93
6.90
3.52
-0.05
-3.59
-6.91
-9.82
-12.14
-13.69
-14.29
-13.76
-12.10
-9.52
-6.45
-3.38
-0.75
1.26
2.68
3.66
4.24
4.36
3.82
2.51
0.56
-1.62
-3.51
-4.65
-4.92
-4.54
-3.93
-3.54
-3.58
-4.04
-4.73
-5.42
-5.95
-6.33
-6.65
-7.08
-7.75
-8.78
-10.26
-12.15
-14.30
-16.29
-17.62
-17.78
-16.43
-13.61
-9.69
-5.28
-0.99
2.72
5.66
7.80
9.19
9.87
9.80
8.98
7.56
5.80
4.06
2.67
1.78
1.40
1.37
1.48
1.58
1.59
1.51
1.35
1.16
0.99
0.83
0.64
0.32
-0.30
-1.40
-3.10
-5.36
-7.96
-10.50
-12.50
-13.47
-13.06
-11.16
-7.94
-3.83
0.60
4.77
8.26
10.83
12.45
13.18
13.09
12.28
10.86
9.04
7.15
5.53
4.50
4.18
4.46
5.02
5.49
5.52
5.03
4.07
2.90
1.77
0.86
0.20
-0.33
-0.93
-1.79
-3.06
-4.78
-6.91
-9.29
-11.64
-13.57
-14.63
-14.47
-12.94
-10.15
-6.49
-2.49
1.30
4.47
6.83
8.38
9.23
9.54
9.43
8.95
8.18
7.21
6.25
5.55
5.37
5.77
6.61
7.52
8.13
8.15
7.60
6.67
5.64
4.66
3.76
2.84
1.78
0.56
-0.77
-2.16
-3.61
-5.22
-7.11
-9.26
-11.46
-13.30
-14.29
-13.98
-12.16
-8.94
-4.68
0.03
4.57
8.43
11.23
12.87
13.44
13.19
12.39
11.35
10.25
9.21
8.28
7.51
6.95
6.66
6.69
7.00
7.49
8.01
8.38
8.47
8.16
7.39
6.18
4.58
2.70
0.70
-1.31
-3.19
-4.85
-6.27
-7.48
-8.65
-9.96
-11.53
-13.27
-14.81
-15.59
-15.07
-12.95
-9.31
-4.69
0.20
4.63
8.14
10.54
11.91
12.40
12.15
11.29
9.97
8.41
6.92
5.78
5.21
5.24
5.71
6.36
6.94
7.31
7.41
7.25
6.85
6.19
5.27
4.13
2.88
1.59
0.33
-0.89
-2.12
-3.40
-4.80
-6.40
-8.24
-10.31
-12.47
-14.35
-15.44
-15.24
-13.47
-10.22
-6.00
-1.57
2.42
5.52
7.69
9.13
10.13
10.87
11.37
11.51
11.18
10.40
9.33
8.18
7.21
6.57
6.31
6.34
6.60
6.94
7.28
7.53
7.56
7.25
6.48
5.23
3.58
1.71
-0.24
-2.12
-3.86
-5.43
-6.87
-8.24
-9.68
-11.29
-13.04
-14.72
-15.92
-16.11
-14.89
-12.15
-8.14
-3.47
1.13
5.04
7.92
9.74
10.71
11.10
11.12
10.87
10.35
9.54
8.50
7.40
6.45
5.82
5.56
5.56
5.66
5.70
5.67
5.64
5.73
5.96
6.21
6.20
5.71
4.55
2.76
0.53
-1.84
-4.05
-5.95
-7.56
-9.06
-10.69
-12.62
-14.87
-17.18
-19.09
-20.03
-19.55
-17.45
-13.88
-9.35
-4.50
0.03
3.73
6.41
8.08
8.95
9.25
9.15
8.74
8.04
7.17
6.29
5.62
5.34
5.49
5.90
6.33
6.61
6.70
6.75
6.93
7.28
7.67
7.80
7.37
6.24
4.49
2.39
0.25
-1.66
-3.23
-4.53
-5.72
-7.02
-8.62
-10.62
-12.92
-15.20
-16.97
-17.66
-16.88
-14.55
-10.96
-6.62
-2.11
2.14
5.88
8.98
11.38
12.99
13.80
13.85
13.35
12.54
11.70
10.96
10.37
9.90
9.48
9.02
8.47
7.87
7.28
6.82
6.57
6.47
6.39
6.10
5.36
4.08
2.35
0.34
-1.69
-3.52
-5.05
-6.28
-7.30
-8.27
-9.43
-10.95
-12.93
-15.29
-17.63
-19.40
-20.02
-19.09
-16.54
-12.70
-8.11
-3.43
0.86
4.45
7.30
9.43
10.88
11.61
11.60
10.86
9.53
7.90
6.33
5.18
4.67
4.81
5.42
6.18
6.80
7.08
7.04
6.81
6.57
6.41
6.25
5.89
5.12
3.84
2.13
0.22
-1.64
-3.29
-4.75
-6.12
-7.57
-9.20
-11.04
-13.06
-15.12
-17.00
-18.36
-18.81
-18.02
-15.81
-12.33
-7.97
-3.33
1.02
4.68
7.50
9.52
10.82
11.40
11.22
10.26
8.65
6.73
4.99
3.86
3.52
3.86
4.56
5.28
5.86
6.34
6.86
7.48
8.08
8.42
8.24
7.43
6.06
4.34
2.48
0.66
-1.06
-2.62
-4.02
-5.32
-6.66
-8.23
-10.18
-12.45
-14.68
-16.28
-16.60
-15.27
-12.37
-8.36
-3.94
0.25
3.79
6.56
8.58
9.93
10.66
10.74
10.21
9.20
7.92
6.70
5.79
5.42
5.62
6.28
7.11
7.81
8.12
7.96
7.45
6.78
6.13
5.54
4.92
4.08
2.92
1.44
-0.25
-1.98
-3.61
-5.10
-6.49
-7.90
-9.47
-11.34
-13.60
-16.21
-18.91
-21.21
-22.47
-22.10
-19.86
-15.90
-10.79
-5.32
-0.25
3.91
6.98
9.02
10.24
10.81
10.80
10.25
9.18
7.75
6.25
5.04
4.38
4.34
4.70
5.04
5.01
4.45
3.54
2.70
2.37
2.75
3.71
4.81
5.52
5.42
4.38
2.59
0.43
-1.73
-3.66
-5.35
-6.95
-8.65
-10.59
-12.87
-15.43
-18.08
-20.46
-22.10
-22.47
-21.19
-18.17
-13.66
-8.22
-2.52
2.83
7.38
10.92
13.40
14.93
15.64
15.74
15.39
14.71
13.81
12.73
11.57
10.41
9.39
8.58
8.02
7.71
7.62
7.73
8.05
8.53
9.04
9.39
9.36
8.79
7.65
6.07
4.27
2.51
0.99
-0.24
-1.25
-2.27
-3.57
-5.40
-7.77
-10.42
-12.82
-14.33
-14.41
-12.81
-9.67
-5.46
-0.87
3.38
6.74
8.91
9.94
10.09
9.72
9.13
8.43
7.63
6.70
5.74
4.93
4.53
4.63
5.13
5.77
6.30
6.61
6.73
6.78
6.81
6.75
6.42
5.63
4.32
2.58
0.60
-1.46
-3.53
-5.64
-7.82
-10.04
-12.21
-14.23
-16.10
-17.88
-19.66
-21.29
-22.38
-22.34
-20.67
-17.20
-12.31
-6.72
-1.29
3.34
6.84
9.26
10.75
11.46
11.49
10.89
9.76
8.32
6.83
5.59
4.78
4.44
4.47
4.70
4.96
5.15
5.31
5.48
5.72
5.95
5.96
5.52
4.48
2.90
1.05
-0.71
-2.10
-3.02
-3.62
-4.19
-5.08
-6.55
-8.64
-11.14
-13.59
-15.38
-15.94
-14.95
-12.45
-8.84
-4.70
-0.65
2.88
5.70
7.77
9.16
9.97
10.21
9.95
9.22
8.14
6.83
5.51
4.39
3.62
3.31
3.47
4.12
5.22
6.71
8.43
10.04
11.05
11.02
9.75
7.42
4.56
1.80
-0.38
-1.88
-2.93
-3.93
-5.25
-7.08
-9.39
-12.01
-14.66
-16.97
-18.48
-18.78
-17.60
-14.92
-11.06
-6.54
-2.00
2.06
5.27
7.51
8.83
9.36
9.29
8.80
8.06
7.16
6.17
5.18
4.32
3.75
3.54
3.64
3.87
4.01
3.92
3.61
3.16
2.68
2.19
1.57
0.68
-0.55
-2.04
-3.62
-5.07
-6.29
-7.33
-8.39
-9.72
-11.55
-13.97
-16.79
-19.58
-21.68
-22.45
-21.47
-18.71
-14.60
-9.86
-5.25
-1.30
1.75
4.01
5.69
7.02
8.13
8.98
9.50
9.64
9.37
8.81
8.09
7.38
6.79
6.40
6.23
6.25
6.39
6.54
6.57
6.31
5.67
4.63
3.30
1.87
0.55
-0.50
-1.23
-1.70
-2.08
-2.63
-3.58
-5.09
-7.14
-9.48
-11.62
-13.03
-13.25
-12.03
-9.42
-5.71
-1.36
3.16
7.39
10.95
13.52
14.98
15.34
14.88
14.00
13.10
12.43
12.03
11.68
11.14
10.22
8.92
7.44
6.05
4.93
4.17
3.71
3.39
3.06
2.58
1.82
0.73
-0.67
-2.34
-4.13
-5.91
-7.57
-9.12
-10.66
-12.34
-14.31
-16.54
-18.81
-20.72
-21.72
-21.34
-19.32
-15.73
-10.99
-5.75
-0.72
3.53
6.68
8.74
9.90
10.43
10.53
10.29
9.73
8.89
7.86
6.89
6.21
6.00
6.28
6.88
7.58
8.18
8.56
8.70
8.63
8.33
7.73
6.76
5.34
3.54
1.50
-0.53
-2.36
-3.84
-5.02
-6.08
-7.31
-8.91
-10.92
-13.07
-14.84
-15.62
-14.90
-12.53
-8.77
-4.20
0.43
4.51
7.67
9.88
11.25
11.98
12.19
11.90
11.17
10.10
8.92
7.88
7.16
6.82
6.75
6.78
6.76
6.71
6.72
6.92
7.29
7.66
7.68
7.06
5.63
3.53
1.06
-1.38
-3.49
-5.21
-6.67
-8.13
-9.82
-11.88
-14.30
-16.86
-19.21
-20.88
-21.36
-20.29
-17.52
-13.25
-8.01
-2.51
2.50
6.42
8.96
10.17
10.31
9.76
8.89
7.94
7.09
6.46
6.16
6.23
6.58
7.04
7.38
7.42
7.15
6.72
6.31
6.02
5.76
5.31
4.49
3.28
1.83
0.33
-1.04
-2.28
-3.42
-4.58
-5.82
-7.22
-8.85
-10.79
-12.98
-15.16
-16.83
-17.37
-16.30
-13.51
-9.31
-4.38
0.51
4.71
7.83
9.77
10.67
10.82
10.52
10.02
9.46
8.91
8.39
7.90
7.52
7.28
7.20
7.22
7.26
7.26
7.29
7.42
7.73
8.19
8.61
8.74
8.36
7.39
5.89
4.02
2.01
0.08
-1.62
-3.06
-4.38
-5.82
-7.65
-10.02
-12.81
-15.60
-17.76
-18.67
-17.93
-15.49
-11.71
-7.17
-2.50
1.78
5.33
8.01
9.79
10.68
10.76
10.15
9.04
7.69
6.37
5.26
4.49
4.08
3.98
4.15
4.50
4.99
5.59
6.23
6.80
7.14
7.10
6.55
5.49
4.02
2.33
0.66
-0.79
-1.92
-2.75
-3.44
-4.28
-5.61
-7.66
-10.43
-13.57
-16.36
-18.00
-17.81
-15.59
-11.70
-6.87
-1.97
2.32
5.61
7.86
9.18
9.68
9.44
8.54
7.13
5.48
3.94
2.86
2.45
2.70
3.38
4.16
4.76
5.05
5.13
5.29
5.73
6.56
7.61
8.60
9.24
9.37
9.03
8.39
7.65
6.92
6.19
5.27
3.87
1.70
-1.47
-5.62
-10.33
-14.85
-18.26
-19.78
-19.04
-16.29
-12.22
-7.72
-3.59
-0.26
2.17
3.82
4.84
5.30
5.16
4.38
3.05
1.42
-0.14
-1.32
-1.97
-2.17
-2.19
-2.31
-2.67
-3.23
-3.76
-4.03
-3.97
-3.69
-3.48
-3.59
-4.15
-4.99
-5.81
-6.25
-6.11
-5.40
-4.34
-3.34
-2.83
-3.09
-4.16
-5.76
-7.34
-8.29
-8.13
-6.70
-4.17
-0.93
2.63
6.14
9.39
12.16
14.22
15.34
15.43
14.63
13.32
11.97
10.96
10.37
10.05
9.72
9.22
8.54
7.85
7.35
7.13
7.12
7.15
7.07
6.76
6.24
5.54
4.69
3.67
2.42
0.91
-0.85
-2.75
-4.71
-6.62
-8.49
-10.39
-12.45
-14.70
-16.99
-18.91
-19.90
-19.46
-17.31
-13.59
-8.79
-3.63
1.16
5.07
7.91
9.73
10.74
11.17
11.18
10.88
10.36
9.69
9.01
8.41
8.00
7.77
7.67
7.63
7.64
7.70
7.86
8.10
8.33
8.35
7.93
6.89
5.19
2.97
0.51
-1.85
-3.87
-5.44
-6.63
-7.61
-8.61
-9.83
-11.44
-13.48
-15.85
-18.25
-20.22
-21.20
-20.73
-18.64
-15.14
-10.79
-6.33
-2.39
0.63
2.70
3.98
4.75
5.19
5.34
5.18
4.70
4.03
3.48
3.36
3.86
4.92
6.27
7.51
8.36
8.72
8.71
8.50
8.20
7.77
7.07
6.00
4.61
3.13
1.80
0.82
0.21
-0.20
-0.71
-1.68
-3.36
-5.76
-8.67
-11.62
-14.02
-15.28
-15.03
-13.20
-10.03
-6.01
-1.77
2.14
5.27
7.44
8.67
9.12
9.00
8.53
7.82
6.93
5.93
4.93
4.06
3.47
3.21
3.25
3.48
3.75
3.95
4.00
3.87
3.58
3.10
2.42
1.51
0.42
-0.82
-2.08
-3.26
-4.30
-5.21
-6.11
-7.21
-8.75
-10.91
-13.70
-16.82
-19.65
-21.41
-21.46
-19.50
-15.79
-11.00
-5.98
-1.45
2.24
5.05
7.14
8.69
9.74
10.24
10.16
9.53
8.53
7.37
6.28
5.45
4.97
4.83
4.92
5.10
5.27
5.40
5.48
5.51
5.39
4.99
4.17
2.86
1.13
-0.79
-2.65
-4.22
-5.45
-6.52
-7.73
-9.45
-11.87
-14.91
-18.14
-20.88
-22.44
-22.32
-20.43
-17.07
-12.82
-8.36
-4.22
-0.68
2.17
4.41
6.10
7.30
7.98
8.18
7.98
7.62
7.37
7.42
7.82
8.42
8.92
9.08
8.84
8.39
8.01
7.89
8.01
8.13
7.92
7.17
5.88
4.20
2.37
0.58
-1.13
-2.79
-4.50
-6.36
-8.49
-10.98
-13.82
-16.79
-19.40
-20.99
-20.96
-18.99
-15.22
-10.22
-4.76
0.38
4.63
7.75
9.74
10.76
11.02
10.76
10.15
9.36
8.53
7.81
7.32
7.15
7.27
7.55
7.81
7.91
7.77
7.45
7.02
6.55
6.01
5.31
4.37
3.17
1.74
0.18
-1.39
-2.93
-4.40
-5.86
-7.39
-9.11
-11.14
-13.49
-15.98
-18.21
-19.60
-19.59
-17.86
-14.46
-9.89
-4.88
-0.20
3.66
6.47
8.30
9.32
9.72
9.62
9.10
8.27
7.30
6.40
5.77
5.52
5.68
6.17
6.91
7.84
8.85
9.80
10.52
10.80
10.46
9.42
7.74
5.59
3.25
0.99
-1.03
-2.75
-4.23
-5.67
-7.29
-9.30
-11.73
-14.36
-16.71
-18.16
-18.15
-16.46
-13.25
-9.08
-4.65
-0.62
2.67
5.10
6.77
7.84
8.40
8.57
8.46
8.19
7.87
7.56
7.25
6.92
6.57
6.28
6.17
6.35
6.83
7.48
8.05
8.23
7.82
6.74
5.11
3.16
1.12
-0.84
-2.68
-4.45
-6.19
-7.95
-9.81
-11.90
-14.29
-16.97
-19.62
-21.70
-22.53
-21.60
-18.80
-14.50
-9.43
-4.38
0.03
3.50
6.05
7.80
8.91
9.44
9.43
8.97
8.22
7.38
6.67
6.28
6.26
6.58
7.10
7.72
8.35
8.92
9.39
9.69
9.74
9.43
8.68
7.44
5.77
3.81
1.79
-0.11
-1.77
-3.22
-4.68
-6.43
-8.72
-11.57
-14.75
-17.72
-19.80
-20.42
-19.30
-16.50
-12.39
-7.56
-2.58
2.09
6.10
9.22
11.34
12.43
12.59
12.08
11.21
10.29
9.53
8.98
8.57
8.21
7.84
7.51
7.30
7.33
7.66
8.25
8.97
9.59
9.89
9.67
8.82
7.36
5.43
3.25
0.99
-1.18
-3.17
-4.99
-6.76
-8.67
-10.90
-13.40
-15.86
-17.66
-18.14
-16.85
-13.77
-9.37
-4.41
0.32
4.27
7.19
9.09
10.12
10.49
10.36
9.95
9.46
9.07
8.89
8.97
9.25
9.65
10.06
10.32
10.32
10.02
9.51
8.98
8.68
8.72
9.00
9.17
8.81
7.61
5.55
2.95
0.34
-1.75
-3.03
-3.61
-3.99
-4.83
-6.67
-9.69
-13.47
-17.20
-19.87
-20.73
-19.54
-16.66
-12.77
-8.60
-4.62
-1.02
2.18
4.94
7.05
8.29
8.53
7.91
6.85
5.90
5.46
5.66
6.33
7.13
7.75
8.03
7.97
7.73
7.45
7.20
6.92
6.51
5.86
4.92
3.76
2.43
1.01
-0.46
-1.98
-3.60
-5.33
-7.24
-9.39
-11.83
-14.51
-17.17
-19.36
-20.49
-20.05
-17.83
-13.99
-9.13
-4.00
0.68
4.47
7.26
9.14
10.29
10.79
10.70
10.06
9.00
7.78
6.68
5.88
5.45
5.28
5.27
5.37
5.65
6.22
7.06
7.96
8.56
8.48
7.56
5.86
3.72
1.55
-0.31
-1.72
-2.78
-3.72
-4.85
-6.46
-8.72
-11.59
-14.77
-17.75
-19.88
-20.59
-19.51
-16.69
-12.54
-7.70
-2.89
1.33
4.60
6.83
8.13
8.74
8.92
8.88
8.74
8.52
8.25
7.88
7.43
6.96
6.49
6.08
5.79
5.65
5.69
5.89
6.14
6.28
6.13
5.55
4.52
3.12
1.47
-0.27
-1.99
-3.57
-4.96
-6.19
-7.44
-8.96
-10.96
-13.46
-16.08
-18.14
-18.85
-17.65
-14.50
-9.91
-4.73
0.14
4.09
6.95
8.87
10.12
10.93
11.34
11.33
10.91
10.24
9.55
9.07
8.83
8.69
8.43
7.90
7.13
6.34
5.79
5.62
5.75
5.94
5.90
5.47
4.66
3.63
2.54
1.46
0.39
-0.76
-2.06
-3.63
-5.58
-8.03
-10.96
-14.13
-17.04
-19.00
-19.40
-17.92
-14.72
-10.39
-5.71
-1.35
2.24
4.87
6.57
7.44
7.55
7.05
6.14
5.10
4.22
3.68
3.50
3.58
3.77
3.98
4.23
4.61
5.13
5.70
6.14
6.22
5.82
4.96
3.83
2.68
1.69
0.89
0.22
-0.50
-1.46
-2.82
-4.69
-7.04
-9.66
-12.17
-14.05
-14.79
-14.04
-11.78
-8.27
-3.99
0.45
4.51
7.77
10.04
11.28
11.59
11.13
10.10
8.72
7.20
5.71
4.41
3.33
2.47
1.82
1.36
1.12
1.18
1.58
2.25
3.04
3.66
3.84
3.39
2.32
0.74
-1.12
-3.00
-4.76
-6.35
-7.84
-9.35
-11.02
-12.95
-15.12
-17.33
-19.26
-20.48
-20.57
-19.27
-16.59
-12.76
-8.23
-3.52
0.88
4.59
7.37
9.15
9.96
9.89
9.16
8.03
6.80
5.77
5.12
4.86
4.89
5.05
5.15
5.12
5.02
4.95
5.00
5.16
5.28
5.14
4.62
3.74
2.65
1.54
0.54
-0.37
-1.34
-2.53
-4.07
-6.03
-8.44
-11.20
-14.16
-16.98
-19.17
-20.22
-19.74
-17.63
-14.13
-9.76
-5.12
-0.76
2.91
5.70
7.55
8.55
8.83
8.59
8.02
7.32
6.70
6.28
6.21
6.48
7.04
7.69
8.23
8.55
8.60
8.47
8.18
7.76
7.08
6.01
4.47
2.48
0.19
-2.23
-4.57
-6.71
-8.63
-10.43
-12.22
-14.12
-16.08
-17.85
-18.99
-19.01
-17.55
-14.57
-10.38
-5.55
-0.72
3.58
7.04
9.56
11.19
12.04
12.23
11.91
11.24
10.41
9.56
8.83
8.29
7.96
7.80
7.75
7.74
7.69
7.54
7.21
6.62
5.72
4.50
3.00
1.42
-0.08
-1.35
-2.34
-3.13
-3.91
-4.87
-6.18
-7.91
-10.07
-12.55
-15.09
-17.31
-18.70
-18.80
-17.32
-14.34
-10.26
-5.71
-1.31
2.42
5.26
7.19
8.31
8.79
8.76
8.34
7.67
6.86
5.97
5.01
3.98
2.93
2.02
1.43
1.32
1.73
2.51
3.35
3.95
4.07
3.62
2.73
1.55
0.27
-1.00
-2.19
-3.28
-4.31
-5.33
-6.49
-7.92
-9.70
-11.71
-13.66
-15.07
-15.47
-14.51
-12.14
-8.62
-4.43
-0.18
3.58
6.47
8.36
9.31
9.51
9.20
8.62
7.95
7.34
6.90
6.67
6.60
6.61
6.59
6.45
6.19
5.87
5.57
5.34
5.14
4.83
4.26
3.32
1.97
0.27
-1.65
-3.63
-5.53
-7.25
-8.76
-10.14
-11.50
-12.99
-14.66
-16.41
-17.94
-18.81
-18.56
-16.88
-13.77
-9.58
-4.90
-0.39
3.46
6.41
8.42
9.57
9.94
9.60
8.67
7.35
6.01
5.04
4.69
4.96
5.60
6.24
6.63
6.69
6.58
6.52
6.62
6.83
6.89
6.55
5.64
4.15
2.28
0.25
-1.71
-3.50
-5.13
-6.64
-8.14
-9.72
-11.46
-13.35
-15.26
-16.88
-17.80
-17.60
-16.04
-13.12
-9.14
-4.66
-0.31
3.36
6.03
7.64
8.39
8.55
8.39
8.08
7.71
7.34
7.01
6.79
6.73
6.82
6.99
7.13
7.17
7.12
7.05
7.06
7.16
7.25
7.17
6.75
5.88
4.57
2.87
0.94
-1.07
-3.08
-5.03
-6.97
-8.99
-11.21
-13.68
-16.26
-18.59
-20.11
-20.31
-18.91
-15.98
-11.98
-7.54
-3.24
0.55
3.69
6.24
8.24
9.73
10.65
11.00
10.84
10.32
9.66
9.01
8.52
8.21
8.05
7.98
7.92
7.87
7.83
7.80
7.73
7.55
7.15
6.44
5.40
4.06
2.53
0.88
-0.84
-2.63
-4.49
-6.42
-8.43
-10.54
-12.74
-15.00
-17.09
-18.65
-19.20
-18.34
-15.90
-12.11
-7.44
-2.57
1.92
5.62
8.36
10.16
11.07
11.19
10.62
9.51
8.07
6.60
5.38
4.62
4.43
4.72
5.28
5.86
6.26
6.42
6.36
6.16
5.84
5.38
4.69
3.76
2.62
1.33
-0.05
-1.50
-3.02
-4.62
-6.25
-7.92
-9.60
-11.33
-13.15
-14.96
-16.50
-17.38
-17.19
-15.68
-12.92
-9.27
-5.27
-1.46
1.80
4.36
6.27
7.64
8.54
8.94
8.81
8.17
7.19
6.19
5.47
5.28
5.65
6.41
7.28
7.98
8.33
8.30
7.92
7.20
6.17
4.78
3.08
1.15
-0.80
-2.53
-3.88
-4.77
-5.30
-5.72
-6.38
-7.53
-9.32
-11.59
-13.98
-15.96
-17.03
-16.87
-15.41
-12.82
-9.42
-5.61
-1.82
1.60
4.38
6.35
7.48
7.87
7.71
7.25
6.76
6.46
6.45
6.69
7.06
7.36
7.48
7.39
7.21
7.06
6.99
6.94
6.75
6.30
5.48
4.34
2.93
1.34
-0.37
-2.16
-4.01
-5.84
-7.60
-9.29
-10.95
-12.67
-14.51
-16.44
-18.24
-19.53
-19.88
-18.94
-16.62
-13.10
-8.82
-4.33
-0.15
3.40
6.15
8.04
9.10
9.38
9.01
8.18
7.21
6.39
5.94
5.97
6.40
7.05
7.69
8.16
8.37
8.31
8.06
7.66
7.13
6.45
5.54
4.32
2.78
1.02
-0.84
-2.62
-4.21
-5.60
-6.87
-8.16
-9.65
-11.47
-13.63
-16.03
-18.33
-20.07
-20.77
-20.08
-17.89
-14.43
-10.14
-5.57
-1.22
2.55
5.54
7.69
9.06
9.72
9.85
9.59
9.14
8.67
8.34
8.26
8.45
8.82
9.22
9.50
9.59
9.57
9.57
9.67
9.82
9.81
9.36
8.29
6.60
4.47
2.16
-0.09
-2.20
-4.13
-5.89
-7.49
-8.96
-10.42
-12.11
-14.22
-16.71
-19.16
-20.87
-21.08
-19.35
-15.79
-11.00
-5.83
-0.99
3.10
6.38
8.95
10.85
12.02
12.34
11.82
10.67
9.33
8.31
7.98
8.41
9.38
10.45
11.20
11.41
11.12
10.65
10.32
10.30
10.53
10.67
10.36
9.36
7.67
5.52
3.24
1.07
-0.85
-2.52
-4.02
-5.49
-7.04
-8.86
-11.04
-13.57
-16.19
-18.39
-19.56
-19.19
-17.15
-13.67
-9.31
-4.69
-0.31
3.55
6.79
9.36
11.17
12.14
12.24
11.59
10.45
9.14
7.95
7.07
6.50
6.16
5.96
5.85
5.82
5.90
6.04
6.15
6.11
5.78
5.12
4.19
3.10
1.94
0.74
-0.50
-1.82
-3.16
-4.46
-5.69
-6.95
-8.47
-10.42
-12.78
-15.21
-17.05
-17.62
-16.50
-13.67
-9.57
-4.90
-0.34
3.65
6.85
9.25
10.84
11.61
11.54
10.73
9.37
7.87
6.60
5.85
5.71
6.02
6.51
6.91
7.09
7.09
7.00
6.95
6.93
6.82
6.47
5.69
4.45
2.82
0.93
-1.01
-2.80
-4.37
-5.73
-7.03
-8.48
-10.32
-12.70
-15.55
-18.55
-21.16
-22.78
-22.93
-21.44
-18.43
-14.31
-9.57
-4.68
0.01
4.22
7.71
10.26
11.71
12.05
11.49
10.39
9.20
8.28
7.80
7.74
7.94
8.18
8.30
8.25
8.08
7.85
7.57
7.21
6.67
5.84
4.66
3.16
1.43
-0.36
-2.09
-3.68
-5.20
-6.78
-8.63
-10.83
-13.40
-16.21
-18.98
-21.39
-23.05
-23.57
-22.71
-20.35
-16.66
-11.99
-6.84
-1.72
2.93
6.78
9.63
11.38
12.05
11.82
10.99
9.98
9.13
8.65
8.54
8.65
8.80
8.88
8.90
8.94
9.14
9.58
10.20
10.84
11.29
11.36
10.99
10.23
9.27
8.32
7.52
6.94
6.51
6.09
5.52
4.69
3.63
2.55
1.98
2.63
5.37
10.84
19.12
29.46
40.37
50.00
56.75
59.79
59.27
56.09
51.42
46.16
40.75
35.18
29.36
23.36
17.44
11.95
6.97
2.26
-2.67
-8.27
-14.72
-21.85
-29.15
-36.05
-42.11
-47.16
-51.30
-54.77
-57.83
-60.67
-63.28
-65.52
-67.09
-67.80
-67.59
-66.67
-65.32
-63.69
-61.61
-58.63
-54.24
-48.30
-41.24
-34.02
-27.79
-23.35
-20.77
-19.31
-17.85
-15.41
-11.67
-7.03
-2.42
1.20
3.18
3.45
2.40
0.67
-1.00
-2.00
-1.81
-0.05
3.35
8.03
13.20
17.77
20.79
21.74
20.75
18.46
15.72
13.29
11.69
11.19
11.81
13.29
15.08
16.32
16.04
13.59
8.95
2.86
-3.32
-8.12
-10.35
-9.46
-5.61
0.52
7.86
15.29
21.78
26.52
28.96
28.83
26.21
21.59
15.94
10.68
7.35
7.14
10.37
16.21
22.86
28.15
30.42
29.07
24.74
18.92
13.35
9.42
7.84
8.67
11.33
14.93
18.33
20.42
20.38
17.80
12.85
6.09
-1.73
-9.91
-17.91
-25.25
-31.44
-35.85
-37.86
-37.11
-33.60
-27.90
-20.87
-13.56
-6.91
-1.58
2.16
4.47
5.82
6.92
8.45
10.95
14.64
19.42
24.86
30.35
35.35
39.53
42.87
45.73
48.64
52.14
56.58
62.05
68.24
74.50
79.89
83.34
83.96
81.36
75.79
68.06
59.18
49.89
40.42
30.53
19.81
7.98
-5.03
-18.92
-33.15
-47.01
-59.89
-71.43
-81.75
-91.56
-101.95
-113.92
-127.70
-142.17
-154.90
-162.84
-163.42
-155.69
-140.67
-120.92
-99.38
-78.32
-58.75
-40.63
-23.62
-7.84
5.99
16.92
24.50
29.29
32.69
36.17
40.37
44.65
47.29
46.32
40.64
30.67
18.40
6.61
-2.19
-6.65
-6.94
-4.36
-0.45
3.84
8.53
14.39
22.29
32.52
44.52
57.01
68.68
78.55
86.35
92.24
96.56
99.42
100.65
99.96
97.21
92.66
86.93
80.87
75.37
71.16
68.66
67.86
68.17
68.44
67.31
63.81
57.91
50.76
44.21
39.86
38.29
38.68
39.23
37.96
33.51
25.49
14.25
0.61
-14.29
-28.92
-41.17
-48.51
-48.60
-40.31
-24.66
-4.92
14.33
28.79
36.01
36.08
31.12
24.04
17.06
10.97
5.24
-1.18
-9.00
-18.09
-27.59
-36.51
-44.16
-50.50
-56.03
-61.42
-67.23
-73.72
-80.83
-88.16
-95.33
-102.17
-108.78
-115.39
-122.08
-128.51
-134.03
-137.92
-139.73
-139.49
-137.62
-134.65
-130.86
-126.12
-119.95
-111.86
-101.58
-89.34
-75.88
-62.22
-49.39
-38.12
-28.62
-20.62
-13.54
-6.81
-0.15
6.35
12.36
17.57
21.93
25.70
29.18
32.53
35.61
38.06
39.52
39.90
39.49
38.78
38.32
38.48
39.36
40.79
42.44
43.81
44.35
43.48
40.75
35.93
29.23
21.24
12.89
5.19
-0.96
-5.01
-6.78
-6.42
-4.33
-1.04
2.89
7.01
11.01
14.76
18.29
21.63
24.83
27.83
30.54
32.95
35.08
37.06
38.98
40.81
42.36
43.40
43.79
43.55
42.84
41.79
40.36
38.31
35.32
31.25
26.26
20.71
15.00
9.30
3.66
-1.76
-6.40
-9.41
-10.15
-8.80
-6.48
-4.84
-4.98
-6.65
-8.30
-7.81
-3.84
3.46
12.56
21.59
29.33
35.63
40.88
45.29
48.41
49.41
47.95
44.64
40.86
37.92
36.07
34.10
30.09
22.56
11.61
-0.88
-12.11
-19.68
-22.74
-22.20
-20.13
-18.50
-18.39
-19.69
-21.58
-23.26
-24.33
-24.72
-24.40
-23.19
-20.93
-17.82
-14.61
-12.39
-12.17
-14.48
-19.25
-25.96
-33.85
-42.09
-49.72
-55.72
-59.19
-59.67
-57.42
-53.38
-48.90
-45.18
-42.96
-42.34
-42.92
-44.07
-45.12
-45.60
-45.25
-44.01
-42.07
-39.69
-37.26
-35.09
-33.36
-32.07
-30.92
-29.44
-27.15
-23.80
-19.51
-14.77
-10.23
-6.34
-3.21
-0.55
2.00
4.72
7.48
9.85
11.22
11.22
9.94
8.18
7.26
8.74
13.80
22.80
35.13
49.37
63.69
76.39
86.24
92.68
95.90
96.83
97.02
98.32
102.36
109.92
120.42
131.88
141.44
146.48
145.74
139.87
130.79
120.50
109.94
98.67
85.45
69.25
49.60
26.29
-1.19
-33.54
-70.45
-109.21
-144.19
-168.31
-176.03
-166.28
-143.42
-115.46
-90.32
-72.51
-62.01
-55.70
-50.11
-43.63
-36.87
-31.47
-28.39
-27.03
-25.60
-22.28
-16.47
-9.03
-1.92
2.83
4.20
2.52
-0.76
-3.73
-4.88
-3.60
-0.33
3.73
7.16
8.84
8.38
6.19
3.18
0.37
-1.59
-2.57
-2.99
-3.43
-4.33
-5.71
-7.23
-8.34
-8.66
-8.14
-7.10
-6.09
-5.59
-5.76
-6.42
-7.12
-7.38
-6.90
-5.73
-4.22
-2.94
-2.40
-2.87
-4.26
-6.17
-7.97
-9.04
-9.00
-7.73
-5.39
-2.29
1.20
4.80
8.23
11.24
13.59
15.06
15.50
14.90
13.44
11.38
9.07
6.85
5.00
3.81
3.43
3.94
5.19
6.85
8.44
9.52
9.79
9.29
8.31
7.23
6.33
5.62
4.87
3.74
1.96
-0.52
-3.54
-6.81
-9.93
-12.55
-14.29
-14.83
-14.00
-11.83
-8.65
-4.98
-1.44
1.46
3.41
4.38
4.44
3.76
2.51
0.86
-1.02
-2.86
-4.40
-5.39
-5.70
-5.37
-4.54
-3.44
-2.28
-1.22
-0.39
0.20
0.55
0.71
0.77
0.78
0.78
0.66
0.28
-0.53
-1.89
-3.77
-6.01
-8.42
-10.74
-12.75
-14.22
-14.92
-14.63
-13.20
-10.61
-7.00
-2.74
1.71
5.82
9.19
11.62
13.12
13.85
13.99
13.71
13.02
11.96
10.60
9.04
7.48
6.06
4.86
3.92
3.22
2.82
2.77
3.08
3.61
4.14
4.40
4.21
3.52
2.43
1.08
-0.42
-2.07
-3.95
-6.13
-8.66
-11.43
-14.22
-16.66
-18.37
-19.04
-18.48
-16.77
-14.13
-10.89
-7.35
-3.73
-0.25
2.91
5.49
7.30
8.22
8.31
7.81
7.01
6.18
5.45
4.85
4.33
3.92
3.68
3.70
3.98
4.43
4.85
5.07
4.99
4.59
3.92
3.03
1.96
0.75
-0.58
-1.99
-3.45
-4.99
-6.70
-8.69
-11.01
-13.55
-16.02
-17.97
-18.92
-18.53
-16.64
-13.44
-9.30
-4.74
-0.26
3.77
7.12
9.69
11.47
12.44
12.63
12.13
11.12
9.82
8.53
7.46
6.75
6.43
6.44
6.67
7.00
7.33
7.57
7.69
7.66
7.45
7.03
6.36
5.47
4.41
3.31
2.22
1.16
0.04
-1.26
-2.83
-4.72
-6.90
-9.25
-11.56
-13.51
-14.68
-14.69
-13.27
-10.47
-6.65
-2.37
1.71
5.16
7.74
9.47
10.51
11.00
11.03
10.61
9.76
8.54
7.12
5.65
4.29
3.11
2.09
1.18
0.33
-0.48
-1.26
-2.06
-2.93
-3.92
-4.99
-5.93
-6.49
-6.44
-5.78
-4.75
-3.77
-3.30
-3.61
-4.73
-6.48
-8.54
-10.59
-12.31
-13.44
-13.82
-13.37
-12.13
-10.21
-7.82
-5.12
-2.30
0.49
3.06
5.16
6.58
7.18
7.02
6.35
5.51
4.80
4.31
3.97
3.59
3.03
2.34
1.69
1.29
1.20
1.31
1.33
1.05
0.41
-0.41
-1.11
-1.49
-1.57
-1.60
-2.03
-3.26
-5.45
-8.53
-12.13
-15.80
-19.18
-22.03
-24.25
-25.80
-26.55
-26.31
-24.89
-22.28
-18.76
-14.87
-11.33
-8.68
-7.22
-6.90
-7.51
-8.85
-10.85
-13.53
-16.79
-20.29
-23.44
-25.62
-26.51
-26.26
-25.38
-24.54
-24.25
-24.66
-25.68
-27.12
-28.89
-31.00
-33.44
-36.02
-38.33
-39.85
-40.22
-39.41
-37.70
-35.64
-33.79
-32.56
-32.04
-31.89
-31.34
-29.36
-24.99
-17.66
-7.57
4.37
16.77
28.15
37.39
43.91
47.68
48.99
48.29
45.99
42.47
38.10
33.32
28.60
24.44
21.29
19.42
18.90
19.50
20.76
22.07
22.87
22.80
21.72
19.74
17.08
13.96
10.54
6.96
3.32
-0.26
-3.64
-6.77
-9.63
-12.26
-14.69
-16.85
-18.55
-19.50
-19.30
-17.69
-14.54
-9.98
-4.44
1.45
6.97
11.51
14.70
16.55
17.34
17.46
17.27
16.95
16.47
15.79
14.90
13.93
13.14
12.75
12.89
13.54
14.54
15.63
16.58
17.19
17.33
16.98
16.16
14.93
13.35
11.52
9.52
7.43
5.30
3.14
0.87
-1.61
-4.36
-7.22
-9.83
-11.65
-12.14
-10.96
-8.16
-4.08
0.69
5.52
9.90
13.47
16.07
17.63
18.17
17.79
16.68
15.06
13.24
11.48
9.99
8.91
8.27
8.09
8.33
8.94
9.82
10.78
11.59
12.00
11.83
11.01
9.61
7.84
5.96
4.20
2.67
1.37
0.10
-1.37
-3.28
-5.72
-8.57
-11.45
-13.80
-15.07
-14.88
-13.16
-10.09
-6.04
-1.46
3.28
7.88
12.12
15.85
18.96
21.36
23.03
23.93
24.05
23.39
21.99
20.03
17.83
15.77
14.16
13.19
12.80
12.76
12.81
12.71
12.35
11.73
10.91
9.92
8.80
7.56
6.25
4.90
3.47
1.86
-0.12
-2.59
-5.55
-8.67
-11.48
-13.41
-14.05
-13.30
-11.41
-8.77
-5.80
-2.77
0.19
3.00
5.50
7.39
8.32
7.99
6.34
3.62
0.32
-2.86
-5.25
-6.29
-5.75
-3.72
-0.72
2.53
5.21
6.70
6.80
5.75
4.13
2.57
1.45
0.77
0.22
-0.57
-1.77
-3.27
-4.72
-5.83
-6.48
-6.76
-6.79
-6.59
-5.98
-4.70
-2.57
0.31
3.63
7.04
10.28
13.26
15.93
18.19
19.85
20.76
20.87
20.35
19.42
18.18
16.55
14.32
11.38
7.90
4.34
1.33
-0.65
-1.47
-1.42
-1.07
-1.05
-1.78
-3.37
-5.57
-7.92
-9.96
-11.40
-12.23
-12.74
-13.28
-14.15
-15.36
-16.65
-17.54
-17.58
-16.48
-14.19
-10.91
-6.95
-2.64
1.72
5.93
9.75
13.00
15.49
17.14
17.95
18.03
17.52
16.56
15.20
13.44
11.24
8.57
5.42
1.85
-2.01
-5.92
-9.56
-12.51
-14.44
-15.13
-14.65
-13.31
-11.63
-10.16
-9.34
-9.41
-10.31
-11.81
-13.57
-15.21
-16.40
-16.85
-16.38
-14.91
-12.49
-9.29
-5.59
-1.73
1.95
5.17
7.72
9.46
10.30
10.23
9.31
7.71
5.71
3.66
1.87
0.60
-0.03
-0.03
0.47
1.26
2.08
2.72
3.03
2.96
2.59
2.04
1.44
0.87
0.29
-0.45
-1.54
-3.18
-5.45
-8.25
-11.26
-13.92
-15.65
-15.99
-14.76
-12.22
-8.83
-5.19
-1.80
1.09
3.37
5.04
6.11
6.50
6.15
5.11
3.59
1.92
0.52
-0.28
-0.36
0.17
1.02
1.82
2.27
2.25
1.84
1.23
0.58
-0.02
-0.63
-1.37
-2.43
-3.91
-5.89
-8.32
-11.08
-13.87
-16.28
-17.76
-17.85
-16.29
-13.17
-8.96
-4.30
0.20
4.17
7.53
10.38
12.90
15.10
16.88
18.08
18.63
18.65
18.42
18.22
18.24
18.48
18.79
18.95
18.84
18.42
17.76
16.94
15.97
14.76
13.15
11.06
8.46
5.48
2.33
-0.84
-3.92
-6.93
-9.95
-13.00
-15.99
-18.66
-20.67
-21.68
-21.49
-20.08
-17.58
-14.25
-10.37
-6.20
-2.02
1.93
5.33
7.87
9.26
9.42
8.48
6.88
5.20
3.98
3.47
3.54
3.82
3.86
3.42
2.55
1.53
0.66
0.09
-0.26
-0.59
-1.07
-1.74
-2.51
-3.28
-4.02
-4.87
-5.99
-7.42
-8.97
-10.18
-10.51
-9.56
-7.26
-3.91
-0.08
3.62
6.70
8.92
10.24
10.68
10.29
9.11
7.22
4.85
2.30
-0.10
-2.14
-3.80
-5.20
-6.56
-8.05
-9.76
-11.62
-13.46
-15.03
-16.15
-16.68
-16.66
-16.23
-15.65
-15.18
-14.99
-15.20
-15.78
-16.60
-17.47
-18.09
-18.07
-17.08
-14.89
-11.49
-7.13
-2.26
2.59
6.95
10.55
13.24
15.08
16.17
16.64
16.61
16.19
15.48
14.56
13.55
12.56
11.72
11.09
10.65
10.33
10.01
9.55
8.91
8.11
7.28
6.63
6.30
6.31
6.51
6.57
6.09
4.73
2.26
-1.29
-5.68
-10.42
-14.93
-18.55
-20.72
-21.06
-19.47
-16.16
-11.58
-6.32
-1.04
3.71
7.48
9.98
11.14
11.13
10.30
9.12
8.04
7.34
7.11
7.24
7.53
7.80
7.88
7.69
7.22
6.51
5.70
4.92
4.24
3.64
2.99
2.12
0.96
-0.52
-2.20
-3.92
-5.60
-7.21
-8.78
-10.36
-12.00
-13.75
-15.68
-17.76
-19.85
-21.57
-22.43
-21.94
-19.80
-16.06
-11.15
-5.72
-0.47
4.10
7.76
10.57
12.73
14.41
15.70
16.56
16.94
16.88
16.58
16.30
16.25
16.44
16.69
16.71
16.31
15.50
14.45
13.43
12.62
12.02
11.44
10.64
9.38
7.53
5.08
2.10
-1.27
-4.82
-8.28
-11.28
-13.40
-14.31
-13.94
-12.57
-10.93
-9.98
-10.56
-13.02
-16.97
-21.32
-24.63
-25.68
-23.90
-19.55
-13.57
-7.18
-1.44
2.99
5.96
7.68
8.52
8.85
8.97
9.11
9.41
9.97
10.79
11.77
12.74
13.54
14.10
14.42
14.63
14.87
15.19
15.58
15.89
16.04
15.98
15.74
15.33
14.64
13.39
11.22
7.84
3.23
-2.24
-7.82
-12.64
-15.98
-17.48
-17.19
-15.49
-12.98
-10.33
-8.19
-7.10
-7.39
-9.02
-11.51
-14.08
-15.87
-16.23
-14.98
-12.39
-9.02
-5.46
-2.10
0.94
3.65
6.07
8.10
9.59
10.42
10.58
10.23
9.63
9.03
8.55
8.15
7.73
7.16
6.40
5.51
4.61
3.81
3.15
2.70
2.48
2.57
2.95
3.53
4.10
4.39
4.16
3.34
2.14
0.88
-0.06
-0.49
-0.46
-0.25
-0.27
-0.80
-1.92
-3.41
-4.84
-5.72
-5.62
-4.33
-1.90
1.38
5.03
8.54
11.45
13.43
14.35
14.34
13.69
12.81
12.07
11.66
11.54
11.45
11.06
10.13
8.66
6.78
4.61
2.06
-1.19
-5.51
-10.98
-17.15
-23.08
-27.57
-29.60
-28.72
-25.11
-19.55
-13.02
-6.53
-0.93
3.18
5.41
5.63
3.96
0.73
-3.61
-8.52
-13.51
-18.05
-21.58
-23.54
-23.49
-21.25
-17.04
-11.48
-5.44
0.18
4.70
7.80
9.48
10.01
9.71
8.88
7.67
6.14
4.29
2.20
0.02
-1.98
-3.52
-4.37
-4.42
-3.73
-2.43
-0.71
1.31
3.51
5.84
8.22
10.50
12.47
13.87
14.46
14.07
12.68
10.43
7.61
4.59
1.71
-0.91
-3.37
-5.86
-8.43
-10.72
-11.88
-10.70
-5.98
3.04
16.22
32.56
50.28
67.36
81.89
92.45
98.21
98.98
95.02
86.97
75.76
62.46
48.22
34.13
21.07
9.64
0.14
-7.18
-12.14
-14.65
-15.03
-14.21
-13.66
-15.02
-19.43
-27.15
-37.29
-48.15
-57.86
-64.98
-69.00
-70.38
-70.39
-70.60
-72.26
-75.80
-80.56
-84.98
-87.05
-85.01
-77.85
-65.60
-49.12
-29.81
-9.15
11.63
31.75
50.99
69.38
87.01
103.72
119.16
132.97
145.02
155.53
164.91
173.44
181.19
188.28
195.20
202.75
211.51
220.97
229.05
232.54
228.43
215.59
195.62
172.32
149.92
131.24
116.67
104.72
93.35
81.37
68.82
56.37
44.28
31.77
17.15
-1.37
-24.91
-53.51
-86.23
-121.61
-158.01
-193.61
-226.23
-253.34
-272.41
-281.57
-280.24
-269.38
-251.16
-228.29
-203.27
-177.88
-153.20
-129.93
-108.77
-90.43
-75.55
-64.26
-55.96
-49.49
-43.59
-37.48
-31.23
-25.64
-21.80
-20.54
-21.89
-25.11
-28.93
-32.09
-33.87
-34.26
-33.88
-33.67
-34.50
-36.89
-40.90
-46.15
-51.97
-57.49
-61.90
-64.57
-65.25
-64.06
-61.41
-57.89
-54.09
-50.58
-47.83
-46.26
-46.10
-47.38
-49.80
-52.80
-55.73
-57.91
-58.94
-58.75
-57.55
-55.57
-52.97
-49.64
-45.37
-40.06
-33.88
-27.40
-21.26
-15.82
-10.70
-4.89
2.96
13.76
27.51
43.10
58.67
72.28
82.50
88.72
90.99
89.73
85.37
78.29
68.98
58.25
47.17
36.88
28.22
21.47
16.50
12.97
10.57
9.18
8.80
9.35
10.65
12.44
14.54
16.94
19.80
23.21
27.04
30.89
34.22
36.65
38.13
39.05
40.12
42.19
45.85
51.25
57.86
64.53
69.73
71.96
70.16
64.05
54.18
41.64
27.67
13.30
-0.75
-13.87
-25.41
-34.48
-40.19
-42.07
-40.32
-35.95
-30.47
-25.35
-21.63
-19.59
-18.87
-18.85
-18.99
-19.07
-19.11
-19.24
-19.57
-19.98
-20.29
-20.34
-20.14
-19.85
-19.64
-19.50
-19.27
-18.67
-17.58
-16.13
-14.71
-13.66
-13.09
-12.81
-12.41
-11.58
-10.39
-9.23
-8.70
-9.25
-10.91
-13.30
-15.70
-17.40
-17.90
-17.07
-15.11
-12.38
-9.32
-6.22
-3.36
-0.90
0.95
1.96
1.97
0.97
-0.85
-3.10
-5.34
-7.24
-8.66
-9.66
-10.44
-11.21
-12.09
-13.06
-13.94
-14.49
-14.47
-13.81
-12.68
-11.52
-10.87
-11.21
-12.74
-15.32
-18.51
-21.75
-24.58
-26.73
-28.07
-28.51
-27.90
-26.04
-22.73
-17.98
-12.03
-5.32
1.55
8.00
13.47
17.54
19.90
20.43
19.26
16.77
13.55
10.24
7.43
5.53
4.70
4.89
5.80
7.05
8.24
9.09
9.54
9.71
9.76
9.71
9.36
8.30
6.17
2.83
-1.44
-6.11
-10.55
-14.33
-17.36
-19.76
-21.69
-23.14
-23.88
-23.53
-21.87
-18.95
-15.25
-11.50
-8.44
-6.41
-5.20
-4.06
-1.92
2.12
8.45
16.75
26.17
35.61
44.18
51.37
57.06
61.31
64.23
65.90
66.47
66.21
65.49
64.58
63.47
61.82
59.11
54.90
49.14
42.09
34.33
26.43
18.85
11.87
5.62
0.11
-4.64
-8.64
-11.87
-14.19
-15.44
-15.46
-14.20
-11.85
-8.79
-5.52
-2.49
-0.01
1.73
2.64
2.67
1.80
0.08
-2.31
-5.04
-7.70
-9.93
-11.47
-12.22
-12.19
-11.49
-10.29
-8.84
-7.43
-6.39
-5.98
-6.28
-7.21
-8.49
-9.77
-10.76
-11.34
-11.59
-11.75
-12.10
-12.86
-14.10
-15.69
-17.33
-18.62
-19.21
-18.91
-17.74
-15.92
-13.74
-11.46
-9.23
-7.10
-5.05
-3.13
-1.47
-0.26
0.37
0.42
0.01
-0.60
-1.23
-1.80
-2.37
-3.06
-3.97
-5.05
-6.17
-7.13
-7.76
-8.04
-8.05
-7.99
-8.06
-8.47
-9.36
-10.72
-12.44
-14.30
-16.01
-17.35
-18.11
-18.16
-17.39
-15.68
-12.94
-9.19
-4.58
0.56
5.78
10.62
14.74
17.92
20.03
21.00
20.82
19.52
17.35
14.75
12.29
10.48
9.64
9.73
10.48
11.53
12.52
13.26
13.60
13.46
12.70
11.18
8.89
5.96
2.68
-0.62
-3.63
-6.25
-8.53
-10.61
-12.66
-14.74
-16.82
-18.69
-20.06
-20.54
-19.79
-17.62
-14.10
-9.57
-4.52
0.45
4.89
8.50
11.22
13.09
14.19
14.62
14.43
13.72
12.66
11.42
10.22
9.24
8.57
8.24
8.21
8.38
8.63
8.88
9.09
9.25
9.32
9.19
8.69
7.64
5.97
3.73
1.14
-1.56
-4.22
-6.86
-9.57
-12.29
-14.76
-16.44
-16.78
-15.41
-12.40
-8.26
-3.68
0.68
4.44
7.47
9.80
11.40
12.13
11.83
10.42
8.09
5.24
2.45
0.23
-1.10
-1.53
-1.26
-0.62
0.04
0.51
0.63
0.41
-0.11
-0.85
-1.81
-2.99
-4.45
-6.17
-8.06
-9.96
-11.72
-13.23
-14.52
-15.74
-16.97
-18.14
-19.00
-19.13
-18.20
-16.06
-12.88
-9.05
-5.08
-1.39
1.67
3.94
5.36
5.98
5.94
5.51
5.00
4.72
4.96
5.78
7.08
8.51
9.57
9.75
8.81
6.85
4.43
2.40
1.54
2.33
4.64
7.84
11.03
13.39
14.41
14.01
12.39
9.84
6.53
2.56
-1.95
-6.70
-11.18
-14.82
-17.20
-18.15
-17.79
-16.35
-14.04
-10.96
-7.14
-2.66
2.26
7.28
12.05
16.15
19.18
20.74
20.59
18.74
15.67
12.13
8.96
6.69
5.41
4.73
4.12
3.24
2.06
0.82
-0.19
-0.87
-1.35
-1.91
-2.77
-3.99
-5.48
-7.11
-8.88
-10.92
-13.44
-16.58
-20.24
-23.98
-27.11
-28.90
-28.80
-26.66
-22.74
-17.70
-12.28
-7.17
-2.82
0.58
2.99
4.48
5.15
5.11
4.42
3.18
1.48
-0.55
-2.69
-4.63
-6.01
-6.53
-6.08
-4.81
-3.10
-1.44
-0.22
0.40
0.41
-0.01
-0.68
-1.45
-2.19
-2.78
-3.15
-3.28
-3.26
-3.26
-3.50
-4.14
-5.18
-6.41
-7.43
-7.80
-7.14
-5.26
-2.22
1.66
5.89
9.87
13.05
15.08
15.81
15.35
13.99
12.08
9.98
8.00
6.34
5.15
4.49
4.31
4.50
4.94
5.48
6.02
6.49
6.84
7.04
7.04
6.79
6.21
5.30
4.07
2.62
1.12
-0.26
-1.42
-2.41
-3.44
-4.80
-6.72
-9.21
-11.88
-14.07
-15.12
-14.55
-12.35
-8.93
-4.95
-1.06
2.34
5.13
7.35
9.02
10.03
10.23
9.56
8.15
6.37
4.65
3.32
2.47
2.01
1.76
1.64
1.68
1.99
2.62
3.48
4.32
4.87
4.95
4.53
3.72
2.66
1.44
0.09
-1.43
-3.12
-4.98
-6.98
-9.12
-11.41
-13.80
-16.06
-17.77
-18.36
-17.39
-14.68
-10.49
-5.39
-0.08
4.77
8.69
11.40
12.79
12.92
12.03
10.50
8.79
7.32
6.28
5.58
4.91
3.92
2.39
0.38
-1.78
-3.59
-4.62
-4.65
-3.73
-2.18
-0.43
1.12
2.19
2.69
2.53
1.68
0.07
-2.31
-5.40
-8.99
-12.79
-16.45
-19.56
-21.68
-22.35
-21.23
-18.16
-13.32
-7.23
-0.64
5.62
10.88
14.73
17.09
18.13
18.15
17.46
16.33
14.88
13.16
11.20
9.06
6.87
4.82
3.07
1.68
0.66
-0.06
-0.60
-1.02
-1.42
-1.83
-2.30
-2.87
-3.57
-4.40
-5.38
-6.47
-7.65
-8.97
-10.48
-12.32
-14.63
-17.41
-20.39
-23.05
-24.69
-24.63
-22.50
-18.38
-12.79
-6.54
-0.43
4.93
9.21
12.26
14.08
14.72
14.25
12.89
10.95
8.85
7.02
5.77
5.25
5.42
6.13
7.12
8.16
9.05
9.66
9.93
9.89
9.57
8.97
8.12
7.04
5.76
4.29
2.61
0.69
-1.59
-4.31
-7.45
-10.77
-13.86
-16.16
-17.14
-16.46
-14.08
-10.24
-5.45
-0.30
4.62
8.82
12.04
14.20
15.35
15.68
15.38
14.60
13.51
12.26
10.99
9.88
9.07
8.67
8.75
9.28
10.13
11.13
11.99
12.47
12.38
11.67
10.41
8.75
6.85
4.83
2.78
0.79
-1.09
-2.86
-4.58
-6.44
-8.57
-10.95
-13.34
-15.17
-15.80
-14.73
-11.84
-7.44
-2.16
3.24
8.16
12.17
15.12
16.95
17.68
17.29
15.83
13.44
10.46
7.37
4.73
3.03
2.49
2.98
4.14
5.46
6.48
6.90
6.58
5.47
3.73
1.74
0.14
-0.30
0.97
3.93
7.85
11.44
13.42
13.01
10.26
5.94
1.15
-3.19
-6.64
-9.15
-10.83
-11.64
-11.37
-9.73
-6.66
-2.56
1.68
4.91
6.15
4.91
1.42
-3.60
-9.28
-15.04
-20.72
-26.40
-32.10
-37.47
-41.75
-44.13
-44.13
-41.92
-38.30
-34.32
-30.80
-28.03
-25.75
-23.35
-20.32
-16.53
-12.23
-7.94
-4.17
-1.26
0.70
1.77
2.07
1.73
0.93
-0.02
-0.60
-0.17
1.83
5.71
11.29
17.93
24.72
30.77
35.43
38.46
39.96
40.26
39.75
38.79
37.68
36.66
35.88
35.36
35.02
34.69
34.16
33.25
31.82
29.72
26.85
23.09
18.44
13.07
7.27
1.46
-3.99
-8.79
-12.76
-15.84
-18.04
-19.43
-20.17
-20.47
-20.62
-20.82
-21.07
-21.14
-20.61
-19.10
-16.42
-12.70
-8.37
-4.02
-0.20
2.75
4.75
5.96
6.62
6.97
7.18
7.29
7.37
7.48
7.70
8.10
8.72
9.49
10.33
11.15
11.94
12.71
13.43
14.00
14.27
14.12
13.59
12.92
12.45
12.42
12.85
13.40
13.56
12.83
10.83
7.46
2.88
-2.49
-8.05
-12.93
-16.21
-17.12
-15.39
-11.41
-6.22
-1.06
3.04
5.68
7.06
7.71
8.06
8.23
8.00
7.10
5.47
3.40
1.42
0.12
-0.13
0.71
2.39
4.46
6.41
7.79
8.31
7.84
6.45
4.33
1.70
-1.18
-4.02
-6.53
-8.48
-9.76
-10.45
-10.78
-11.05
-11.43
-11.96
-12.42
-12.52
-11.96
-10.56
-8.28
-5.23
-1.66
2.07
5.51
8.21
9.85
10.34
9.88
8.88
7.82
7.06
6.73
6.71
6.77
6.71
6.51
6.30
6.30
6.66
7.37
8.20
8.87
9.09
8.70
7.72
6.29
4.65
3.05
1.67
0.56
-0.35
-1.32
-2.66
-4.61
-7.25
-10.31
-13.28
-15.44
-16.19
-15.27
-12.89
-9.65
-6.27
-3.30
-0.93
0.99
2.77
4.65
6.59
8.32
9.51
9.98
9.78
9.17
8.45
7.84
7.44
7.20
7.09
7.08
7.22
7.52
7.88
8.01
7.49
5.87
3.00
-0.87
-5.06
-8.63
-10.71
-10.79
-8.88
-5.48
-1.50
2.01
4.05
3.95
1.52
-2.82
-8.10
-13.04
-16.45
-17.62
-16.46
-13.44
-9.16
-4.06
1.84
8.74
16.70
25.32
33.59
40.09
43.47
42.97
38.69
31.53
22.85
13.97
5.86
-0.95
-6.23
-9.87
-11.76
-11.82
-10.12
-6.93
-2.81
1.57
5.52
8.50
10.26
10.74
10.07
8.40
5.83
2.42
-1.77
-6.52
-11.34
-15.52
-18.33
-19.23
-18.08
-15.14
-10.97
-6.24
-1.58
2.54
5.80
8.01
9.15
9.28
8.57
7.20
5.41
3.45
1.60
0.14
-0.74
-0.97
-0.67
-0.09
0.52
0.96
1.17
1.20
1.15
1.08
1.04
1.01
0.94
0.76
0.38
-0.32
-1.41
-2.88
-4.61
-6.36
-7.86
-8.82
-9.08
-8.62
-7.54
-6.04
-4.36
-2.64
-0.88
1.00
3.10
5.40
7.69
9.54
10.41
9.82
7.63
4.09
-0.18
-4.33
-7.57
-9.37
-9.59
-8.44
-6.35
-3.86
-1.45
0.47
1.62
1.85
1.14
-0.42
-2.71
-5.62
-9.08
-12.99
-17.10
-21.01
-24.27
-26.41
-27.16
-26.46
-24.45
-21.34
-17.38
-12.75
-7.73
-2.64
2.09
6.02
8.83
10.38
10.73
10.15
9.06
8.07
7.85
9.14
12.55
18.36
26.46
36.34
47.25
58.33
68.75
77.63
84.04
87.14
86.48
82.31
75.71
68.22
61.24
55.39
50.27
44.94
38.55
31.02
23.10
15.97
10.65
7.67
7.01
8.47
11.84
16.86
22.93
28.97
33.63
35.85
35.39
32.91
29.59
26.47
23.84
21.14
17.35
11.54
3.41
-6.59
-17.42
-27.83
-36.65
-43.08
-46.80
-47.97
-47.13
-45.02
-42.33
-39.51
-36.65
-33.60
-30.10
-25.99
-21.28
-16.17
-10.95
-5.81
-0.78
4.26
9.44
14.70
19.64
23.62
25.91
25.96
23.58
19.03
12.94
6.14
-0.51
-6.39
-11.19
-14.98
-18.09
-20.91
-23.66
-26.25
-28.38
-29.69
-29.91
-28.73
-25.78
-20.60
-13.10
-4.04
4.67
10.39
10.87
5.31
-5.13
-17.94
-30.62
-41.86
-51.89
-61.79
-72.38
-83.44
-93.79
-101.80
-105.97
-105.09
-98.06
-84.03
-62.69
-35.03
-3.65
27.46
54.07
73.05
83.40
86.27
84.23
80.05
75.62
71.67
68.03
64.21
59.83
54.79
49.12
42.66
34.94
25.47
14.25
2.11
-9.34
-18.35
-23.95
-26.47
-27.47
-28.93
-32.33
-38.02
-45.34
-53.28
-61.19
-69.19
-77.85
-87.63
-98.42
-109.42
-119.57
-127.92
-133.93
-137.31
-137.88
-135.46
-130.19
-122.90
-115.29
-109.54
-107.37
-109.03
-112.86
-115.79
-114.52
-107.05
-93.54
-76.15
-57.90
-41.30
-27.38
-15.70
-5.23
4.67
13.85
21.68
27.92
33.33
39.73
49.40
64.28
85.37
112.56
144.80
180.12
215.64
247.65
272.13
285.76
287.04
277.07
259.18
237.56
215.48
193.89
171.15
144.01
109.39
66.18
16.20
-36.20
-85.33
-125.47
-151.77
-160.79
-150.99
-123.56
-83.25
-38.25
1.36
26.80
33.82
24.49
6.30
-11.29
-20.96
-20.29
-11.72
-0.14
10.15
17.18
20.99
22.14
20.38
14.55
3.71
-11.56
-28.70
-44.00
-54.20
-57.96
-56.15
-51.08
-45.22
-40.13
-36.26
-33.48
-31.82
-31.70
-33.77
-38.24
-44.41
-50.82
-55.68
-57.72
-56.59
-52.91
-47.86
-42.58
-37.81
-33.84
-30.69
-28.36
-26.89
-26.34
-26.62
-27.45
-28.44
-29.20
-29.55
-29.58
-29.57
-29.87
-30.57
-31.36
-31.61
-30.57
-27.70
-23.02
-17.07
-10.78
-5.08
-0.62
2.42
4.22
5.17
5.64
5.85
5.90
5.79
5.55
5.20
4.80
4.46
4.29
4.45
4.99
5.85
6.82
7.60
7.89
7.54
6.55
5.07
3.22
1.10
-1.34
-4.15
-7.37
-10.89
-14.52
-17.98
-21.00
-23.23
-24.35
-24.04
-22.12
-18.68
-14.09
-8.95
-3.91
0.50
4.00
6.58
8.37
9.54
10.22
10.47
10.40
10.11
9.79
9.60
9.64
9.94
10.37
10.79
11.04
11.05
10.81
10.39
9.82
9.12
8.15
6.78
4.93
2.67
0.23
-2.15
-4.30
-6.30
-8.35
-10.71
-13.42
-16.31
-18.90
-20.62
-20.96
-19.63
-16.64
-12.28
-7.09
-1.64
3.46
7.82
11.22
13.69
15.35
16.38
16.87
16.88
16.52
15.97
15.47
15.20
15.24
15.50
15.82
16.04
16.14
16.19
16.24
16.28
16.16
15.66
14.63
13.04
11.01
8.75
6.47
4.27
2.17
0.07
-2.14
-4.55
-7.18
-9.92
-12.56
-14.75
-16.13
-16.34
-15.15
-12.52
-8.61
-3.76
1.52
6.69
11.31
15.05
17.72
19.28
19.78
19.40
18.42
17.21
16.15
15.50
15.32
15.51
15.85
16.14
16.33
16.43
16.50
16.53
16.44
16.05
15.23
13.88
12.01
9.69
7.04
4.23
1.37
-1.45
-4.21
-6.93
-9.70
-12.57
-15.49
-18.26
-20.50
-21.74
-21.52
-19.60
-16.05
-11.26
-5.81
-0.29
4.89
9.55
13.71
17.42
20.61
23.10
24.65
25.13
24.64
23.52
22.22
21.15
20.51
20.27
20.27
20.37
20.51
20.74
21.13
21.65
22.20
22.56
22.58
22.16
21.35
20.23
18.88
17.25
15.26
12.76
9.66
5.93
1.66
-3.01
-7.86
-12.65
-17.08
-20.81
-23.49
-24.85
-24.76
-23.28
-20.70
-17.40
-13.77
-10.14
-6.71
-3.64
-1.11
0.66
1.42
1.06
-0.29
-2.29
-4.38
-6.06
-7.01
-7.17
-6.70
-5.88
-5.05
-4.51
-4.54
-5.35
-7.03
-9.49
-12.47
-15.59
-18.60
-21.49
-24.45
-27.70
-31.28
-34.87
-38.04
-40.54
-42.57
-44.78
-47.82
-51.83
-56.04
-58.98
-59.13
-55.59
-48.50
-38.84
-27.85
-16.40
-4.72
7.31
19.65
31.82
42.89
51.86
58.06
61.35
62.12
60.98
58.55
55.34
51.82
48.35
45.32
42.94
41.25
40.10
39.16
38.14
36.82
35.13
33.13
31.00
28.90
26.95
25.17
23.48
21.75
19.83
17.51
14.52
10.56
5.35
-1.10
-8.49
-16.16
-23.31
-29.34
-34.07
-37.78
-40.95
-43.96
-46.82
-49.12
-50.27
-49.71
-47.18
-42.71
-36.62
-29.28
-21.06
-12.21
-2.97
6.30
14.95
21.94
26.08
26.41
22.63
15.26
5.50
-5.33
-16.27
-26.99
-37.60
-48.26
-58.80
-68.76
-77.55
-84.78
-90.21
-93.48
-93.77
-89.81
-80.40
-65.07
-44.69
-21.51
1.46
21.42
36.66
47.08
53.97
59.54
66.06
75.15
87.30
101.73
116.74
130.26
140.59
146.76
148.29
144.93
136.47
123.17
106.39
88.79
73.97
65.12
63.73
68.92
77.91
87.44
95.19
100.33
102.74
101.96
96.37
83.70
62.45
33.44
0.24
-31.93
-58.29
-76.47
-87.21
-93.65
-99.40
-106.62
-115.24
-123.46
-129.12
-130.96
-129.05
-124.32
-117.73
-109.57
-99.54
-87.27
-72.94
-57.56
-42.78
-30.35
-21.52
-16.65
-15.22
-15.96
-17.34
-18.05
-17.31
-14.96
-11.41
-7.26
-3.01
1.09
5.01
8.73
12.10
14.76
16.26
16.25
14.68
11.80
8.09
4.08
0.21
-3.27
-6.27
-8.77
-10.81
-12.40
-13.49
-14.07
-14.08
-13.48
-12.18
-10.16
-7.48
-4.37
-1.09
2.04
4.79
7.03
8.72
9.81
10.25
9.95
8.88
7.04
4.52
1.44
-2.02
-5.60
-9.00
-11.87
-13.91
-14.96
-15.01
-14.22
-12.82
-10.99
-8.84
-6.36
-3.42
0.07
4.14
8.62
13.17
17.23
20.20
21.51
20.84
18.19
13.89
8.58
2.97
-2.25
-6.62
-9.97
-12.31
-13.75
-14.31
-13.88
-12.33
-9.62
-6.03
-2.14
1.24
3.40
3.90
2.72
0.23
-3.08
-6.75
-10.54
-14.34
-18.11
-21.67
-24.75
-27.03
-28.23
-28.29
-27.33
-25.69
-23.72
-21.73
-19.77
-17.73
-15.27
-12.07
-7.93
-2.87
2.78
8.53
13.78
17.97
20.66
21.62
20.93
18.97
16.49
14.32
13.16
13.31
14.47
15.97
17.08
17.46
17.31
17.34
18.29
20.51
23.68
26.92
29.15
29.66
28.38
25.87
23.09
21.01
20.24
20.94
22.76
25.02
26.85
27.47
26.37
23.56
19.53
15.08
11.01
7.71
5.10
2.71
-0.01
-3.34
-7.12
-10.94
-14.34
-17.16
-19.59
-21.95
-24.39
-26.73
-28.35
-28.52
-26.76
-23.11
-18.21
-12.99
-8.37
-4.85
-2.45
-0.80
0.54
1.91
3.31
4.51
5.23
5.23
4.53
3.42
2.37
1.97
2.71
4.85
8.37
12.93
17.95
22.80
26.94
30.03
32.05
33.24
34.10
35.19
37.00
39.75
43.20
46.66
49.05
49.22
46.28
39.90
30.45
19.05
7.26
-3.33
-11.48
-16.62
-18.90
-19.02
-17.92
-16.50
-15.45
-15.22
-16.06
-18.05
-21.08
-24.83
-28.84
-32.64
-35.92
-38.62
-40.95
-43.19
-45.51
-47.87
-50.09
-51.91
-53.19
-53.96
-54.45
-54.90
-55.39
-55.81
-55.72
-54.55
-51.79
-47.25
-41.21
-34.51
-28.24
-23.49
-20.91
-20.51
-21.70
-23.53
-25.05
-25.58
-24.88
-23.05
-20.34
-17.02
-13.21
-8.97
-4.28
0.83
6.34
12.16
18.18
24.18
29.88
34.97
39.15
42.22
44.12
44.93
44.78
43.86
42.34
40.40
38.13
35.62
32.83
29.63
25.84
21.38
16.31
10.93
5.69
0.98
-2.96
-6.18
-8.92
-11.40
-13.56
-15.07
-15.37
-13.97
-10.76
-6.01
-0.40
5.29
10.40
14.54
17.56
19.43
20.13
19.63
17.93
15.11
11.33
6.79
1.68
-3.85
-9.57
-15.14
-20.06
-23.81
-26.01
-26.61
-25.84
-24.15
-22.04
-19.85
-17.80
-15.98
-14.35
-12.81
-11.22
-9.44
-7.40
-5.29
-3.43
-2.29
-2.29
-3.64
-6.25
-9.64
-13.00
-15.31
-15.66
-13.53
-9.08
-3.18
2.82
7.69
10.69
11.87
11.85
11.46
11.35
11.71
12.44
13.35
14.33
15.50
16.98
18.85
21.02
23.35
25.63
27.70
29.44
30.67
31.18
30.76
29.35
27.12
24.48
21.98
20.11
19.09
18.81
18.88
18.84
18.39
17.45
16.27
15.24
14.76
15.09
16.28
18.19
20.49
22.79
24.67
25.75
25.76
24.61
22.42
19.51
16.32
13.21
10.33
7.60
4.86
1.93
-1.20
-4.37
-7.41
-10.19
-12.76
-15.24
-17.86
-20.75
-24.03
-27.79
-32.09
-36.91
-42.12
-47.46
-52.56
-57.01
-60.46
-62.61
-63.20
-61.96
-58.67
-53.29
-46.20
-38.09
-30.05
-23.05
-17.70
-13.98
-11.18
-8.27
-4.28
1.24
8.11
15.69
23.28
30.41
36.99
43.38
50.05
57.47
65.84
75.00
84.40
93.15
100.33
105.13
107.14
106.32
102.92
97.32
89.95
81.34
72.18
63.18
54.73
46.70
38.29
28.50
16.73
3.20
-11.03
-24.59
-36.48
-46.46
-54.99
-62.80
-70.38
-77.76
-84.76
-90.99
-96.06
-99.44
-100.32
-97.74
-90.98
-80.06
-65.92
-50.32
-35.29
-22.50
-12.83
-6.26
-2.05
1.05
4.39
9.16
16.04
24.99
35.15
45.03
52.97
57.69
58.69
56.38
51.75
45.96
39.83
33.74
27.77
21.96
16.36
10.88
5.22
-1.06
-7.95
-14.42
-18.32
-17.16
-9.44
4.13
20.47
35.12
44.03
45.16
38.85
27.02
11.83
-5.15
-22.98
-40.53
-55.92
-66.70
-71.01
-68.77
-62.28
-55.48
-52.11
-53.72
-58.60
-62.31
-59.44
-46.13
-21.77
10.46
44.74
74.62
95.17
104.41
103.44
95.60
84.91
74.54
66.05
59.39
53.62
47.86
41.99
36.58
32.37
29.59
27.69
25.59
22.33
17.68
12.19
6.75
2.01
-1.97
-5.61
-9.43
-13.65
-18.32
-23.36
-28.88
-35.11
-42.23
-50.11
-58.31
-66.27
-73.63
-80.14
-85.54
-89.21
-90.34
-88.23
-82.86
-75.15
-66.67
-58.96
-52.85
-48.18
-44.04
-39.23
-32.80
-24.38
-14.18
-2.79
8.95
20.10
29.79
37.38
42.57
45.45
46.40
45.85
44.23
41.84
38.87
35.48
31.74
27.74
23.55
19.37
15.50
12.30
10.05
8.77
8.19
7.79
6.94
5.12
2.13
-1.90
-6.51
-11.05
-14.80
-17.15
-17.74
-16.57
-13.92
-10.37
-6.62
-3.29
-0.86
0.46
0.67
-0.03
-1.39
-3.11
-5.01
-6.92
-8.72
-10.25
-11.39
-12.05
-12.21
-11.98
-11.55
-11.16
-11.08
-11.50
-12.61
-14.40
-16.73
-19.32
-21.86
-24.13
-26.16
-28.21
-30.71
-34.06
-38.42
-43.58
-49.04
-53.98
-57.45
-58.55
-56.60
-51.38
-43.19
-32.91
-21.76
-10.93
-1.28
6.80
13.33
18.52
22.54
25.51
27.57
28.92
29.93
30.98
32.27
33.75
35.13
36.08
36.37
35.98
35.08
33.91
32.70
31.57
30.61
29.82
29.13
28.38
27.33
25.69
23.26
19.95
15.83
11.11
6.10
1.23
-3.03
-6.22
-7.96
-8.12
-6.80
-4.41
-1.50
1.41
3.93
5.88
7.33
8.39
9.17
9.68
9.82
9.45
8.56
7.24
5.75
4.38
3.34
2.72
2.40
2.21
1.93
1.45
0.72
-0.24
-1.37
-2.58
-3.74
-4.76
-5.54
-6.05
-6.37
-6.68
-7.21
-8.11
-9.34
-10.61
-11.45
-11.34
-9.90
-7.10
-3.26
1.04
5.19
8.75
11.54
13.58
14.99
15.87
16.27
16.23
15.81
15.12
14.30
13.46
12.64
11.88
11.14
10.35
9.43
8.29
6.84
5.04
2.93
0.64
-1.66
-3.84
-5.85
-7.72
-9.59
-11.60
-13.82
-16.24
-18.64
-20.73
-22.15
-22.63
-21.98
-20.19
-17.43
-13.97
-10.15
-6.32
-2.74
0.43
3.13
5.36
7.11
8.34
9.01
9.10
8.71
8.03
7.27
6.67
6.32
6.25
6.40
6.68
7.03
7.38
7.66
7.81
7.74
7.43
6.89
6.17
5.39
4.63
3.92
3.23
2.42
1.39
0.08
-1.41
-2.81
-3.73
-3.76
-2.61
-0.24
3.07
6.83
10.44
13.36
15.29
16.15
16.13
15.51
14.57
13.43
12.13
10.60
8.81
6.73
4.41
1.88
-0.81
-3.58
-6.34
-8.90
-11.04
-12.59
-13.44
-13.65
-13.37
-12.80
-12.12
-11.45
-10.79
-10.13
-9.48
-8.87
-8.37
-8.07
-8.00
-8.08
-8.12
-7.87
-7.15
-5.90
-4.20
-2.35
-0.74
0.27
0.41
-0.35
-1.78
-3.51
-5.11
-6.22
-6.70
-6.52
-5.74
-4.51
-3.00
-1.40
0.10
1.41
2.67
4.25
6.64
10.18
14.87
20.21
25.44
29.74
32.50
33.45
32.56
29.98
25.82
20.24
13.50
6.05
-1.51
-8.51
-14.32
-18.54
-20.98
-21.70
-20.91
-18.92
-15.99
-12.39
-8.35
-4.04
0.32
4.60
8.66
12.44
15.87
18.90
21.47
23.52
25.02
25.94
26.25
25.92
24.89
23.15
20.77
17.89
14.73
11.44
8.13
4.80
1.47
-1.79
-4.83
-7.43
-9.45
-10.91
-12.01
-13.10
-14.47
-16.25
-18.32
-20.30
-21.71
-22.14
-21.41
-19.65
-17.19
-14.47
-11.84
-9.53
-7.64
-6.18
-5.17
-4.66
-4.68
-5.16
-5.94
-6.76
-7.34
-7.46
-7.06
-6.21
-5.07
-3.88
-2.79
-1.92
-1.29
-0.88
-0.61
-0.47
-0.41
-0.45
-0.59
-0.82
-1.14
-1.53
-2.01
-2.63
-3.45
-4.45
-5.57
-6.65
-7.46
-7.77
-7.38
-6.14
-4.08
-1.42
1.51
4.22
6.34
7.67
8.27
8.34
8.15
7.87
7.53
7.10
6.54
5.92
5.35
4.96
4.81
4.84
4.96
5.09
5.19
5.22
5.20
5.07
4.74
4.15
3.29
2.18
0.94
-0.35
-1.66
-3.00
-4.46
-6.11
-7.93
-9.79
-11.41
-12.44
-12.58
-11.68
-9.81
-7.20
-4.24
-1.34
1.21
3.24
4.70
5.64
6.12
6.24
6.14
5.93
5.73
5.63
5.61
5.68
5.77
5.88
6.03
6.27
6.59
6.97
7.28
7.39
7.18
6.64
5.79
4.73
3.53
2.24
0.92
-0.42
-1.79
-3.22
-4.79
-6.55
-8.45
-10.25
-11.57
-12.00
-11.32
-9.55
-7.00
-4.11
-1.35
0.98
2.75
3.95
4.66
4.97
4.96
4.71
4.31
3.84
3.39
3.01
2.74
2.57
2.49
2.49
2.55
2.64
2.73
2.78
2.74
2.56
2.25
1.83
1.30
0.65
-0.17
-1.15
-2.30
-3.55
-4.83
-6.12
-7.40
-8.69
-9.91
-10.88
-11.34
-11.05
-9.95
-8.13
-5.87
-3.50
-1.27
0.71
2.39
3.80
4.86
5.47
5.57
5.18
4.46
3.67
3.02
2.64
2.50
2.51
2.57
2.65
2.76
2.96
3.21
3.44
3.60
3.61
3.48
3.24
2.92
2.44
1.74
0.76
-0.51
-1.97
-3.48
-4.93
-6.30
-7.61
-8.88
-10.03
-10.89
-11.19
-10.69
-9.26
-7.01
-4.23
-1.32
1.35
3.53
5.16
6.30
7.06
7.54
7.77
7.80
7.65
7.38
7.09
6.83
6.59
6.36
6.07
5.73
5.39
5.13
5.00
4.97
5.00
4.99
4.89
4.72
4.52
4.35
4.22
4.04
3.73
3.21
2.46
1.52
0.47
-0.59
-1.52
-2.16
-2.28
-1.63
-0.08
2.31
5.26
8.33
11.12
13.39
15.10
16.38
17.37
18.12
18.47
18.15
16.83
14.25
10.33
5.22
-0.71
-6.91
-12.80
-17.92
-22.00
-25.05
-27.21
-28.70
-29.70
-30.27
-30.38
-29.96
-28.94
-27.32
-25.10
-22.37
-19.24
-15.92
-12.71
-9.99
-8.12
-7.26
-7.27
-7.72
-7.99
-7.51
-5.95
-3.33
0.01
3.55
6.84
9.59
11.71
13.26
14.34
14.98
15.17
14.86
14.08
12.99
11.78
10.67
9.81
9.19
8.74
8.30
7.71
6.86
5.66
4.09
2.19
0.12
-1.93
-3.80
-5.44
-6.88
-8.18
-9.35
-10.39
-11.25
-11.97
-12.65
-13.39
-14.16
-14.71
-14.58
-13.33
-10.73
-6.92
-2.36
2.29
6.48
9.86
12.28
13.71
14.15
13.62
12.18
10.09
7.72
5.51
3.80
2.71
2.15
1.91
1.80
1.78
1.89
2.20
2.68
3.18
3.48
3.39
2.81
1.83
0.60
-0.69
-1.92
-3.10
-4.32
-5.69
-7.28
-9.06
-10.88
-12.46
-13.50
-13.75
-13.09
-11.59
-9.48
-7.07
-4.66
-2.48
-0.60
1.02
2.50
3.88
5.16
6.24
6.98
7.28
7.12
6.56
5.68
4.61
3.47
2.37
1.43
0.76
0.37
0.24
0.24
0.23
0.12
-0.10
-0.36
-0.57
-0.65
-0.59
-0.40
-0.15
0.07
0.17
-0.02
-0.59
-1.59
-2.92
-4.34
-5.51
-6.11
-5.91
-4.85
-3.02
-0.67
1.86
4.24
6.21
7.63
8.49
8.90
8.96
8.79
8.41
7.80
6.96
5.95
4.89
3.96
3.32
3.03
3.08
3.33
3.62
3.81
3.86
3.74
3.49
3.11
2.52
1.67
0.54
-0.75
-2.05
-3.16
-4.05
-4.83
-5.71
-6.92
-8.49
-10.23
-11.74
-12.56
-12.38
-11.15
-9.08
-6.55
-3.94
-1.54
0.54
2.30
3.79
5.04
6.05
6.75
7.10
7.05
6.66
6.03
5.34
4.75
4.39
4.31
4.46
4.69
4.88
4.92
4.78
4.46
3.96
3.27
2.41
1.40
0.36
-0.58
-1.31
-1.77
-2.08
-2.39
-2.92
-3.76
-4.89
-6.08
-7.04
-7.44
-7.09
-5.99
-4.31
-2.29
-0.17
1.91
3.85
5.56
6.95
7.87
8.28
8.23
7.88
7.44
7.08
6.87
6.77
6.70
6.62
6.52
6.43
6.38
6.38
6.42
6.49
6.57
6.63
6.66
6.65
6.63
6.57
6.37
5.87
4.85
3.13
0.73
-2.15
-5.12
-7.77
-9.77
-10.97
-11.37
-11.07
-10.20
-8.83
-7.05
-4.94
-2.65
-0.37
1.70
3.34
4.37
4.77
4.57
3.92
3.01
1.98
0.96
-0.01
-0.85
-1.47
-1.80
-1.82
-1.61
-1.37
-1.26
-1.40
-1.73
-2.11
-2.41
-2.58
-2.71
-2.94
-3.38
-4.04
-4.85
-5.73
-6.59
-7.40
-8.11
-8.62
-8.81
-8.56
-7.78
-6.46
-4.65
-2.45
0.03
2.65
5.21
7.54
9.42
10.70
11.32
11.27
10.66
9.63
8.38
7.12
6.01
5.19
4.68
4.46
4.42
4.44
4.39
4.16
3.69
2.94
1.97
0.84
-0.37
-1.63
-2.92
-4.21
-5.45
-6.59
-7.60
-8.53
-9.48
-10.54
-11.69
-12.78
-13.51
-13.56
-12.73
-10.97
-8.50
-5.63
-2.75
-0.15
1.98
3.56
4.62
5.26
5.55
5.61
5.51
5.33
5.08
4.78
4.39
3.88
3.27
2.64
2.06
1.62
1.33
1.16
1.03
0.89
0.72
0.53
0.32
0.04
-0.35
-0.90
-1.61
-2.46
-3.39
-4.38
-5.37
-6.28
-6.96
-7.18
-6.73
-5.50
-3.55
-1.08
1.57
4.08
6.21
7.90
9.16
10.07
10.66
10.93
10.84
10.38
9.60
8.63
7.64
6.80
6.21
5.86
5.65
5.44
5.11
4.60
3.95
3.22
2.47
1.69
0.83
-0.14
-1.18
-2.23
-3.16
-3.90
-4.48
-5.02
-5.67
-6.47
-7.36
-8.07
-8.30
-7.75
-6.30
-4.06
-1.30
1.61
4.35
6.68
8.49
9.72
10.40
10.58
10.36
9.89
9.28
8.63
7.97
7.28
6.57
5.84
5.16
4.51
3.82
2.99
1.94
0.71
-0.49
-1.34
-1.52
-0.88
0.53
2.49
4.71
6.93
9.07
11.11
13.14
15.26
17.56
20.10
22.97
26.30
30.17
34.52
39.10
43.46
47.08
49.59
50.89
51.27
51.25
51.36
51.95
52.98
54.08
54.62
53.88
51.16
45.84
37.49
25.99
11.74
-4.29
-20.59
-35.47
-47.45
-55.74
-60.37
-62.08
-61.99
-61.10
-60.08
-59.17
-58.35
-57.56
-56.84
-56.29
-55.98
-55.85
-55.62
-54.95
-53.49
-51.07
-47.73
-43.64
-39.11
-34.42
-29.84
-25.58
-21.81
-18.61
-16.01
-13.92
-12.20
-10.69
-9.27
-7.91
-6.57
-5.26
-3.97
-2.74
-1.61
-0.65
0.04
0.49
0.78
1.09
1.59
2.39
3.48
4.76
6.10
7.34
8.34
8.95
9.10
8.77
8.06
7.13
6.16
5.20
4.20
3.04
1.65
0.12
-1.27
-2.14
-2.15
-1.13
0.84
3.44
6.32
9.15
11.69
13.80
15.37
16.24
16.33
15.63
14.28
12.55
10.74
9.03
7.50
6.08
4.69
3.32
2.09
1.12
0.53
0.28
0.23
0.22
0.16
0.02
-0.18
-0.48
-0.97
-1.74
-2.85
-4.26
-5.81
-7.35
-8.78
-10.03
-11.11
-11.95
-12.41
-12.32
-11.61
-10.32
-8.68
-6.96
-5.37
-4.00
-2.81
-1.71
-0.67
0.26
1.00
1.48
1.68
1.63
1.41
1.10
0.76
0.44
0.19
0.01
-0.13
-0.24
-0.31
-0.28
-0.07
0.35
0.92
1.49
1.89
1.97
1.72
1.23
0.66
0.14
-0.28
-0.66
-1.14
-1.85
-2.85
-4.08
-5.34
-6.40
-7.03
-7.09
-6.58
-5.59
-4.33
-2.99
-1.74
-0.69
0.12
0.66
0.96
0.98
0.69
0.02
-1.09
-2.62
-4.43
-6.24
-7.76
-8.72
-9.02
-8.81
-8.37
-8.05
-8.08
-8.48
-9.08
-9.60
-9.86
-9.85
-9.78
-10.03
-11.02
-12.97
-15.83
-19.26
-22.71
-25.62
-27.67
-28.85
-29.43
-29.85
-30.44
-31.32
-32.32
-32.97
-32.53
-29.98
-24.31
-14.84
-1.93
12.79
26.58
36.42
40.14
37.33
29.44
19.07
8.85
0.50
-5.46
-9.29
-11.38
-11.89
-10.70
-7.90
-3.97
0.06
3.11
4.39
3.82
1.95
-0.27
-1.86
-2.19
-1.12
0.94
3.29
5.19
6.26
6.66
7.14
8.71
12.24
18.04
25.67
34.10
42.10
48.69
53.39
56.29
57.78
58.31
58.12
57.33
56.02
54.46
53.16
52.71
53.51
55.44
57.84
59.71
60.12
58.73
55.96
52.83
50.52
49.84
50.96
53.45
56.67
60.09
63.57
67.27
71.41
75.96
80.58
84.67
87.47
88.33
86.81
82.74
76.25
67.76
57.90
47.47
37.31
28.23
20.93
15.84
12.97
11.92
11.83
11.67
10.49
7.71
3.22
-2.70
-9.57
-16.86
-24.15
-31.11
-37.55
-43.46
-49.03
-54.58
-60.38
-66.35
-71.98
-76.45
-79.01
-79.38
-77.92
-75.52
-73.30
-72.19
-72.65
-74.62
-77.66
-81.11
-84.33
-86.78
-88.07
-87.90
-86.07
-82.44
-77.01
-69.92
-61.50
-52.19
-42.44
-32.56
-22.72
-13.03
-3.66
5.01
12.51
18.38
22.30
24.33
24.85
24.53
24.12
24.19
24.89
25.90
26.63
26.45
25.11
22.91
20.56
18.84
18.20
18.53
19.30
19.79
19.47
18.10
15.70
12.28
7.80
2.18
-4.48
-11.67
-18.47
-23.73
-26.39
-25.92
-22.54
-17.38
-12.28
-9.33
-10.18
-15.39
-24.04
-33.81
-41.80
-45.58
-44.11
-38.20
-30.05
-22.25
-16.78
-14.36
-14.37
-15.32
-15.58
-13.94
-10.04
-4.32
2.21
8.33
13.11
16.29
18.25
19.75
21.50
23.81
26.54
29.30
31.75
33.84
35.75
37.55
39.08
39.86
39.37
37.46
34.56
31.56
29.38
28.36
28.05
27.39
25.35
21.53
16.44
11.17
6.74
3.54
1.20
-1.08
-3.85
-7.06
-10.17
-12.43
-13.38
-12.94
-11.39
-9.09
-6.36
-3.52
-0.97
0.67
0.71
-1.41
-5.85
-12.21
-19.52
-26.47
-31.60
-33.73
-32.32
-27.65
-20.92
-13.85
-8.16
-4.95
-4.36
-5.56
-7.23
-8.19
-7.84
-6.31
-4.21
-1.98
0.33
3.12
6.84
11.50
16.44
20.57
22.83
22.70
20.36
16.57
12.22
8.00
4.21
0.84
-2.20
-4.86
-6.89
-7.95
-7.90
-7.00
-5.98
-5.95
-7.95
-12.54
-19.35
-27.12
-33.91
-37.57
-36.45
-29.96
-18.98
-5.63
7.34
17.55
23.81
26.47
27.11
27.71
29.66
33.18
37.24
40.17
40.53
37.93
33.23
28.13
24.38
22.86
23.22
24.09
23.83
21.30
16.56
10.60
4.86
0.38
-2.55
-4.35
-5.82
-7.65
-10.25
-13.71
-17.94
-22.82
-28.26
-34.05
-39.75
-44.77
-48.54
-50.79
-51.69
-51.86
-52.14
-53.28
-55.81
-59.96
-65.71
-72.66
-80.01
-86.71
-91.71
-94.29
-94.39
-92.51
-89.39
-85.55
-80.92
-74.96
-67.14
-57.48
-46.82
-36.74
-29.00
-24.87
-24.58
-27.13
-30.66
-33.08
-32.73
-28.99
-22.27
-13.77
-4.87
3.19
9.52
13.59
15.26
14.77
12.76
10.27
8.43
8.11
9.50
12.01
14.49
15.73
15.08
12.70
9.47
6.47
4.40
3.30
2.63
1.86
0.93
0.35
0.90
3.12
6.82
11.05
14.60
16.51
16.53
15.07
13.00
11.18
10.14
9.97
10.36
10.82
10.92
10.49
9.64
8.60
7.60
6.68
5.70
4.48
3.06
1.72
0.92
1.00
1.86
2.91
3.31
2.43
0.21
-2.71
-5.40
-6.93
-6.95
-5.62
-3.47
-0.89
2.02
5.46
9.60
14.38
19.35
23.91
27.58
30.19
31.91
32.98
33.57
33.64
33.07
31.75
29.78
27.46
25.08
22.75
20.24
17.03
12.54
6.42
-1.20
-9.68
-18.01
-25.25
-30.79
-34.58
-37.01
-38.68
-40.09
-41.43
-42.65
-43.48
-43.61
-42.76
-40.76
-37.55
-33.22
-28.04
-22.38
-16.72
-11.43
-6.71
-2.59
1.07
4.46
7.71
10.85
13.82
16.41
18.35
19.35
19.15
17.66
15.03
11.69
8.21
5.07
2.55
0.50
-1.48
-3.89
-7.02
-10.80
-14.90
-18.98
-22.93
-27.05
-31.86
-37.80
-44.86
-52.45
-59.60
-65.39
-69.27
-71.25
-71.79
-71.59
-71.39
-71.62
-72.21
-72.33
-70.38
-64.18
-51.68
-31.72
-4.72
27.02
59.62
88.60
110.16
122.35
125.65
122.51
116.14
109.03
102.12
94.84
86.02
74.83
61.27
45.92
29.40
11.97
-6.13
-24.20
-40.76
-54.08
-62.90
-67.08
-67.51
-65.48
-61.99
-57.64
-52.92
-48.75
-46.62
-48.16
-54.29
-64.79
-78.20
-92.35
-105.02
-114.43
-119.54
-120.17
-117.04
-111.69
-106.19
-102.41
-101.38
-102.97
-106.02
-108.78
-109.23
-105.43
-95.56
-78.30
-53.23
-21.41
14.37
50.08
81.42
105.19
120.12
126.98
127.88
125.26
121.05
116.38
111.80
107.52
103.68
100.20
96.79
92.89
87.87
81.35
73.33
64.30
55.08
46.60
39.62
34.57
31.51
30.24
30.42
31.69
33.67
35.97
38.16
39.85
40.72
