1533139069.00
64.000000
-0.00
-0.00
-0.00
-0.00
-0.00
-0.00
-0.00
-0.00
-0.00
-0.00
0.00
0.01
0.01
-0.00
-0.03
-0.05
-0.05
0.00
0.13
0.36
0.66
1.01
1.37
1.72
2.05
2.39
2.79
3.26
3.85
4.49
5.12
5.66
6.07
6.39
6.69
7.09
7.67
8.53
9.56
10.64
11.60
12.37
13.01
13.73
14.77
16.33
18.61
21.38
24.30
26.99
29.27
31.25
33.33
36.08
39.89
45.13
51.33
57.78
63.73
68.74
72.99
77.19
82.35
89.23
98.34
108.95
119.85
129.78
138.00
144.72
151.02
158.81
167.21
178.50
192.91
209.85
227.50
242.64
251.16
249.03
233.69
204.83
165.01
117.81
66.96
14.92
-37.59
-91.05
-145.92
-201.29
-254.37
-300.62
-335.75
-356.85
-363.56
-358.15
-344.53
-326.70
-307.37
-287.62
-267.18
-245.76
-223.75
-202.27
-182.55
-165.07
-149.33
-134.12
-118.42
-101.94
-85.47
-70.36
-57.78
-48.06
-40.64
-34.29
-27.79
-20.46
-12.39
-4.32
2.77
8.14
11.54
13.28
14.02
14.49
15.21
16.41
18.03
19.84
21.56
23.01
24.09
24.76
25.04
24.97
24.60
24.02
23.34
22.64
21.97
21.34
20.72
20.08
19.38
18.65
17.89
17.16
16.46
15.82
15.18
14.51
13.76
12.91
11.97
11.04
10.23
9.67
9.42
9.48
9.78
10.19
10.60
10.92
11.11
11.14
11.01
10.72
10.31
9.80
9.29
8.84
8.53
8.33
8.21
8.08
7.87
7.61
7.34
7.12
6.99
6.93
6.87
6.77
6.63
6.46
6.26
6.01
5.65
5.13
4.48
3.79
3.17
2.73
2.52
2.50
2.62
2.79
2.97
3.12
3.22
3.31
3.39
3.49
3.63
3.80
3.95
4.04
4.01
3.83
3.48
2.99
2.45
1.99
1.70
1.64
1.76
1.95
2.04
1.97
1.74
1.44
1.21
1.09
1.08
1.11
1.10
1.07
1.06
1.14
1.34
1.62
1.86
1.96
1.83
1.49
1.02
0.57
0.27
0.17
0.28
0.50
0.76
0.96
1.10
1.17
1.19
1.15
1.05
0.87
0.64
0.42
0.29
0.30
0.44
0.66
0.92
1.16
1.36
1.52
1.66
1.76
1.81
1.80
1.71
1.59
1.48
1.43
1.43
1.48
1.51
1.49
1.43
1.35
1.32
1.38
1.57
1.84
2.09
2.20
2.12
1.88
1.56
1.28
1.11
1.07
1.09
1.10
1.09
1.08
1.10
1.19
1.30
1.38
1.36
1.21
0.95
0.66
0.39
0.21
0.14
0.21
0.38
0.58
0.73
0.73
0.54
0.18
-0.26
-0.65
-0.93
-1.07
-1.10
-1.08
-1.00
-0.86
-0.62
-0.26
0.17
0.59
0.89
0.99
0.86
0.55
0.16
-0.18
-0.38
-0.43
-0.34
-0.17
0.07
0.34
0.68
1.05
1.41
1.67
1.75
1.62
1.34
1.05
0.88
0.90
1.07
1.31
1.50
1.56
1.52
1.47
1.47
1.56
1.68
1.75
1.69
1.50
1.23
0.96
0.77
0.67
0.62
0.54
0.37
0.09
-0.23
-0.48
-0.55
-0.37
0.02
0.47
0.83
0.94
0.80
0.48
0.19
0.07
0.22
0.57
0.97
1.24
1.28
1.11
0.83
0.62
0.54
0.64
0.87
1.18
1.52
1.89
2.26
2.56
2.70
2.62
2.32
1.89
1.44
1.09
0.89
0.80
0.75
0.67
0.52
0.29
0.00
-0.29
-0.57
-0.79
-0.92
-0.96
-0.88
-0.71
-0.49
-0.25
-0.06
0.06
0.10
0.07
0.02
-0.03
-0.02
0.06
0.18
0.30
0.36
0.36
0.34
0.35
0.41
0.48
0.48
0.33
0.05
-0.27
-0.49
-0.49
-0.31
-0.06
0.12
0.14
0.04
-0.08
-0.11
-0.04
0.08
0.17
0.17
0.11
0.04
0.01
0.03
0.03
-0.02
-0.13
-0.25
-0.28
-0.18
-0.00
0.13
0.12
-0.07
-0.33
-0.50
-0.45
-0.16
0.25
0.61
0.76
0.64
0.32
-0.06
-0.35
-0.48
-0.41
-0.20
0.10
0.41
0.65
0.80
0.84
0.80
0.75
0.73
0.77
0.86
0.97
1.06
1.11
1.08
0.98
0.82
0.58
0.29
-0.02
-0.29
-0.45
-0.46
-0.32
-0.11
0.10
0.22
0.21
0.09
-0.04
-0.10
-0.01
0.18
0.36
0.39
0.16
-0.28
-0.80
-1.17
-1.26
-1.05
-0.66
-0.31
-0.14
-0.18
-0.33
-0.44
-0.42
-0.26
-0.05
0.13
0.23
0.26
0.28
0.31
0.38
0.48
0.57
0.64
0.68
0.69
0.68
0.66
0.63
0.58
0.49
0.36
0.17
-0.06
-0.29
-0.49
-0.63
-0.69
-0.66
-0.54
-0.33
-0.04
0.30
0.62
0.80
0.77
0.55
0.24
-0.02
-0.11
-0.03
0.14
0.27
0.28
0.18
0.04
-0.06
-0.08
-0.08
-0.12
-0.24
-0.44
-0.62
-0.71
-0.65
-0.46
-0.22
0.00
0.14
0.21
0.25
0.27
0.27
0.20
0.01
-0.28
-0.57
-0.72
-0.64
-0.37
-0.03
0.21
0.23
0.04
-0.27
-0.60
-0.89
-1.13
-1.34
-1.51
-1.62
-1.65
-1.58
-1.44
-1.27
-1.06
-0.80
-0.44
0.01
0.49
0.89
1.11
1.14
1.04
0.94
0.91
1.00
1.16
1.29
1.34
1.25
1.07
0.84
0.64
0.50
0.42
0.35
0.26
0.13
-0.06
-0.26
-0.44
-0.54
-0.53
-0.39
-0.13
0.20
0.55
0.88
1.19
1.45
1.66
1.78
1.76
1.60
1.30
0.95
0.63
0.42
0.32
0.30
0.33
0.35
0.36
0.33
0.24
0.06
-0.19
-0.46
-0.67
-0.73
-0.66
-0.50
-0.32
-0.17
-0.03
0.15
0.42
0.80
1.26
1.73
2.15
2.43
2.54
2.45
2.17
1.76
1.31
0.90
0.55
0.21
-0.19
-0.70
-1.31
-1.88
-2.30
-2.48
-2.45
-2.32
-2.21
-2.20
-2.28
-2.40
-2.46
-2.40
-2.21
-1.88
-1.44
-0.96
-0.47
-0.03
0.32
0.53
0.62
0.59
0.49
0.41
0.40
0.50
0.72
1.02
1.36
1.70
2.03
2.33
2.57
2.68
2.59
2.25
1.69
1.01
0.36
-0.17
-0.53
-0.78
-0.99
-1.22
-1.47
-1.69
-1.82
-1.83
-1.75
-1.61
-1.48
-1.35
-1.24
-1.12
-1.03
-0.95
-0.91
-0.86
-0.76
-0.57
-0.28
0.05
0.36
0.59
0.74
0.85
0.95
1.11
1.32
1.59
1.89
2.16
2.33
2.30
2.03
1.54
0.94
0.35
-0.11
-0.40
-0.57
-0.69
-0.82
-0.93
-0.98
-0.91
-0.73
-0.50
-0.29
-0.14
-0.06
-0.05
-0.08
-0.13
-0.18
-0.22
-0.23
-0.24
-0.30
-0.43
-0.63
-0.83
-0.92
-0.81
-0.49
-0.05
0.41
0.76
0.91
0.88
0.70
0.45
0.20
0.00
-0.11
-0.16
-0.15
-0.12
-0.08
0.01
0.13
0.25
0.34
0.34
0.25
0.07
-0.13
-0.32
-0.44
-0.48
-0.41
-0.21
0.10
0.45
0.71
0.77
0.60
0.28
-0.04
-0.22
-0.25
-0.19
-0.18
-0.28
-0.46
-0.56
-0.47
-0.16
0.27
0.66
0.86
0.86
0.71
0.53
0.38
0.29
0.26
0.28
0.35
0.47
0.63
0.77
0.86
0.87
0.85
0.85
0.90
0.99
1.05
1.04
0.94
0.79
0.66
0.60
0.63
0.75
0.90
1.04
1.17
1.29
1.46
1.69
1.97
2.25
2.46
2.53
2.47
2.34
2.24
2.26
2.43
2.71
3.01
3.23
3.36
3.43
3.53
3.70
3.91
4.05
4.00
3.71
3.22
2.68
2.23
1.97
1.91
1.98
2.15
2.37
2.65
2.96
3.20
3.23
2.90
2.17
1.13
-0.05
-1.15
-2.01
-2.55
-2.75
-2.60
-2.16
-1.56
-1.05
-0.98
-1.72
-3.44
-6.03
-9.10
-12.05
-14.35
-15.65
-15.89
-15.19
-13.81
-11.96
-9.85
-7.67
-5.63
-3.90
-2.59
-1.69
-1.07
-0.53
0.08
0.79
1.58
2.36
3.08
3.71
4.22
4.57
4.72
4.62
4.31
3.92
3.63
3.53
3.66
3.92
4.19
4.38
4.50
4.57
4.56
4.34
3.62
2.20
0.07
-2.55
-5.20
-7.44
-9.00
-9.91
-10.41
-10.82
-11.29
-11.78
-12.10
-12.07
-11.65
-11.00
-10.39
-10.10
-10.24
-10.76
-11.49
-12.20
-12.75
-13.12
-13.40
-13.68
-13.98
-14.17
-13.96
-13.05
-11.30
-8.78
-5.84
-2.97
-0.59
1.09
2.17
2.94
3.74
4.75
5.95
7.20
8.43
9.69
11.19
13.11
15.49
18.12
20.65
22.78
24.40
25.63
26.66
27.62
28.47
29.05
29.21
28.98
28.63
28.52
28.94
29.94
31.27
32.48
33.05
32.49
30.49
26.98
22.19
16.64
11.05
6.10
2.30
-0.20
-1.53
-1.98
-1.80
-1.12
-0.02
1.45
3.09
4.59
5.55
5.55
4.17
1.10
-3.80
-10.32
-17.85
-25.43
-32.05
-36.99
-40.08
-41.72
-42.63
-43.41
-44.35
-45.31
-46.03
-46.32
-46.30
-46.23
-46.37
-46.69
-46.77
-45.96
-43.56
-39.21
-32.98
-25.45
-17.50
-10.01
-3.64
1.40
5.27
8.41
11.22
13.90
16.37
18.33
19.55
19.94
19.66
19.02
18.23
17.38
16.36
15.01
13.30
11.36
9.44
7.83
6.67
5.96
5.51
5.08
4.48
3.64
2.63
1.62
0.83
0.43
0.52
1.03
1.82
2.69
3.49
4.19
4.83
5.49
6.19
6.86
7.38
7.66
7.70
7.63
7.62
7.82
8.24
8.80
9.34
9.73
9.94
10.00
9.99
10.00
10.07
10.24
10.55
11.02
11.64
12.33
12.94
13.32
13.32
12.93
12.26
11.52
10.92
10.56
10.34
10.00
9.20
7.66
5.33
2.41
-0.65
-3.40
-5.45
-6.69
-7.24
-7.36
-7.27
-7.10
-6.82
-6.37
-5.72
-4.94
-4.14
-3.46
-2.97
-2.70
-2.60
-2.65
-2.79
-2.97
-3.07
-3.02
-2.84
-2.68
-2.87
-3.74
-5.48
-8.05
-11.12
-14.15
-16.62
-18.10
-18.42
-17.62
-15.86
-13.32
-10.13
-6.39
-2.25
2.05
6.18
9.82
12.76
15.00
16.68
17.95
18.80
19.03
18.31
16.42
13.43
9.76
6.06
2.92
0.70
-0.59
-1.21
-1.48
-1.66
-1.83
-1.98
-2.05
-2.03
-2.02
-2.17
-2.59
-3.29
-4.20
-5.12
-5.83
-6.22
-6.31
-6.22
-6.13
-6.12
-6.22
-6.35
-6.49
-6.60
-6.70
-6.73
-6.54
-5.96
-4.88
-3.40
-1.83
-0.52
0.28
0.52
0.38
0.11
-0.07
-0.11
-0.06
0.04
0.18
0.37
0.61
0.86
1.03
1.05
0.94
0.76
0.62
0.58
0.62
0.67
0.69
0.63
0.48
0.27
0.00
-0.26
-0.46
-0.53
-0.47
-0.32
-0.16
-0.11
-0.18
-0.33
-0.44
-0.41
-0.22
0.02
0.16
0.08
-0.22
-0.60
-0.86
-0.86
-0.60
-0.18
0.23
0.51
0.64
0.69
0.70
0.65
0.49
0.14
-0.37
-0.91
-1.30
-1.41
-1.24
-0.86
-0.43
-0.06
0.22
0.38
0.45
0.43
0.35
0.22
0.12
0.09
0.16
0.30
0.42
0.46
0.36
0.15
-0.09
-0.24
-0.22
-0.02
0.30
0.61
0.80
0.78
0.59
0.30
0.02
-0.18
-0.26
-0.22
-0.12
-0.01
0.04
0.03
-0.04
-0.10
-0.09
0.01
0.13
0.17
0.03
-0.35
-0.87
-1.36
-1.66
-1.68
-1.45
-1.14
-0.90
-0.83
-0.94
-1.15
-1.34
-1.42
-1.34
-1.05
-0.58
0.04
0.71
1.26
1.57
1.56
1.28
0.88
0.53
0.36
0.41
0.65
0.95
1.19
1.27
1.18
0.92
0.57
0.23
0.02
-0.00
0.18
0.51
0.84
1.08
1.13
1.01
0.80
0.56
0.38
0.30
0.29
0.34
0.38
0.39
0.34
0.23
0.06
-0.15
-0.35
-0.46
-0.45
-0.31
-0.09
0.09
0.15
0.06
-0.10
-0.25
-0.29
-0.21
-0.04
0.14
0.28
0.40
0.55
0.78
1.05
1.28
1.32
1.09
0.60
-0.04
-0.65
-1.09
-1.27
-1.23
-1.11
-1.05
-1.15
-1.43
-1.80
-2.12
-2.29
-2.31
-2.26
-2.29
-2.50
-2.89
-3.38
-3.82
-4.11
-4.21
-4.20
-4.19
-4.29
-4.54
-4.99
-5.68
-6.65
-7.85
-9.01
-9.59
-8.97
-6.67
-2.73
2.24
7.22
11.17
13.40
13.82
12.82
11.01
8.93
6.90
5.04
3.42
2.14
1.32
1.04
1.19
1.43
1.41
0.79
-0.52
-2.33
-4.30
-5.95
-6.90
-6.95
-6.11
-4.61
-2.82
-1.17
0.02
0.61
0.72
0.64
0.70
1.08
1.73
2.40
2.79
2.73
2.28
1.68
1.19
1.04
1.28
1.85
2.65
3.56
4.47
5.31
5.96
6.32
6.36
6.15
5.86
5.68
5.74
6.00
6.32
6.46
6.29
5.78
5.06
4.33
3.72
3.24
2.78
2.13
1.18
-0.09
-1.57
-3.04
-4.30
-5.20
-5.68
-5.76
-5.52
-5.05
-4.49
-3.91
-3.37
-2.91
-2.52
-2.18
-1.88
-1.57
-1.24
-0.89
-0.50
-0.08
0.34
0.71
1.02
1.25
1.44
1.64
1.91
2.26
2.63
2.92
3.04
2.96
2.72
2.45
2.28
2.31
2.57
3.02
3.56
4.13
4.66
5.14
5.55
5.91
6.17
6.31
6.26
6.02
5.63
5.15
4.57
3.89
3.01
1.89
0.56
-0.80
-1.96
-2.69
-2.92
-2.71
-2.27
-1.83
-1.54
-1.42
-1.40
-1.35
-1.14
-0.73
-0.15
0.51
1.11
1.51
1.59
1.28
0.56
-0.49
-1.74
-3.00
-4.09
-4.90
-5.41
-5.67
-5.79
-5.84
-5.84
-5.75
-5.55
-5.26
-4.95
-4.67
-4.39
-4.09
-3.68
-3.20
-2.72
-2.39
-2.30
-2.42
-2.60
-2.67
-2.51
-2.12
-1.64
-1.23
-1.03
-1.09
-1.40
-1.88
-2.48
-3.13
-3.79
-4.42
-4.97
-5.39
-5.62
-5.59
-5.29
-4.75
-4.12
-3.66
-3.64
-4.20
-5.30
-6.64
-7.81
-8.46
-8.48
-8.08
-7.71
-7.78
-8.57
-10.07
-12.04
-14.05
-15.57
-16.08
-15.24
-13.03
-9.86
-6.50
-3.79
-2.33
-2.22
-3.06
-4.22
-5.21
-5.97
-6.84
-8.41
-11.17
-15.36
-20.79
-26.85
-32.46
-36.25
-36.94
-33.77
-26.96
-17.63
-7.53
1.71
9.05
14.30
17.90
20.41
22.19
23.29
23.64
23.27
22.45
21.62
21.12
21.06
21.25
21.37
21.11
20.38
19.31
18.24
17.52
17.35
17.67
18.19
18.54
18.43
17.83
16.95
16.14
15.70
15.75
16.15
16.59
16.71
16.33
15.45
14.28
13.15
12.28
11.75
11.46
11.24
10.99
10.81
10.91
11.62
13.16
15.55
18.60
21.93
25.19
28.21
31.10
34.25
38.16
43.24
49.60
56.98
64.78
72.31
79.11
85.13
90.87
97.14
104.74
114.06
124.79
136.11
146.96
156.65
165.17
173.25
182.12
193.07
206.99
223.95
242.88
261.39
276.06
283.12
279.57
264.18
237.97
203.85
165.46
125.83
86.46
47.06
6.29
-37.13
-83.11
-129.68
-173.09
-208.89
-233.33
-244.54
-242.99
-231.21
-212.88
-191.90
-171.71
-154.98
-143.46
-137.74
-137.15
-139.76
-142.88
-143.95
-141.40
-134.97
-125.54
-114.44
-103.13
-93.23
-86.62
-85.25
-90.39
-101.72
-116.86
-132.04
-143.59
-149.53
-150.41
-148.76
-147.61
-148.84
-152.42
-156.78
-160.03
-161.13
-160.40
-159.04
-158.25
-158.43
-159.12
-159.38
-158.57
-156.86
-155.18
-154.84
-156.88
-161.71
-169.06
-178.38
-189.09
-200.58
-211.81
-220.87
-224.96
-220.93
-206.31
-180.15
-143.37
-98.45
-48.72
2.26
51.10
94.86
131.19
158.60
176.71
186.27
188.86
186.35
180.41
172.41
163.47
154.59
146.59
139.80
133.86
127.85
120.84
112.49
103.53
95.52
90.21
88.62
90.53
94.43
98.25
100.18
99.36
96.07
91.28
85.96
80.57
74.91
68.50
61.00
52.69
44.40
37.18
31.82
28.53
26.78
25.46
23.25
18.91
11.68
1.54
-10.56
-22.61
-31.99
-36.20
-33.86
-25.44
-13.20
-0.45
9.69
15.36
16.39
13.89
9.40
4.20
-0.82
-4.98
-7.42
-7.21
-3.72
2.85
11.33
19.94
26.98
31.47
33.36
33.37
32.45
31.40
30.62
30.19
29.96
29.72
29.29
28.55
27.47
26.17
24.82
23.59
22.60
21.86
21.29
20.72
19.96
18.82
17.05
14.41
10.69
5.84
0.05
-6.26
-12.53
-18.22
-22.94
-26.56
-29.17
-30.97
-32.14
-32.86
-33.24
-33.47
-33.77
-34.36
-35.41
-36.90
-38.71
-40.63
-42.50
-44.25
-45.92
-47.57
-49.27
-51.07
-52.99
-55.09
-57.46
-60.09
-62.83
-65.28
-66.80
-66.62
-64.02
-58.52
-49.98
-38.69
-25.27
-10.61
4.22
18.12
30.08
39.40
45.80
49.50
51.16
51.67
51.81
52.05
52.41
52.59
52.19
50.95
48.84
46.07
42.92
39.63
36.30
33.02
29.89
27.13
25.03
23.80
23.41
23.56
23.81
23.69
23.00
21.81
20.42
19.19
18.36
17.94
17.72
17.43
16.87
16.04
15.14
14.45
14.19
14.40
15.00
15.83
16.82
18.13
20.00
22.64
26.01
29.80
33.55
36.90
39.78
42.48
45.49
49.24
53.94
59.46
65.45
71.56
77.60
83.69
90.19
97.55
106.06
115.70
126.03
136.43
146.36
155.65
164.62
173.95
184.35
196.35
210.14
225.50
241.75
257.54
270.76
278.71
278.61
268.50
247.80
217.55
179.92
137.46
92.32
46.06
-0.19
-45.44
-88.70
-129.49
-168.46
-207.65
-250.13
-298.46
-352.94
-410.58
-465.44
-510.10
-538.04
-545.59
-532.70
-502.57
-460.44
-412.15
-363.10
-317.24
-276.35
-239.57
-203.74
-164.80
-119.97
-69.59
-17.69
29.45
65.97
88.92
99.12
100.30
96.96
92.44
88.23
84.47
81.06
78.51
77.76
79.40
83.06
87.25
89.98
89.78
86.31
80.54
74.29
69.33
66.70
66.34
67.29
68.18
67.93
66.16
63.28
60.23
57.98
57.08
57.43
58.36
58.94
58.33
56.11
52.33
47.41
41.86
36.00
29.84
22.99
15.00
5.58
-5.05
-16.11
-26.44
-34.88
-40.70
-43.82
-44.77
-44.40
-43.46
-42.39
-41.24
-39.89
-38.23
-36.29
-34.21
-32.18
-30.25
-28.34
-26.35
-24.21
-22.02
-19.94
-18.18
-16.86
-15.94
-15.26
-14.62
-13.91
-13.13
-12.37
-11.74
-11.28
-10.94
-10.57
-10.00
-9.15
-8.04
-6.84
-5.77
-5.05
-4.76
-4.85
-5.12
-5.36
-5.40
-5.23
-4.97
-4.81
-4.93
-5.37
-6.09
-6.95
-7.78
-8.49
-9.01
-9.40
-9.72
-10.04
-10.34
-10.48
-10.22
-9.30
-7.66
-5.44
-3.05
-1.00
0.29
0.65
0.23
-0.60
-1.43
-2.00
-2.30
-2.56
-3.08
-4.10
-5.68
-7.74
-10.10
-12.51
-14.54
-15.59
-15.00
-12.42
-8.05
-2.85
1.78
4.54
4.87
3.17
0.53
-1.85
-3.34
-4.13
-5.03
-6.95
-10.45
-15.50
-21.59
-28.05
-34.31
-40.12
-45.58
-51.05
-57.01
-63.74
-71.19
-79.01
-86.75
-94.23
-101.62
-109.18
-116.77
-123.44
-127.42
-126.57
-119.00
-103.47
-79.32
-46.33
-4.83
43.77
96.47
148.66
195.03
231.14
254.60
265.37
264.87
254.77
236.20
209.95
177.29
140.58
103.24
68.76
39.61
16.65
-0.78
-14.07
-24.62
-33.36
-40.79
-47.04
-52.21
-56.36
-59.61
-62.20
-64.41
-66.51
-68.60
-70.69
-72.56
-74.07
-75.09
-75.61
-75.72
-75.71
-75.99
-76.86
-78.10
-78.75
-77.23
-71.97
-62.03
-47.44
-28.73
-6.28
20.24
51.54
87.79
127.66
168.04
204.94
234.98
256.71
270.82
279.28
283.97
285.85
284.93
280.89
273.67
263.29
249.46
231.10
206.44
173.70
131.84
81.19
23.58
-37.78
-98.70
-154.50
-200.82
-234.45
-254.25
-261.51
-259.58
-252.78
-245.06
-238.99
-235.56
-234.60
-235.37
-237.08
-239.11
-241.02
-242.54
-243.62
-244.40
-244.96
-245.17
-244.55
-242.33
-237.56
-229.12
-215.65
-195.48
-166.98
-129.57
-84.78
-36.55
9.74
49.37
80.19
103.30
121.86
138.86
155.10
168.84
177.17
178.22
172.65
163.49
154.41
147.81
143.77
140.49
135.75
128.30
118.48
107.78
97.99
90.26
84.75
80.71
76.93
72.37
66.51
59.46
51.79
44.31
37.78
32.84
29.90
28.87
28.66
26.77
19.51
3.03
-25.03
-63.88
-108.91
-152.51
-186.01
-202.18
-196.91
-169.98
-124.67
-66.87
-3.85
56.81
108.56
147.05
170.98
182.03
183.98
181.25
177.52
175.19
175.54
179.08
185.62
194.02
201.90
205.99
202.91
190.15
166.74
133.20
91.20
43.39
-6.81
-55.22
-97.46
-129.85
-150.55
-160.09
-160.99
-156.55
-149.55
-141.59
-133.24
-124.84
-117.04
-110.73
-106.49
-104.12
-102.53
-100.27
-96.36
-90.86
-84.80
-79.73
-76.88
-76.56
-78.12
-80.25
-81.53
-80.77
-77.12
-70.15
-59.80
-46.60
-31.70
-16.74
-3.41
7.17
14.83
20.26
24.49
28.32
31.89
34.77
36.44
36.76
36.18
35.53
35.59
36.74
38.77
41.04
42.81
43.57
43.24
42.16
40.89
39.87
39.21
38.67
37.77
36.11
33.58
30.45
27.16
24.12
21.42
18.82
15.92
12.42
8.34
4.02
0.00
-3.27
-5.62
-7.20
-8.32
-9.32
-10.39
-11.56
-12.77
-13.93
-14.99
-15.88
-16.58
-17.03
-17.25
-17.31
-17.30
-17.28
-17.23
-17.00
-16.44
-15.42
-13.95
-12.16
-10.29
-8.58
-7.24
-6.36
-5.85
-5.45
-4.76
-3.39
-1.03
2.35
6.50
10.92
15.00
18.22
20.26
21.07
20.85
19.91
18.55
16.99
15.34
13.62
11.86
10.07
8.31
6.69
5.26
4.02
2.88
1.68
0.32
-1.24
-2.92
-4.54
-5.93
-6.90
-7.28
-6.83
-5.29
-2.50
1.43
6.03
10.52
14.03
15.99
16.33
15.46
14.06
12.72
11.74
10.98
10.11
8.75
6.74
4.13
1.18
-1.79
-4.52
-6.81
-8.53
-9.64
-10.10
-9.93
-9.21
-8.12
-6.91
-5.86
-5.15
-4.88
-5.00
-5.36
-5.79
-6.14
-6.33
-6.34
-6.20
-5.96
-5.66
-5.24
-4.62
-3.66
-2.32
-0.69
0.98
2.32
2.98
2.76
1.68
0.04
-1.73
-3.23
-4.28
-4.95
-5.53
-6.34
-7.52
-8.97
-10.35
-11.32
-11.72
-11.70
-11.66
-11.96
-12.72
-13.67
-14.23
-13.80
-12.07
-9.13
-5.52
-1.98
0.78
2.25
2.09
0.09
-3.62
-8.29
-12.28
-13.33
-9.35
0.47
15.03
31.50
46.39
57.02
62.49
63.73
62.57
60.63
58.55
56.09
52.88
49.00
45.19
42.37
41.06
40.94
41.04
40.28
38.03
34.49
30.67
27.85
27.09
28.77
32.54
37.32
41.51
43.17
40.46
32.18
18.40
0.79
-17.69
-33.75
-44.96
-50.60
-51.67
-50.13
-47.74
-45.30
-42.65
-39.25
-34.92
-30.19
-26.08
-23.40
-22.33
-22.27
-22.21
-21.34
-19.30
-16.51
-13.76
-11.88
-11.35
-12.12
-13.67
-15.34
-16.56
-17.15
-17.23
-17.16
-17.23
-17.62
-18.28
-19.05
-19.77
-20.26
-20.39
-20.03
-19.11
-17.65
-15.85
-14.03
-12.55
-11.67
-11.47
-11.83
-12.47
-13.05
-13.19
-12.60
-11.15
-8.95
-6.42
-4.18
-2.84
-2.65
-3.30
-3.91
-3.43
-1.16
2.88
7.86
12.54
15.77
17.05
16.56
15.03
13.25
11.74
10.58
9.63
8.70
7.80
7.04
6.51
6.10
5.53
4.50
2.93
1.05
-0.72
-1.94
-2.55
-2.90
-3.70
-5.62
-9.02
-13.65
-18.79
-23.50
-27.00
-28.96
-29.53
-29.18
-28.47
-27.77
-27.12
-26.22
-24.61
-21.91
-18.02
-13.15
-7.63
-1.62
5.08
13.06
22.85
34.45
47.02
58.98
68.59
74.64
77.09
77.03
76.33
76.72
79.25
83.91
89.84
95.88
100.98
104.70
107.17
109.08
111.52
115.80
123.32
135.04
150.68
167.84
181.95
187.34
179.45
157.23
124.31
88.15
57.32
38.19
32.79
38.86
51.74
66.95
81.97
96.40
110.97
126.43
142.97
160.33
177.93
194.81
209.21
218.55
219.89
211.00
191.27
162.11
126.31
86.97
46.43
5.72
-35.30
-77.37
-121.03
-165.82
-209.92
-250.19
-282.88
-304.73
-314.09
-311.51
-299.55
-281.73
-261.42
-241.01
-221.79
-204.34
-188.98
-175.90
-165.01
-155.71
-146.97
-137.72
-127.34
-115.94
-104.29
-93.48
-84.38
-77.32
-71.97
-67.54
-63.15
-58.13
-52.36
-46.21
-40.47
-35.94
-33.08
-31.85
-31.64
-31.58
-30.89
-29.23
-26.71
-23.83
-21.08
-18.72
-16.67
-14.62
-12.34
-9.79
-7.24
-5.08
-3.65
-3.04
-3.02
-3.17
-2.99
-2.09
-0.30
2.25
5.20
8.10
10.53
12.27
13.27
13.74
13.93
14.08
14.23
14.19
13.67
12.35
10.16
7.27
4.12
1.22
-1.02
-2.46
-3.21
-3.54
-3.73
-3.94
-4.18
-4.32
-4.24
-3.87
-3.27
-2.52
-1.72
-0.88
0.10
1.44
3.30
5.78
8.82
12.18
15.56
18.62
21.05
22.70
23.55
23.71
23.41
22.92
22.50
22.24
21.98
21.30
19.66
16.61
11.98
6.04
-0.60
-7.18
-13.04
-17.78
-21.39
-24.07
-26.16
-27.90
-29.42
-30.74
-31.73
-32.22
-31.98
-30.75
-28.39
-24.98
-20.87
-16.58
-12.69
-9.57
-7.30
-5.65
-4.27
-2.86
-1.30
0.33
1.83
3.04
3.92
4.58
5.18
5.93
6.99
8.44
10.23
12.16
13.90
15.09
15.46
14.94
13.67
11.93
9.96
7.91
5.75
3.41
0.89
-1.75
-4.35
-6.75
-8.80
-10.39
-11.37
-11.61
-10.96
-9.32
-6.69
-3.23
0.74
4.80
8.45
11.21
12.74
12.87
11.71
9.57
6.95
4.30
1.95
0.00
-1.60
-2.98
-4.24
-5.40
-6.51
-7.69
-9.11
-10.89
-12.91
-14.70
-15.61
-15.11
-13.12
-10.14
-6.98
-4.33
-2.40
-0.90
0.65
2.57
4.69
6.56
7.75
8.14
7.98
7.60
7.12
6.28
4.58
1.67
-2.41
-7.16
-11.82
-15.78
-18.84
-21.35
-24.02
-27.62
-32.60
-38.90
-45.98
-53.05
-59.48
-65.13
-70.52
-76.60
-84.31
-94.16
-105.84
-118.37
-130.51
-141.30
-150.49
-158.60
-166.63
-175.58
-186.15
-198.68
-213.01
-228.38
-243.16
-254.77
-259.94
-255.63
-240.00
-213.18
-177.20
-135.08
-89.49
-41.71
8.20
60.41
113.72
164.77
208.56
240.18
256.83
259.09
250.56
236.23
220.46
205.62
191.97
178.75
165.43
152.39
140.73
131.44
124.72
119.79
115.41
110.45
104.41
97.41
90.01
82.78
76.12
70.20
65.01
60.48
56.53
53.08
50.11
47.71
46.02
45.15
45.03
45.40
45.80
45.76
44.97
43.28
40.62
36.78
31.50
24.49
15.80
5.86
-4.52
-14.39
-23.09
-30.34
-36.27
-41.15
-45.23
-48.56
-51.10
-52.81
-53.74
-54.07
-54.09
-54.10
-54.38
-55.09
-56.26
-57.69
-59.00
-59.53
-58.48
-54.95
-48.25
-38.16
-25.25
-10.88
3.09
14.87
23.35
28.32
30.37
30.33
28.83
26.12
22.17
17.07
11.18
5.12
-0.52
-5.44
-9.75
-13.85
-18.20
-23.11
-28.69
-34.78
-40.85
-46.01
-49.12
-49.16
-45.65
-38.91
-29.96
-20.19
-10.79
-2.43
4.63
10.34
14.49
16.78
17.07
15.71
13.60
11.92
11.55
12.71
14.83
16.93
18.21
18.42
18.02
17.87
18.78
21.17
24.93
29.53
34.31
38.70
42.31
45.01
46.83
47.91
48.45
48.60
48.44
47.97
47.17
46.06
44.82
43.76
43.19
43.31
44.07
45.21
46.38
47.32
47.95
48.39
48.97
50.03
51.82
54.33
57.26
60.10
62.32
63.64
64.27
64.87
66.31
69.23
73.74
79.29
84.81
89.16
91.56
91.94
90.94
89.79
89.92
92.36
97.00
102.07
103.99
98.04
79.79
46.85
0.18
-55.80
-114.31
-168.30
-212.49
-244.60
-265.33
-277.49
-284.58
-289.57
-293.99
-297.41
-297.55
-290.84
-273.63
-243.62
-201.09
-149.29
-93.74
-40.63
4.98
40.27
64.82
79.85
87.33
89.19
87.18
83.00
78.38
74.90
73.52
74.21
75.98
77.31
76.87
74.16
69.65
64.50
59.97
56.85
55.21
54.45
53.66
52.07
49.32
45.63
41.61
37.99
35.25
33.47
32.28
31.12
29.53
27.38
24.94
22.71
21.12
20.33
20.14
20.12
19.88
19.31
18.66
18.37
18.85
20.22
22.18
24.15
25.51
25.94
25.64
25.25
25.59
27.24
30.24
34.05
37.75
40.51
41.94
42.23
42.03
42.11
43.12
45.52
49.52
54.85
60.26
63.18
59.94
47.01
22.71
-11.39
-50.38
-87.45
-116.39
-133.78
-139.79
-137.40
-130.50
-122.27
-114.48
-107.94
-103.18
-100.85
-101.10
-102.89
-103.63
-99.89
-88.84
-69.70
-44.39
-16.92
8.19
27.63
40.31
47.32
50.95
53.47
56.21
59.40
62.55
65.17
67.21
69.06
71.36
74.58
78.74
83.42
87.96
91.84
94.95
97.75
101.09
105.83
112.40
120.56
129.50
138.14
145.67
151.90
157.37
163.12
170.19
179.24
190.32
202.86
215.78
227.53
236.17
239.44
235.24
222.16
200.07
170.27
135.05
96.69
56.52
14.52
-29.98
-76.93
-124.35
-168.07
-202.81
-224.30
-231.00
-224.77
-209.75
-190.36
-169.56
-148.29
-126.23
-102.99
-78.65
-53.36
-26.49
3.80
39.75
82.49
130.60
179.96
224.92
260.14
282.16
289.99
284.57
267.85
242.06
209.30
171.63
130.99
88.95
46.63
4.52
-37.43
-79.70
-123.08
-168.36
-215.97
-265.48
-315.43
-363.40
-406.63
-442.87
-470.97
-491.02
-504.07
-511.58
-515.22
-516.74
-518.00
-520.47
-524.56
-528.90
-530.42
-525.20
-510.06
-483.84
-447.84
-405.00
-358.57
-310.91
-263.05
-215.26
-167.83
-121.64
-77.83
-37.13
0.81
37.51
75.23
116.16
161.57
211.24
263.01
313.00
356.17
387.55
403.64
403.67
389.97
367.25
340.95
315.27
292.04
270.64
249.25
226.46
202.35
178.54
157.14
139.49
125.47
113.71
102.60
91.33
80.38
71.05
64.44
60.63
58.51
56.33
52.67
47.09
40.28
33.53
28.03
24.30
21.99
20.15
17.68
13.87
8.66
2.63
-3.24
-7.97
-10.99
-12.32
-12.47
-12.20
-12.13
-12.47
-13.02
-13.33
-13.06
-12.21
-11.11
-10.23
-9.92
-10.14
-10.56
-10.68
-10.09
-8.71
-6.77
-4.73
-3.05
-2.05
-1.79
-2.11
-2.78
-3.55
-4.30
-4.99
-5.64
-6.20
-6.59
-6.68
-6.39
-5.76
-4.94
-4.19
-3.72
-3.61
-3.79
-4.06
-4.20
-4.08
-3.71
-3.23
-2.78
-2.48
-2.32
-2.24
-2.16
-2.02
-1.86
-1.77
-1.87
-2.29
-3.07
-4.20
-5.55
-6.89
-7.96
-8.61
-8.86
-8.93
-9.16
-9.83
-10.97
-12.36
-13.59
-14.25
-14.23
-13.73
-13.28
-13.43
-14.54
-16.58
-19.14
-21.64
-23.69
-25.15
-26.22
-27.23
-28.40
-29.74
-31.13
-32.35
-33.07
-32.60
-29.83
-23.54
-12.96
1.55
18.22
34.32
47.13
54.95
57.70
56.69
53.76
50.41
47.32
44.47
41.63
38.73
35.97
33.59
31.53
29.37
26.56
22.64
17.59
11.89
6.41
2.03
-0.66
-1.56
-1.13
-0.11
0.71
0.81
0.12
-1.08
-2.34
-3.26
-3.60
-3.35
-2.60
-1.47
-0.08
1.40
2.77
3.86
4.58
5.00
5.30
5.70
6.30
7.05
7.81
8.45
8.93
9.31
9.71
10.19
10.73
11.27
11.78
12.30
12.94
13.91
15.43
17.75
20.97
24.98
29.27
32.92
34.85
34.17
30.74
25.36
19.61
15.42
14.39
17.37
24.29
34.33
46.30
59.01
71.53
83.34
94.32
104.71
114.92
125.36
136.31
147.85
159.87
172.25
185.02
198.30
212.36
227.52
244.10
262.16
281.38
300.95
319.71
336.40
349.87
359.16
363.50
362.26
355.12
342.34
324.97
304.86
284.20
264.93
248.11
233.80
221.32
209.78
198.56
187.45
176.53
165.88
155.43
145.01
134.36
123.30
111.84
100.14
88.44
77.02
66.13
55.88
46.27
37.14
28.27
19.46
10.58
1.65
-7.19
-15.75
-23.84
-31.45
-38.81
-46.30
-54.40
-63.44
-73.48
-84.26
-95.30
-106.08
-116.39
-126.45
-136.86
-148.44
-161.84
-177.24
-194.26
-212.14
-230.07
-247.54
-264.57
-281.71
-299.88
-320.22
-343.84
-371.51
-403.01
-436.66
-469.15
-496.24
-514.02
-520.31
-515.45
-502.10
-484.00
-464.53
-445.70
-427.94
-410.74
-393.43
-375.89
-358.60
-342.43
-328.24
-316.73
-308.23
-302.68
-299.65
-298.53
-298.92
-300.93
-305.17
-312.38
-322.78
-335.67
-349.50
-362.30
-372.37
-378.65
-380.71
-378.50
-372.03
-361.32
-346.66
-328.85
-309.27
-289.53
-271.01
-254.45
-239.83
-226.58
-213.86
-200.97
-187.41
-173.04
-158.06
-142.95
-128.29
-114.64
-102.27
-91.07
-80.67
-70.50
-60.13
-49.44
-38.66
-28.30
-18.90
-10.77
-3.75
2.75
9.53
17.25
26.09
35.66
45.10
53.50
60.39
66.02
71.36
77.74
86.24
97.16
109.84
122.93
135.02
145.31
154.01
162.32
171.87
184.14
200.00
219.49
241.76
264.96
286.31
302.71
311.75
313.07
309.15
305.07
306.77
318.55
340.95
370.09
399.14
420.99
430.97
428.21
415.17
395.84
373.80
351.05
328.06
304.64
280.86
257.56
236.12
217.75
202.76
190.39
179.24
167.98
156.07
144.00
133.12
124.92
120.27
118.91
119.58
120.51
120.27
118.46
115.80
113.79
113.94
117.10
123.23
131.72
142.04
153.86
166.69
179.14
188.67
192.19
187.56
175.09
158.08
141.88
131.79
131.09
140.11
157.05
179.41
205.18
232.90
260.79
285.81
303.83
310.80
304.52
285.65
257.45
224.29
190.05
156.95
125.43
94.92
64.79
34.92
5.63
-22.72
-50.27
-78.00
-107.49
-140.21
-176.45
-214.52
-250.43
-278.88
-294.95
-295.87
-282.15
-257.23
-225.88
-192.38
-159.22
-126.88
-94.65
-61.87
-28.88
2.57
29.50
48.44
56.36
51.53
34.19
6.54
-28.06
-66.17
-105.39
-144.95
-185.40
-228.06
-274.52
-326.55
-385.84
-453.16
-526.92
-602.05
-670.16
-721.63
-749.00
-749.73
-727.19
-689.04
-643.95
-598.50
-555.69
-515.56
-476.95
-439.20
-402.58
-367.75
-334.81
-302.87
-270.48
-236.43
-200.51
-163.56
-127.21
-92.97
-61.52
-32.50
-4.62
23.67
53.52
85.28
118.39
151.79
184.51
216.07
246.67
276.98
307.70
339.31
372.17
406.70
443.53
483.19
525.40
568.36
608.28
639.89
657.55
656.88
636.06
596.44
542.05
478.24
410.22
341.82
275.01
210.11
146.39
82.42
16.22
-54.23
-130.09
-210.12
-289.66
-360.77
-414.13
-442.08
-441.31
-413.77
-365.74
-305.53
-241.21
-179.45
-125.31
-82.50
-53.36
-38.36
-35.49
-40.23
-46.19
-46.67
-36.40
-13.12
21.81
63.56
105.58
141.86
169.10
187.52
200.01
210.02
219.38
227.49
232.20
231.87
227.10
220.85
216.97
218.02
223.94
232.14
238.89
240.92
236.22
223.89
203.37
174.30
136.92
93.08
46.69
3.05
-32.89
-58.21
-72.91
-79.29
-80.31
-78.08
-73.49
-67.01
-59.88
-54.62
-54.24
-60.61
-73.09
-88.31
-101.52
-108.78
-108.73
-103.01
-95.19
-88.75
-85.61
-85.55
-87.10
-88.75
-89.90
-90.90
-92.39
-94.56
-96.89
-98.42
-98.30
-96.23
-92.67
-88.59
-85.25
-84.02
-85.93
-90.89
-96.93
-100.26
-96.85
-84.88
-66.67
-48.64
-38.75
-42.71
-61.17
-89.44
-120.03
-145.96
-162.98
-169.54
-165.13
-149.14
-121.15
-82.50
-37.81
5.43
39.26
58.62
63.43
58.45
50.95
47.72
52.62
65.66
83.76
102.32
116.99
124.88
125.10
118.56
107.37
94.09
81.14
70.37
62.86
58.83
57.73
58.38
59.37
59.45
57.94
54.75
50.43
45.84
41.83
39.05
37.84
38.14
39.54
41.38
42.92
43.66
43.49
42.77
42.04
41.91
42.73
44.58
47.24
50.31
53.28
55.56
56.56
55.73
52.80
47.80
41.11
33.34
25.12
17.01
9.31
2.18
-4.41
-10.57
-16.35
-21.67
-26.29
-29.92
-32.35
-33.71
-34.60
-35.93
-38.66
-43.45
-50.43
-58.94
-67.65
-74.75
-78.43
-77.42
-71.50
-61.68
-49.81
-37.93
-27.56
-19.31
-12.98
-8.08
-4.26
-1.47
0.29
1.38
2.64
5.10
9.44
15.47
22.19
28.30
32.83
35.55
37.02
38.08
39.33
40.86
42.28
43.03
42.82
41.72
40.16
38.62
37.41
36.58
36.00
35.49
34.99
34.53
34.22
34.08
34.10
34.15
34.08
33.81
33.25
32.31
30.83
28.59
25.39
21.22
16.39
11.49
7.18
3.90
1.70
0.23
-1.04
-2.49
-4.28
-6.34
-8.62
-11.25
-14.50
-18.59
-23.51
-28.91
-34.30
-39.23
-43.51
-47.21
-50.48
-53.36
-55.73
-57.22
-57.42
-55.92
-52.47
-47.00
-39.64
-30.72
-20.69
-10.11
0.48
10.56
19.61
27.21
33.07
37.25
40.16
42.46
44.82
47.58
50.61
53.41
55.43
56.43
56.68
56.88
57.75
59.63
62.13
64.24
64.59
61.96
55.61
45.50
32.24
17.01
1.36
-12.99
-24.54
-32.48
-37.04
-39.44
-41.42
-44.44
-49.08
-54.92
-60.90
-66.04
-70.01
-73.08
-75.83
-78.60
-81.27
-83.39
-84.49
-84.40
-83.22
-81.24
-78.61
-75.22
-70.65
-64.33
-55.69
-44.50
-31.13
-16.65
-2.71
8.95
17.14
21.68
23.45
23.94
24.61
26.27
28.89
31.83
34.33
35.91
36.57
36.64
36.58
36.70
37.11
37.74
38.44
39.13
39.78
40.40
40.99
41.51
41.92
42.13
42.14
42.00
41.82
41.73
41.86
42.25
42.88
43.62
44.33
44.89
45.26
45.55
46.00
46.82
48.07
49.41
50.06
48.94
45.07
37.92
27.76
15.63
3.00
-8.72
-18.62
-26.39
-32.20
-36.40
-39.22
-40.78
-41.12
-40.41
-39.00
-37.33
-35.83
-34.69
-33.87
-33.09
-32.05
-30.55
-28.61
-26.45
-24.37
-22.60
-21.20
-20.03
-18.88
-17.57
-16.08
-14.53
-13.13
-12.03
-11.22
-10.61
-9.99
-9.23
-8.29
-7.25
-6.23
-5.34
-4.63
-4.07
-3.64
-3.29
-3.02
-2.83
-2.72
-2.67
-2.64
-2.54
-2.32
-1.93
-1.39
-0.78
-0.21
0.19
0.34
0.25
-0.01
-0.32
-0.58
-0.70
-0.69
-0.55
-0.31
-0.01
0.31
0.63
0.88
1.02
1.05
0.97
0.82
0.62
0.39
0.18
0.02
-0.08
-0.08
-0.00
0.13
0.26
0.36
0.41
0.41
0.40
0.39
0.38
0.37
0.30
0.13
-0.17
-0.56
-0.92
-1.11
-1.01
-0.61
-0.02
0.55
0.92
0.98
0.75
0.38
-0.00
-0.27
-0.40
-0.43
-0.40
-0.37
-0.39
-0.45
-0.57
-0.71
-0.85
-0.93
-0.95
-0.93
-0.91
-0.93
-0.97
-1.02
-1.03
-1.01
-0.99
-1.01
-1.11
-1.29
-1.56
-1.91
-2.32
-2.73
-3.03
-3.13
-2.99
-2.71
-2.51
-2.65
-3.28
-4.33
-5.56
-6.66
-7.49
-8.08
-8.65
-9.41
-10.46
-11.73
-13.02
-14.16
-15.11
-15.97
-16.89
-17.98
-19.26
-20.69
-22.23
-23.90
-25.82
-28.04
-30.43
-32.58
-33.99
-34.30
-33.56
-32.32
-31.34
-31.16
-31.73
-32.40
-32.24
-30.57
-27.21
-22.56
-17.17
-11.43
-5.40
1.04
7.91
14.88
21.30
26.51
30.06
31.91
32.38
31.99
31.24
30.51
30.02
29.82
29.84
29.92
29.95
29.89
29.79
29.72
29.75
29.84
29.87
29.71
29.31
28.72
28.07
27.53
27.22
27.17
27.34
27.61
27.89
28.16
28.43
28.80
29.37
30.19
31.30
32.64
34.16
35.82
37.59
39.51
41.65
44.12
47.02
50.38
54.15
58.15
62.19
66.04
69.56
72.74
75.65
78.42
81.10
83.58
85.55
86.55
86.10
83.91
80.02
74.79
68.69
61.98
54.40
45.11
32.97
17.11
-2.47
-24.61
-47.20
-67.81
-84.50
-96.31
-103.37
-106.56
-107.02
-106.12
-105.45
-107.10
-113.43
-126.29
-146.01
-170.72
-196.77
-219.97
-237.07
-246.46
-247.73
-240.44
-223.22
-194.09
-152.11
-99.21
-40.87
15.09
61.24
93.28
111.35
119.20
121.89
123.42
125.42
127.41
128.11
126.75
123.67
120.10
117.37
116.16
116.27
116.88
117.14
116.70
115.81
114.91
113.97
111.91
106.72
96.28
79.47
57.01
31.33
5.62
-17.42
-36.43
-51.43
-63.16
-72.21
-78.73
-82.56
-83.70
-82.66
-80.30
-77.45
-74.42
-71.04
-66.95
-62.16
-57.38
-53.97
-53.38
-56.39
-62.47
-69.55
-74.59
-74.62
-68.09
-55.48
-39.23
-22.69
-8.78
0.99
6.72
9.54
10.73
11.10
10.84
9.89
8.30
6.45
4.96
4.37
4.84
6.12
7.66
8.89
9.48
9.40
8.96
8.57
8.58
9.07
9.87
10.59
10.82
10.35
9.17
7.55
5.88
4.49
3.55
3.02
2.72
2.40
1.94
1.32
0.67
0.16
-0.05
0.06
0.37
0.67
0.75
0.48
-0.12
-0.90
-1.68
-2.34
-2.84
-3.22
-3.56
-3.89
-4.21
-4.52
-4.80
-5.11
-5.47
-5.88
-6.28
-6.57
-6.67
-6.52
-6.19
-5.81
-5.56
-5.59
-5.95
-6.57
-7.27
-7.79
-7.98
-7.84
-7.57
-7.47
-7.80
-8.60
-9.69
-10.75
-11.45
-11.67
-11.51
-11.29
-11.33
-11.81
-12.69
-13.72
-14.60
-15.15
-15.44
-15.72
-16.36
-17.65
-19.74
-22.56
-25.86
-29.34
-32.56
-35.06
-36.32
-35.95
-33.87
-30.40
-26.29
-22.46
-19.64
-17.98
-17.04
-15.98
-14.08
-11.17
-7.81
-4.99
-3.63
-3.90
-4.95
-5.11
-2.67
3.34
12.51
23.19
33.14
40.46
44.31
45.03
43.70
41.41
38.76
35.76
32.12
27.75
23.00
18.56
15.12
12.91
11.62
10.48
8.70
5.88
2.18
-1.69
-4.81
-6.40
-6.20
-4.52
-2.11
0.13
1.52
1.78
1.13
0.19
-0.26
0.45
2.62
6.07
10.21
14.26
17.51
19.47
20.01
19.41
18.42
18.11
19.62
23.75
30.50
38.95
47.42
54.07
57.62
57.82
55.50
52.12
49.21
47.75
47.96
49.28
50.65
50.93
49.28
45.55
40.46
35.39
32.01
31.68
34.94
41.03
47.96
52.99
53.51
48.15
37.46
23.89
10.94
1.82
-1.74
0.09
5.68
12.93
20.17
26.46
31.30
34.26
34.84
32.76
28.30
22.45
16.46
11.20
6.85
2.89
-1.50
-6.85
-13.10
-19.82
-26.83
-34.68
-44.65
-58.04
-75.24
-95.05
-114.80
-131.36
-142.49
-147.87
-149.03
-148.34
-147.63
-147.27
-146.18
-142.85
-136.49
-127.77
-118.53
-110.87
-106.06
-103.99
-103.32
-102.06
-98.29
-90.68
-78.63
-62.18
-41.92
-19.00
4.96
28.04
48.36
64.53
75.90
82.65
85.57
85.64
83.72
80.47
76.36
71.83
67.26
62.88
58.70
54.48
49.97
45.14
40.34
36.18
33.29
31.90
31.62
31.58
30.77
28.49
24.68
19.91
15.06
10.86
7.65
5.30
3.44
1.68
-0.21
-2.36
-4.84
-7.76
-11.07
-14.47
-17.33
-18.89
-18.61
-16.49
-13.17
-9.58
-6.56
-4.45
-3.01
-1.69
-0.03
2.09
4.44
6.62
8.34
9.54
10.34
10.94
11.48
12.09
12.90
14.05
15.63
17.57
19.61
21.38
22.54
22.90
22.51
21.61
20.46
19.24
18.01
16.74
15.40
14.03
12.69
11.49
10.44
9.47
8.49
7.43
6.27
5.08
3.93
2.93
2.13
1.56
1.17
0.93
0.74
0.56
0.38
0.25
0.26
0.44
0.76
1.11
1.36
1.44
1.34
1.14
0.92
0.75
0.64
0.58
0.57
0.61
0.72
0.86
0.99
1.04
0.94
0.70
0.37
0.04
-0.23
-0.36
-0.33
-0.16
0.11
0.38
0.59
0.65
0.53
0.22
-0.23
-0.76
-1.28
-1.71
-1.99
-2.08
-1.98
-1.76
-1.51
-1.30
-1.15
-1.05
-0.95
-0.84
-0.77
-0.84
-1.13
-1.66
-2.33
-2.95
-3.32
-3.33
-2.94
-2.29
-1.57
-0.98
-0.66
-0.65
-0.88
-1.18
-1.41
-1.46
-1.34
-1.10
-0.83
-0.55
-0.24
0.19
0.76
1.44
2.09
2.56
2.73
2.58
2.28
2.01
1.95
2.10
2.34
2.47
2.33
1.91
1.35
0.83
0.51
0.39
0.38
0.36
0.24
0.06
-0.08
-0.10
0.05
0.27
0.45
0.47
0.26
-0.16
-0.71
-1.31
-1.87
-2.35
-2.72
-2.94
-2.98
-2.79
-2.32
-1.59
-0.63
0.46
1.53
2.46
3.17
3.63
3.89
4.00
4.03
3.98
3.82
3.51
3.09
2.64
2.26
2.01
1.89
1.81
1.67
1.40
1.00
0.53
0.08
-0.27
-0.49
-0.55
-0.46
-0.22
0.13
0.52
0.86
1.04
0.98
0.70
0.23
-0.32
-0.81
-1.16
-1.30
-1.26
-1.07
-0.81
-0.52
-0.21
0.15
0.59
1.14
1.76
2.41
3.03
3.58
4.08
4.57
5.12
5.80
6.64
7.66
8.83
10.12
11.48
12.84
14.18
15.54
17.01
18.70
20.62
22.69
24.69
26.37
27.55
28.26
28.69
29.17
30.04
31.53
33.74
36.66
40.15
43.94
47.68
50.95
53.46
55.23
56.68
58.57
61.67
66.51
73.04
80.72
88.62
95.74
101.36
105.16
107.40
108.95
111.16
115.49
122.97
133.56
145.60
155.95
160.85
157.43
145.15
126.38
105.67
88.16
77.63
75.42
80.75
91.82
106.96
124.80
143.74
161.49
175.48
184.39
189.49
194.71
204.76
222.39
246.37
271.62
291.76
302.22
302.22
294.58
283.57
272.43
262.10
251.69
239.90
226.35
211.87
197.74
184.88
173.23
161.83
149.55
135.79
120.77
105.56
91.48
79.57
70.10
62.50
55.66
48.43
40.17
30.95
21.49
12.75
5.49
-0.09
-4.46
-8.53
-13.24
-19.17
-26.27
-33.97
-41.41
-47.87
-53.16
-57.71
-62.46
-68.40
-76.21
-85.90
-96.79
-107.83
-118.09
-127.17
-135.56
-144.37
-154.93
-168.21
-184.31
-202.47
-221.32
-239.56
-256.41
-272.05
-287.51
-304.38
-324.47
-349.32
-379.54
-414.12
-449.96
-481.98
-504.34
-512.31
-504.23
-482.50
-452.97
-422.78
-397.62
-379.69
-367.27
-356.08
-341.67
-321.55
-296.23
-268.65
-242.93
-222.83
-210.98
-208.58
-215.74
-231.72
-255.05
-283.47
-313.90
-342.98
-367.86
-386.96
-400.30
-409.16
-415.02
-418.70
-419.95
-417.72
-410.97
-399.38
-383.60
-365.05
-345.31
-325.61
-306.63
-288.60
-271.54
-255.43
-240.11
-225.30
-210.50
-195.23
-179.22
-162.61
-145.92
-129.89
-115.16
-102.09
-90.62
-80.36
-70.82
-61.57
-52.48
-43.66
-35.40
-27.98
-21.51
-15.87
-10.76
-5.86
-0.92
4.09
9.07
13.84
18.31
22.51
26.62
30.83
35.28
39.92
44.59
49.11
53.41
57.68
62.28
67.67
74.15
81.71
90.04
98.62
107.01
115.10
123.20
131.95
142.07
154.00
167.72
182.72
198.28
213.77
228.92
243.94
259.38
276.07
294.94
316.93
342.56
371.41
401.54
429.41
450.65
461.34
459.46
445.67
422.96
395.44
366.80
339.32
313.76
289.96
267.69
247.04
228.32
211.63
196.56
182.26
167.87
152.98
137.83
123.20
110.03
98.90
89.81
82.16
75.11
67.91
60.26
52.36
44.78
38.11
32.72
28.60
25.40
22.62
19.83
16.86
13.76
10.81
8.26
6.26
4.80
3.69
2.73
1.77
0.78
-0.15
-0.87
-1.27
-1.32
-1.11
-0.78
-0.49
-0.33
-0.32
-0.38
-0.42
-0.36
-0.15
0.19
0.62
1.06
1.43
1.66
1.71
1.57
1.27
0.87
0.47
0.15
0.02
0.11
0.43
0.93
1.51
2.03
2.38
2.48
2.34
2.02
1.65
1.33
1.10
0.94
0.75
0.46
0.05
-0.40
-0.73
-0.85
-0.71
-0.42
-0.13
0.05
0.10
0.10
0.16
0.36
0.63
0.82
0.81
0.55
0.14
-0.31
-0.66
-0.87
-0.97
-1.01
-1.02
-0.99
-0.87
-0.65
-0.34
0.01
0.30
0.44
0.36
0.04
-0.44
-0.93
-1.30
-1.48
-1.48
-1.39
-1.30
-1.22
-1.14
-1.00
-0.75
-0.42
-0.09
0.17
0.36
0.46
0.52
0.52
0.48
0.39
0.28
0.18
0.11
0.05
-0.02
-0.15
-0.32
-0.49
-0.62
-0.68
-0.71
-0.76
-0.86
-1.06
-1.31
-1.56
-1.76
-1.86
-1.87
-1.81
-1.73
-1.71
-1.83
-2.08
-2.40
-2.65
-2.67
-2.41
-1.95
-1.45
-1.08
-0.91
-0.88
-0.82
-0.55
-0.04
0.60
1.19
1.56
1.64
1.55
1.46
1.50
1.70
1.96
2.12
2.07
1.79
1.35
0.90
0.57
0.41
0.45
0.65
0.96
1.33
1.72
2.10
2.37
2.49
2.41
2.15
1.75
1.28
0.79
0.29
-0.20
-0.68
-1.11
-1.45
-1.64
-1.68
-1.61
-1.51
-1.44
-1.42
-1.43
-1.43
-1.38
-1.29
-1.18
-1.04
-0.88
-0.63
-0.26
0.22
0.74
1.12
1.24
1.06
0.67
0.25
-0.02
-0.05
0.13
0.41
0.72
1.00
1.29
1.60
1.92
2.19
2.37
2.42
2.42
2.47
2.63
2.92
3.25
3.47
3.45
3.11
2.50
1.74
1.03
0.50
0.23
0.17
0.22
0.27
0.23
0.08
-0.19
-0.57
-1.05
-1.57
-2.07
-2.44
-2.60
-2.56
-2.38
-2.15
-1.95
-1.82
-1.71
-1.55
-1.28
-0.88
-0.41
0.03
0.37
0.55
0.61
0.61
0.63
0.76
1.02
1.38
1.80
2.24
2.68
3.08
3.41
3.63
3.76
3.84
3.94
4.13
4.38
4.64
4.80
4.78
4.56
4.20
3.80
3.41
3.01
2.54
1.95
1.24
0.47
-0.29
-0.96
-1.50
-1.94
-2.29
-2.55
-2.70
-2.72
-2.58
-2.29
-1.87
-1.35
-0.80
-0.29
0.11
0.32
0.29
0.00
-0.48
-1.08
-1.69
-2.25
-2.69
-2.98
-3.09
-3.01
-2.76
-2.42
-2.11
-1.95
-1.99
-2.23
-2.56
-2.83
-2.93
-2.80
-2.46
-2.00
-1.53
-1.11
-0.77
-0.51
-0.35
-0.29
-0.37
-0.57
-0.84
-1.08
-1.21
-1.19
-1.08
-0.95
-0.86
-0.83
-0.80
-0.71
-0.50
-0.20
0.12
0.41
0.63
0.79
0.92
1.03
1.09
1.09
1.01
0.88
0.75
0.66
0.63
0.62
0.57
0.45
0.25
-0.02
-0.30
-0.51
-0.56
-0.41
-0.02
0.56
1.22
1.82
2.22
2.34
2.15
1.70
1.13
0.58
0.19
0.06
0.20
0.54
0.95
1.30
1.53
1.61
1.55
1.36
1.06
0.65
0.15
-0.37
-0.86
-1.24
-1.45
-1.50
-1.40
-1.20
-0.94
-0.71
-0.55
-0.53
-0.67
-0.93
-1.25
-1.54
-1.71
-1.72
-1.58
-1.34
-1.12
-1.01
-1.08
-1.27
-1.51
-1.68
-1.69
-1.52
-1.20
-0.84
-0.54
-0.39
-0.40
-0.56
-0.77
-0.92
-0.96
-0.85
-0.66
-0.44
-0.24
-0.05
0.17
0.47
0.84
1.17
1.35
1.26
0.93
0.49
0.12
-0.01
0.13
0.43
0.70
0.81
0.71
0.47
0.26
0.18
0.26
0.43
0.59
0.67
0.63
0.51
0.36
0.24
0.17
0.16
0.17
0.18
0.15
0.08
0.00
-0.05
-0.02
0.09
0.26
0.43
0.53
0.52
0.38
0.11
-0.21
-0.53
-0.75
-0.83
-0.77
-0.65
-0.59
-0.64
-0.80
-0.99
-1.16
-1.31
-1.47
-1.68
-1.91
-2.06
-1.99
-1.67
-1.14
-0.55
-0.06
0.21
0.25
0.11
-0.14
-0.41
-0.64
-0.79
-0.82
-0.70
-0.46
-0.20
-0.01
0.03
-0.06
-0.21
-0.32
-0.33
-0.24
-0.13
-0.08
-0.13
-0.25
-0.37
-0.38
-0.26
-0.01
0.29
0.59
0.85
1.04
1.16
1.24
1.29
1.31
1.29
1.20
1.02
0.77
0.52
0.32
0.20
0.17
0.17
0.15
0.12
0.09
0.11
0.18
0.26
0.32
0.31
0.28
0.28
0.34
0.47
0.61
0.70
0.71
0.65
0.57
0.53
0.55
0.63
0.72
0.79
0.81
0.78
0.73
0.66
0.57
0.44
0.26
0.02
-0.21
-0.37
-0.43
-0.42
-0.38
-0.38
-0.39
-0.40
-0.34
-0.16
0.12
0.42
0.68
0.84
0.91
0.93
0.96
1.06
1.27
1.57
1.91
2.19
2.33
2.24
1.93
1.49
1.08
0.84
0.84
1.03
1.30
1.52
1.64
1.68
1.71
1.82
2.02
2.25
2.45
2.55
2.48
2.21
1.72
1.01
0.08
-1.00
-2.12
-3.12
-3.85
-4.18
-4.07
-3.59
-2.90
-2.20
-1.73
-1.59
-1.77
-2.14
-2.52
-2.76
-2.76
-2.54
-2.15
-1.65
-1.09
-0.50
0.04
0.46
0.70
0.73
0.63
0.50
0.52
0.77
1.24
1.82
2.35
2.69
2.79
2.73
2.61
2.58
2.71
3.03
3.49
4.00
4.43
4.65
4.59
4.24
3.74
3.28
3.04
3.10
3.40
3.76
4.04
4.19
4.33
4.65
5.34
6.45
7.81
9.13
10.13
10.64
10.74
10.74
11.05
11.98
13.64
15.78
17.96
19.68
20.55
20.45
19.46
17.85
15.96
14.18
12.88
12.33
12.52
12.86
12.25
9.29
2.87
-7.20
-19.94
-33.36
-45.21
-53.75
-58.34
-59.44
-58.22
-55.92
-53.46
-51.31
-49.71
-48.88
-49.09
-50.40
-52.44
-54.23
-54.37
-51.50
-44.92
-34.87
-22.52
-9.55
2.41
12.25
19.61
24.70
28.01
30.06
31.17
31.55
31.29
30.51
29.34
27.92
26.38
24.85
23.35
21.92
20.53
19.26
18.23
17.59
17.36
17.37
17.24
16.55
15.05
12.82
10.24
7.78
5.80
4.37
3.30
2.39
1.49
0.64
-0.03
-0.44
-0.61
-0.67
-0.74
-0.86
-0.98
-1.01
-0.89
-0.62
-0.25
0.11
0.31
0.20
-0.39
-1.57
-3.26
-5.24
-7.17
-8.72
-9.70
-10.09
-10.04
-9.74
-9.29
-8.71
-7.94
-6.93
-5.69
-4.28
-2.84
-1.48
-0.29
0.72
1.61
2.46
3.33
4.16
4.85
5.27
5.38
5.27
5.12
5.12
5.39
5.88
6.46
6.95
7.22
7.28
7.21
7.13
7.17
7.38
7.77
8.26
8.77
9.20
9.47
9.60
9.62
9.64
9.74
9.97
10.36
10.85
11.32
11.55
11.20
9.92
7.41
3.65
-1.03
-6.00
-10.49
-13.86
-15.84
-16.54
-16.36
-15.75
-15.06
-14.40
-13.76
-13.15
-12.63
-12.31
-12.21
-12.24
-12.13
-11.60
-10.48
-8.76
-6.65
-4.40
-2.26
-0.31
1.44
3.10
4.76
6.47
8.27
10.16
12.10
14.03
15.80
17.28
18.34
18.91
19.05
18.89
18.58
18.21
17.74
17.00
15.76
13.79
10.91
7.06
2.36
-2.89
-8.17
-12.84
-16.22
-17.88
-17.71
-16.06
-13.60
-11.05
-8.98
-7.61
-6.87
-6.48
-6.19
-5.88
-5.57
-5.30
-5.11
-4.94
-4.68
-4.27
-3.76
-3.33
-3.14
-3.32
-3.83
-4.50
-5.09
-5.40
-5.33
-4.91
-4.27
-3.57
-2.95
-2.47
-2.13
-1.86
-1.58
-1.25
-0.90
-0.60
-0.44
-0.44
-0.57
-0.73
-0.81
-0.77
-0.59
-0.31
0.00
0.33
0.63
0.90
1.17
1.44
1.75
2.09
2.42
2.68
2.78
2.72
2.52
2.26
2.03
1.84
1.71
1.59
1.45
1.30
1.20
1.17
1.22
1.33
1.43
1.47
1.40
1.20
0.89
0.50
0.08
-0.31
-0.62
-0.82
-0.86
-0.75
-0.52
-0.22
0.06
0.27
0.35
0.30
0.11
-0.17
-0.48
-0.76
-0.92
-0.94
-0.81
-0.57
-0.29
-0.03
0.19
0.38
0.57
0.78
0.97
1.06
0.98
0.70
0.30
-0.08
-0.30
-0.27
-0.03
0.26
0.44
0.41
0.17
-0.16
-0.46
-0.63
-0.67
-0.61
-0.53
-0.46
-0.43
-0.45
-0.54
-0.68
-0.81
-0.91
-0.95
-0.96
-1.00
-1.13
-1.35
-1.60
-1.80
-1.91
-1.93
-1.93
-1.99
-2.14
-2.36
-2.62
-2.90
-3.21
-3.54
-3.87
-4.11
-4.13
-3.82
-3.16
-2.23
-1.21
-0.28
0.40
0.77
0.90
0.90
0.93
1.10
1.48
2.06
2.75
3.44
3.99
4.29
4.28
3.97
3.43
2.80
2.20
1.72
1.40
1.16
0.89
0.47
-0.19
-1.06
-2.05
-3.03
-3.87
-4.51
-4.95
-5.18
-5.23
-5.05
-4.65
-4.05
-3.35
-2.65
-2.06
-1.61
-1.25
-0.91
-0.53
-0.07
0.44
0.94
1.36
1.64
1.74
1.68
1.49
1.26
1.09
1.06
1.20
1.46
1.78
2.06
2.30
2.50
2.75
3.07
3.45
3.87
4.25
4.58
4.82
4.98
5.05
5.06
5.02
4.99
5.02
5.11
5.20
5.19
5.05
4.83
4.67
4.69
4.95
5.35
5.75
6.05
6.24
6.35
6.39
6.22
5.62
4.39
2.51
0.23
-2.00
-3.71
-4.65
-4.81
-4.43
-3.84
-3.31
-2.95
-2.79
-2.75
-2.80
-2.92
-3.12
-3.38
-3.65
-3.85
-3.88
-3.71
-3.34
-2.88
-2.46
-2.15
-2.01
-1.96
-1.92
-1.83
-1.67
-1.49
-1.35
-1.30
-1.30
-1.28
-1.19
-1.03
-0.89
-0.91
-1.15
-1.55
-1.96
-2.19
-2.13
-1.79
-1.36
-1.02
-0.91
-1.00
-1.17
-1.26
-1.16
-0.88
-0.55
-0.29
-0.16
-0.15
-0.21
-0.28
-0.36
-0.50
-0.73
-1.05
-1.39
-1.64
-1.72
-1.60
-1.33
-1.01
-0.74
-0.59
-0.57
-0.67
-0.85
-1.09
-1.34
-1.55
-1.67
-1.65
-1.50
-1.26
-1.03
-0.90
-0.92
-1.02
-1.09
-0.99
-0.67
-0.16
0.37
0.77
0.93
0.87
0.70
0.54
0.47
0.47
0.46
0.40
0.28
0.18
0.20
0.38
0.71
1.11
1.50
1.84
2.16
2.51
2.93
3.42
3.91
4.32
4.60
4.75
4.89
5.15
5.65
6.43
7.41
8.45
9.41
10.26
11.12
12.15
13.51
15.24
17.29
19.52
21.83
24.15
26.51
28.96
31.57
34.40
37.51
40.98
44.88
49.25
54.05
59.18
64.54
70.12
76.06
82.62
90.01
98.27
107.11
116.00
124.38
131.95
138.88
145.86
153.91
163.98
176.44
190.60
204.58
215.61
220.91
218.83
209.56
195.04
177.98
160.46
142.76
123.27
99.32
68.50
29.68
-16.62
-68.41
-122.45
-174.56
-219.95
-254.08
-274.05
-280.04
-275.88
-268.10
-263.50
-266.58
-277.92
-294.59
-311.90
-325.79
-334.26
-337.51
-337.07
-334.70
-331.71
-328.74
-325.71
-321.67
-314.84
-302.76
-282.80
-252.96
-212.41
-161.71
-102.59
-37.90
28.42
91.37
145.48
186.10
210.88
220.73
219.62
212.97
205.55
199.85
195.81
191.83
186.29
178.78
170.38
162.95
158.16
156.62
157.73
159.97
161.56
160.92
157.04
149.46
138.24
123.99
107.88
91.59
76.97
65.62
58.48
55.71
56.87
61.27
68.21
76.99
86.78
96.59
105.45
112.69
117.97
121.07
121.67
119.32
113.63
104.57
92.29
76.64
56.67
30.85
-1.91
-40.83
-82.42
-121.01
-150.78
-167.97
-172.38
-167.06
-156.56
-144.90
-134.27
-125.11
-117.05
-109.86
-103.81
-99.30
-96.30
-94.01
-91.07
-86.20
-78.86
-69.51
-59.52
-50.60
-44.10
-40.55
-39.53
-39.85
-40.09
-39.13
-36.53
-32.58
-28.10
-23.99
-20.92
-19.04
-18.07
-17.48
-16.82
-15.94
-15.03
-14.44
-14.50
-15.32
-16.69
-18.21
-19.44
-20.12
-20.19
-19.79
-19.15
-18.46
-17.81
-17.19
-16.61
-16.07
-15.70
-15.66
-16.15
-17.31
-19.20
-21.78
-24.88
-28.25
-31.54
-34.40
-36.60
-38.08
-39.06
-39.98
-41.36
-43.69
-47.25
-52.06
-57.94
-64.55
-71.56
-78.74
-86.01
-93.42
-101.20
-109.60
-118.83
-128.98
-139.94
-151.47
-163.24
-175.05
-187.03
-199.75
-214.12
-230.97
-250.38
-270.98
-289.76
-302.57
-305.37
-295.60
-273.24
-240.74
-202.06
-161.17
-120.81
-81.96
-44.21
-6.54
32.16
72.73
115.58
160.45
205.86
248.91
285.57
311.78
324.93
324.86
314.00
296.33
275.98
255.93
237.60
221.16
206.32
192.82
180.56
169.38
158.89
148.46
137.57
126.08
114.36
103.13
93.13
84.81
78.09
72.45
67.14
61.51
55.29
48.66
42.15
36.35
31.67
28.13
25.41
23.00
20.47
17.60
14.51
11.52
8.98
7.11
5.89
5.11
4.52
3.89
3.12
2.25
1.39
0.67
0.18
-0.09
-0.22
-0.32
-0.45
-0.65
-0.87
-1.02
-1.02
-0.82
-0.43
0.05
0.48
0.74
0.81
0.70
0.51
0.32
0.16
0.03
-0.10
-0.23
-0.35
-0.41
-0.38
-0.25
-0.04
0.21
0.45
0.62
0.70
0.70
0.62
0.50
0.34
0.12
-0.17
-0.52
-0.87
-1.15
-1.27
-1.23
-1.07
-0.88
-0.72
-0.59
-0.41
-0.12
0.28
0.71
1.05
1.20
1.11
0.84
0.49
0.13
-0.16
-0.36
-0.49
-0.56
-0.58
-0.58
-0.52
-0.41
-0.25
-0.07
0.06
0.06
-0.07
-0.30
-0.50
-0.55
-0.38
-0.02
0.42
0.80
1.02
1.07
0.99
0.87
0.80
0.82
0.94
1.11
1.28
1.39
1.46
1.50
1.57
1.74
1.99
2.26
2.45
2.49
2.37
2.19
2.09
2.16
2.42
2.77
3.07
3.17
3.02
2.63
2.06
1.40
0.68
-0.08
-0.90
-1.77
-2.71
-3.67
-4.62
-5.52
-6.29
-6.93
-7.41
-7.77
-8.04
-8.28
-8.51
-8.78
-9.09
-9.48
-9.93
-10.39
-10.69
-10.64
-10.06
-8.87
-7.19
-5.25
-3.36
-1.79
-0.66
0.01
0.29
0.30
0.14
-0.05
-0.13
0.02
0.50
1.30
2.27
3.22
3.99
4.53
4.96
5.44
6.11
6.99
7.97
8.87
9.57
10.05
10.35
10.56
10.71
10.81
10.82
10.79
10.83
11.05
11.51
12.19
12.96
13.66
14.23
14.63
14.91
15.06
15.07
14.84
14.26
13.22
11.68
9.70
7.49
5.38
3.78
3.07
3.42
4.78
6.83
9.14
11.34
13.27
15.01
16.81
18.93
21.51
24.48
27.59
30.54
33.11
35.25
37.13
39.00
41.10
43.53
46.24
49.17
52.33
55.82
59.68
63.66
67.08
68.91
68.16
64.26
57.34
48.14
37.66
26.75
15.86
5.22
-4.98
-14.26
-21.91
-27.26
-29.93
-29.99
-27.76
-23.52
-17.30
-8.99
1.08
11.58
20.02
23.20
18.29
4.12
-18.11
-45.08
-72.44
-96.39
-114.79
-127.54
-135.85
-141.07
-143.80
-143.60
-139.58
-131.25
-119.01
-104.21
-88.54
-73.38
-59.49
-47.04
-36.02
-26.60
-19.23
-14.42
-12.42
-13.02
-15.58
-19.24
-23.18
-26.69
-29.17
-30.07
-28.95
-25.73
-20.77
-14.96
-9.44
-5.26
-3.09
-2.99
-4.55
-7.16
-10.30
-13.61
-16.78
-19.30
-20.32
-18.78
-13.85
-5.32
6.07
18.77
30.90
40.83
47.67
51.43
52.79
52.63
51.61
50.05
47.97
45.38
42.41
39.41
36.76
34.71
33.20
31.99
30.68
29.04
27.02
24.80
22.67
20.91
19.62
18.77
18.21
17.73
17.16
16.38
15.36
14.18
12.98
11.91
11.11
10.62
10.36
10.18
9.95
9.58
9.11
8.64
8.28
8.07
7.95
7.82
7.56
7.12
6.58
6.06
5.73
5.72
6.10
6.86
7.89
8.97
9.73
9.71
8.45
5.72
1.61
-3.38
-8.48
-12.93
-16.15
-17.99
-18.59
-18.32
-17.54
-16.51
-15.39
-14.27
-13.28
-12.53
-12.11
-11.98
-12.00
-11.95
-11.63
-10.96
-9.95
-8.76
-7.59
-6.61
-5.91
-5.49
-5.26
-5.11
-4.94
-4.71
-4.42
-4.07
-3.67
-3.20
-2.65
-2.05
-1.46
-1.00
-0.77
-0.81
-1.03
-1.30
-1.44
-1.37
-1.09
-0.69
-0.26
0.12
0.44
0.68
0.83
0.84
0.70
0.40
0.03
-0.32
-0.55
-0.60
-0.50
-0.30
-0.06
0.16
0.32
0.39
0.37
0.25
0.07
-0.12
-0.27
-0.33
-0.28
-0.11
0.12
0.37
0.58
0.72
0.74
0.66
0.49
0.26
0.00
-0.24
-0.44
-0.61
-0.75
-0.87
-1.00
-1.12
-1.22
-1.29
-1.32
-1.35
-1.40
-1.51
-1.67
-1.88
-2.13
-2.40
-2.64
-2.84
-2.94
-2.95
-2.90
-2.93
-3.16
-3.68
-4.49
-5.43
-6.29
-6.89
-7.20
-7.40
-7.76
-8.57
-9.97
-11.86
-13.96
-15.89
-17.37
-18.31
-18.91
-19.58
-20.77
-22.77
-25.54
-28.77
-31.94
-34.64
-36.64
-38.05
-39.22
-40.59
-42.65
-45.86
-50.52
-56.53
-63.00
-68.19
-69.84
-65.93
-55.60
-39.60
-20.17
-0.20
17.77
32.22
42.74
49.64
53.37
54.30
52.78
49.37
44.90
40.37
36.54
33.75
31.86
30.41
28.90
26.94
24.40
21.42
18.36
15.74
14.07
13.67
14.45
15.93
17.38
18.10
17.70
16.29
14.43
12.81
11.99
12.13
13.02
14.21
15.32
16.15
16.71
17.09
17.33
17.32
16.89
15.90
14.42
12.69
11.04
9.76
8.96
8.55
8.35
8.15
7.85
7.44
6.97
6.45
5.86
5.10
4.11
2.95
1.88
1.21
1.17
1.76
2.71
3.63
4.16
4.16
3.72
3.05
2.34
1.59
0.74
-0.31
-1.54
-2.76
-3.74
-4.25
-4.23
-3.79
-3.08
-2.29
-1.52
-0.84
-0.31
-0.04
-0.19
-0.83
-1.93
-3.28
-4.57
-5.49
-5.82
-5.54
-4.78
-3.70
-2.46
-1.19
0.06
1.21
2.20
2.97
3.47
3.71
3.76
3.70
3.63
3.61
3.62
3.56
3.34
2.92
2.39
1.90
1.61
1.57
1.70
1.87
1.91
1.76
1.46
1.11
0.80
0.59
0.51
0.53
0.60
0.68
0.71
0.67
0.55
0.44
0.44
0.63
1.00
1.43
1.76
1.83
1.61
1.22
0.84
0.65
0.72
0.97
1.24
1.37
1.23
0.83
0.23
-0.42
-0.98
-1.33
-1.41
-1.21
-0.80
-0.22
0.46
1.23
2.11
3.07
4.06
4.99
5.74
6.26
6.50
6.47
6.17
5.58
4.71
3.61
2.39
1.28
0.51
0.24
0.48
1.08
1.73
2.16
2.18
1.78
1.11
0.38
-0.28
-0.81
-1.31
-1.89
-2.60
-3.40
-4.19
-4.81
-5.16
-5.25
-5.15
-4.96
-4.77
-4.60
-4.42
-4.17
-3.84
-3.45
-3.08
-2.80
-2.63
-2.56
-2.52
-2.44
-2.28
-2.03
-1.75
-1.49
-1.30
-1.19
-1.14
-1.12
-1.07
-0.98
-0.84
-0.69
-0.55
-0.45
-0.39
-0.37
-0.36
-0.35
-0.31
-0.26
-0.20
-0.15
-0.11
-0.08
-0.07
-0.07
-0.06
-0.05
-0.04
-0.02
-0.01
0.00
0.00
0.00
0.00
0.00
-0.00
-0.00
0.00
0.00
0.00
0.00
0.00
0.00
0.00
0.00
0.00
0.00
0.00
0.00
0.00
0.00
0.00
0.00
0.00
0.00
0.00
0.00
0.00
0.00
0.00
0.00
0.00
0.00
0.00
0.00
0.00
0.00
0.00
0.00
0.00
0.00
0.00
0.00
0.00
0.00
0.00
0.00
0.00
0.00
0.00
0.00
0.00
0.00
0.00
0.00
0.00
0.00
0.00
0.00
0.00
0.00
0.00
0.00
0.00
0.00
0.00
0.00
0.00
0.00
0.00
0.00
0.00
0.00
0.00
0.00
0.00
0.00
0.00
0.00
0.00
0.00
0.00
0.00
0.00
0.00
0.00
0.00
0.00
0.00
0.00
0.00
0.00
0.00
0.00
0.00
0.00
0.00
0.00
0.00
0.00
0.00
0.00
0.00
0.00
0.00
0.00
0.00
0.00
0.00
0.00
0.00
0.00
0.00
0.00
0.00
0.00
0.00
0.00
0.00
0.00
0.00
0.00
0.00
0.00
0.00
0.00
0.00
0.00
0.00
0.00
0.00
0.00
0.00
0.00
0.00
0.00
0.00
0.00
0.00
0.00
0.00
0.00
0.00
-0.00
-0.00
-0.00
-0.00
0.00
0.01
0.01
-0.01
-0.03
-0.07
-0.10
-0.09
-0.02
0.13
0.35
0.63
0.93
1.23
1.51
1.79
2.10
2.47
2.92
3.45
4.03
4.63
5.21
5.78
6.36
7.02
7.79
8.71
9.74
10.81
11.82
12.73
13.57
14.44
15.54
17.04
19.02
21.45
24.15
26.86
29.43
31.85
34.33
37.22
40.87
45.48
50.95
56.97
63.11
69.07
74.83
80.71
87.23
94.86
103.82
113.92
124.73
135.69
146.48
157.07
167.69
178.72
190.59
203.79
218.98
236.66
256.73
277.86
297.17
310.67
314.38
305.72
284.48
252.89
214.71
173.86
133.24
94.30
57.22
21.58
-13.18
-47.72
-82.97
-120.24
-160.82
-205.00
-251.21
-295.73
-333.41
-359.42
-371.01
-368.62
-355.57
-336.68
-316.35
-297.30
-280.30
-264.85
-250.24
-236.15
-222.65
-209.83
-197.35
-184.41
-170.09
-153.76
-135.38
-115.59
-95.60
-76.81
-60.50
-47.49
-37.97
-31.48
-27.06
-23.52
-19.86
-15.38
-9.83
-3.32
3.75
10.88
17.52
23.17
27.49
30.33
31.79
32.16
31.82
31.18
30.53
30.03
29.70
29.43
29.06
28.42
27.51
26.47
25.59
25.20
25.52
26.54
27.88
28.89
28.74
26.75
22.63
16.70
9.76
2.89
-2.97
-7.35
-10.31
-12.29
-13.77
-14.98
-15.82
-15.97
-15.14
-13.33
-10.91
-8.48
-6.67
-5.88
-6.12
-7.00
-7.88
-8.15
-7.48
-5.92
-3.88
-1.90
-0.44
0.33
0.50
0.34
0.16
0.20
0.61
1.41
2.50
3.61
4.32
4.19
2.91
0.52
-2.58
-5.69
-8.13
-9.46
-9.64
-8.97
-7.97
-7.08
-6.58
-6.51
-6.73
-7.05
-7.22
-7.07
-6.53
-5.62
-4.52
-3.51
-2.84
-2.71
-3.11
-3.90
-4.80
-5.48
-5.67
-5.21
-4.14
-2.65
-1.14
-0.01
0.40
-0.01
-1.07
-2.36
-3.40
-3.84
-3.53
-2.63
-1.45
-0.37
0.30
0.40
-0.08
-1.03
-2.22
-3.35
-4.12
-4.34
-4.02
-3.38
-2.85
-2.84
-3.58
-5.01
-6.76
-8.29
-9.06
-8.76
-7.36
-5.15
-2.58
-0.18
1.65
2.66
2.83
2.37
1.61
0.95
0.71
1.05
1.90
2.96
3.83
4.15
3.74
2.68
1.29
0.08
-0.43
0.07
1.64
3.99
6.60
8.84
10.20
10.45
9.66
8.16
6.41
4.81
3.65
3.02
2.91
3.21
3.76
4.34
4.73
4.73
4.30
3.54
2.68
1.99
1.70
1.90
2.56
3.54
4.62
5.49
5.86
5.52
4.51
3.21
2.26
2.28
3.53
5.66
7.75
8.67
7.54
4.13
-1.02
-6.84
-12.16
-16.17
-18.77
-20.66
-23.27
-28.52
-38.23
-53.43
-73.77
-97.29
-120.77
-140.76
-154.73
-161.97
-163.70
-162.44
-160.87
-160.81
-162.49
-164.42
-163.70
-156.77
-140.62
-114.08
-78.72
-38.95
-0.87
29.63
48.78
55.93
53.18
43.95
31.39
17.43
2.75
-12.43
-27.66
-42.13
-55.09
-66.45
-77.04
-88.22
-101.10
-115.79
-131.08
-144.67
-153.88
-156.34
-150.48
-135.60
-111.77
-79.77
-41.11
1.88
46.15
88.31
125.26
154.81
176.04
189.25
195.65
196.84
194.44
189.90
184.28
178.24
172.02
165.52
158.50
150.72
142.15
132.95
123.47
114.09
105.28
97.46
91.00
86.06
82.49
79.86
77.48
74.74
71.22
66.94
62.23
57.66
53.73
50.73
48.65
47.23
46.10
44.90
43.50
42.00
40.74
40.18
40.74
42.55
45.38
48.68
51.75
54.04
55.37
56.08
56.95
58.91
62.65
68.10
74.27
79.22
80.69
76.77
66.76
51.56
33.47
15.37
-0.29
-12.34
-21.12
-27.85
-33.83
-39.60
-44.67
-48.02
-48.65
-46.20
-40.85
-33.21
-24.19
-15.46
-9.91
-11.53
-24.35
-50.45
-88.36
-132.74
-176.12
-211.68
-235.73
-248.21
-251.14
-246.08
-232.51
-208.35
-172.09
-125.13
-72.56
-21.63
21.08
52.11
71.84
83.37
90.22
94.56
96.82
96.43
93.19
88.00
82.66
79.00
77.90
78.88
80.42
80.83
79.16
75.61
71.54
68.72
68.56
71.40
76.20
80.87
83.09
81.30
75.44
67.02
58.55
52.38
49.76
50.40
52.84
55.37
56.95
57.66
58.55
61.14
66.75
75.86
87.62
99.55
107.67
107.29
94.54
67.94
29.46
-15.77
-60.95
-99.84
-128.60
-146.39
-154.73
-156.02
-152.32
-144.80
-134.08
-120.91
-106.67
-93.17
-82.14
-74.56
-70.33
-68.46
-67.68
-66.97
-65.73
-63.57
-59.95
-54.09
-45.24
-33.32
-19.19
-4.69
8.05
17.34
22.48
23.86
22.51
19.59
16.02
12.43
9.32
7.09
6.04
6.22
7.34
8.85
10.13
10.75
10.60
9.86
8.87
7.97
7.30
6.88
6.59
6.30
5.98
5.69
5.57
5.76
6.34
7.29
8.47
9.68
10.72
11.38
11.56
11.32
10.87
10.57
10.75
11.62
13.10
14.90
16.55
17.65
18.00
17.73
17.20
16.90
17.26
18.42
20.21
22.09
23.37
23.30
21.32
17.19
11.08
3.52
-4.67
-12.48
-19.02
-23.59
-25.94
-26.24
-25.00
-22.86
-20.39
-17.91
-15.45
-12.79
-9.65
-5.81
-1.27
3.73
8.75
13.31
17.08
20.04
22.41
24.61
26.99
29.74
32.81
36.06
39.38
42.79
46.47
50.65
55.53
61.14
67.36
73.92
80.53
87.01
93.38
99.85
106.71
114.16
122.09
130.20
138.09
145.50
152.16
157.59
160.88
160.74
155.91
145.63
129.78
108.69
82.65
51.73
16.05
-23.54
-64.77
-104.06
-137.33
-161.41
-175.18
-179.77
-177.93
-172.72
-166.40
-160.03
-153.69
-147.10
-140.16
-133.15
-126.50
-120.52
-115.09
-109.74
-103.88
-97.13
-89.57
-81.69
-74.06
-67.09
-60.80
-54.89
-48.93
-42.68
-36.20
-29.84
-24.10
-19.38
-15.84
-13.33
-11.52
-10.03
-8.56
-6.95
-5.22
-3.49
-1.92
-0.62
0.38
1.17
1.89
2.74
3.84
5.24
6.80
8.30
9.48
10.16
10.33
10.09
9.64
9.13
8.69
8.36
8.17
8.14
8.25
8.45
8.62
8.59
8.21
7.42
6.30
5.07
3.96
3.13
2.61
2.22
1.68
0.72
-0.75
-2.61
-4.52
-6.06
-6.91
-6.97
-6.36
-5.32
-4.13
-3.00
-2.00
-1.14
-0.37
0.37
1.12
1.91
2.72
3.50
4.13
4.44
4.26
3.46
2.02
0.06
-2.19
-4.39
-6.24
-7.54
-8.22
-8.35
-8.08
-7.54
-6.86
-6.12
-5.35
-4.63
-4.01
-3.52
-3.17
-2.85
-2.47
-1.93
-1.24
-0.50
0.10
0.36
0.15
-0.51
-1.49
-2.61
-3.64
-4.45
-4.95
-5.08
-4.84
-4.24
-3.40
-2.46
-1.57
-0.86
-0.37
-0.04
0.25
0.58
0.98
1.42
1.82
2.15
2.42
2.73
3.16
3.74
4.42
5.11
5.68
6.03
6.07
5.70
4.89
3.61
1.95
0.10
-1.65
-3.08
-4.09
-4.75
-5.29
-5.94
-6.83
-7.94
-9.09
-10.10
-10.84
-11.32
-11.62
-11.84
-12.02
-12.06
-11.88
-11.48
-11.00
-10.70
-10.82
-11.43
-12.35
-13.23
-13.70
-13.62
-13.08
-12.39
-11.87
-11.65
-11.58
-11.25
-10.19
-8.04
-4.71
-0.43
4.29
8.86
12.73
15.54
17.15
17.65
17.27
16.31
15.07
13.80
12.68
11.83
11.27
10.94
10.72
10.47
10.07
9.48
8.69
7.77
6.78
5.73
4.60
3.32
1.92
0.50
-0.75
-1.57
-1.83
-1.54
-0.91
-0.21
0.32
0.62
0.78
0.90
1.03
1.11
1.05
0.81
0.53
0.41
0.62
1.20
1.94
2.54
2.75
2.52
2.01
1.51
1.26
1.38
1.79
2.33
2.81
3.14
3.28
3.27
3.18
3.05
2.94
2.88
2.92
3.02
3.12
3.02
2.51
1.35
-0.57
-3.20
-6.27
-9.35
-11.99
-13.91
-15.07
-15.67
-16.07
-16.64
-17.63
-19.11
-20.95
-22.89
-24.69
-26.19
-27.44
-28.69
-30.32
-32.67
-35.93
-39.96
-44.34
-48.57
-52.29
-55.51
-58.65
-62.38
-67.24
-73.36
-80.34
-87.41
-93.81
-99.12
-103.46
-107.35
-111.54
-116.78
-123.65
-132.30
-141.99
-150.75
-155.27
-151.46
-135.79
-106.70
-65.55
-16.61
34.24
81.20
120.13
149.11
168.21
178.59
181.75
179.24
172.66
163.75
154.31
145.79
138.86
133.32
128.34
122.85
116.07
107.65
97.61
86.22
73.84
60.93
48.02
35.76
24.75
15.43
7.98
2.40
-1.33
-3.14
-2.92
-0.70
3.18
8.01
12.93
17.17
20.33
22.40
23.70
24.59
25.36
26.15
27.01
28.05
29.43
31.35
33.85
36.76
39.74
42.40
44.58
46.52
48.82
52.17
57.03
63.27
70.19
76.77
82.13
85.93
88.57
90.94
94.12
98.96
105.85
114.41
123.30
129.96
130.87
122.38
102.06
70.09
29.75
-13.28
-52.78
-84.02
-105.07
-116.80
-121.63
-122.08
-119.77
-115.44
-109.48
-102.59
-95.89
-90.45
-86.71
-84.19
-81.72
-78.06
-72.53
-65.31
-57.30
-49.69
-43.42
-38.88
-35.93
-34.07
-32.84
-32.05
-31.80
-32.34
-33.79
-35.92
-38.19
-39.85
-40.30
-39.30
-37.04
-34.03
-30.88
-28.06
-25.77
-23.95
-22.49
-21.26
-20.25
-19.52
-19.07
-18.86
-18.73
-18.46
-17.89
-16.97
-15.78
-14.52
-13.44
-12.81
-12.85
-13.66
-15.23
-17.39
-19.84
-22.28
-24.49
-26.49
-28.55
-31.12
-34.60
-39.19
-44.71
-50.72
-56.67
-62.18
-67.26
-72.35
-78.17
-85.34
-94.15
-104.27
-114.92
-125.16
-134.30
-142.26
-149.65
-157.60
-167.34
-179.90
-195.76
-214.59
-234.97
-254.33
-269.24
-276.04
-271.90
-255.70
-228.33
-192.34
-150.90
-106.74
-61.42
-15.42
31.24
78.08
123.72
165.99
202.63
232.19
254.54
270.76
282.50
291.11
297.04
299.92
299.17
294.81
287.85
280.00
272.75
266.53
260.39
252.52
241.32
226.30
208.23
188.67
169.23
150.95
134.04
117.80
100.61
80.10
53.81
20.32
-19.69
-62.89
-104.14
-138.33
-162.46
-176.57
-183.22
-185.60
-185.74
-183.76
-178.67
-169.84
-158.03
-145.43
-134.60
-127.15
-123.00
-120.50
-117.23
-111.14
-101.26
-87.94
-72.32
-55.56
-38.13
-19.69
0.47
22.61
45.89
68.25
87.13
100.50
107.72
109.71
108.35
105.62
102.72
99.92
96.79
92.78
87.67
81.71
75.49
69.61
64.48
60.12
56.29
52.62
48.84
44.90
40.95
37.25
33.98
31.19
28.73
26.38
23.90
21.22
18.40
15.65
13.21
11.27
9.82
8.69
7.63
6.40
4.91
3.24
1.60
0.19
-0.84
-1.46
-1.69
-1.61
-1.25
-0.64
0.22
1.28
2.49
3.76
4.99
6.02
6.73
7.04
6.93
6.45
5.69
4.80
3.90
3.14
2.63
2.46
2.64
3.05
3.46
3.60
3.27
2.44
1.24
-0.04
-1.12
-1.80
-2.05
-1.98
-1.74
-1.51
-1.40
-1.41
-1.49
-1.57
-1.61
-1.62
-1.65
-1.71
-1.74
-1.64
-1.30
-0.69
0.07
0.79
1.27
1.42
1.31
1.11
0.97
0.98
1.08
1.18
1.22
1.18
1.10
0.99
0.85
0.65
0.35
-0.01
-0.34
-0.56
-0.65
-0.63
-0.56
-0.50
-0.46
-0.38
-0.25
-0.08
0.09
0.19
0.23
0.25
0.29
0.36
0.44
0.45
0.35
0.14
-0.10
-0.27
-0.31
-0.22
-0.03
0.13
0.20
0.13
-0.07
-0.35
-0.66
-0.94
-1.17
-1.34
-1.43
-1.46
-1.43
-1.35
-1.25
-1.14
-1.06
-1.00
-0.97
-0.99
-1.11
-1.37
-1.81
-2.44
-3.20
-3.98
-4.67
-5.21
-5.58
-5.83
-6.01
-6.15
-6.30
-6.49
-6.78
-7.24
-7.90
-8.76
-9.74
-10.70
-11.54
-12.22
-12.78
-13.33
-13.97
-14.78
-15.73
-16.75
-17.72
-18.53
-19.08
-19.34
-19.38
-19.35
-19.47
-19.92
-20.80
-21.99
-23.18
-23.91
-23.69
-22.19
-19.28
-15.13
-10.14
-4.85
0.18
4.50
7.86
10.25
11.88
13.08
14.22
15.51
17.00
18.61
20.16
21.47
22.45
23.02
23.17
22.88
22.20
21.22
20.13
19.15
18.49
18.23
18.35
18.64
18.89
18.83
18.35
17.40
16.10
14.61
13.16
11.88
10.83
9.98
9.24
8.52
7.81
7.14
6.57
6.14
5.85
5.67
5.54
5.41
5.25
5.09
4.98
4.97
5.09
5.33
5.60
5.79
5.81
5.65
5.34
4.94
4.51
4.07
3.64
3.28
3.04
3.03
3.27
3.78
4.52
5.40
6.32
7.14
7.67
7.73
7.20
6.13
4.73
3.32
2.23
1.63
1.59
2.01
2.72
3.61
4.63
5.79
7.08
8.46
9.79
10.88
11.50
11.53
10.93
9.82
8.42
7.00
5.78
4.91
4.46
4.44
4.83
5.63
6.82
8.32
9.99
11.56
12.69
13.01
12.25
10.30
7.29
3.59
-0.27
-3.67
-6.07
-7.12
-6.76
-5.18
-2.79
-0.14
2.23
3.78
4.06
2.84
0.20
-3.38
-7.12
-10.15
-11.77
-11.68
-10.02
-7.24
-3.89
-0.50
2.40
4.27
4.59
2.99
-0.49
-5.30
-10.45
-14.89
-17.80
-18.87
-18.29
-16.49
-13.89
-10.83
-7.64
-4.77
-2.89
-2.66
-4.44
-8.02
-12.59
-16.94
-19.94
-20.87
-19.65
-16.73
-12.88
-8.86
-5.24
-2.32
-0.13
1.42
2.48
3.12
3.42
3.36
3.03
2.61
2.41
2.79
4.04
6.27
9.26
12.41
14.78
15.23
12.82
7.19
-1.17
-10.90
-20.11
-26.98
-30.36
-30.03
-26.73
-21.71
-16.28
-11.41
-7.61
-5.04
-3.65
-3.33
-3.96
-5.34
-7.17
-9.02
-10.37
-10.80
-10.09
-8.35
-5.96
-3.51
-1.54
-0.38
-0.08
-0.41
-1.05
-1.76
-2.47
-3.22
-3.99
-4.51
-4.30
-2.80
0.21
4.50
9.32
13.74
17.00
18.79
19.24
18.74
17.68
16.28
14.66
12.92
11.25
9.91
9.07
8.74
8.72
8.74
8.62
8.32
8.01
7.85
7.96
8.28
8.67
8.97
9.11
9.19
9.41
10.04
11.28
13.17
15.53
17.91
19.64
19.91
18.06
13.78
7.36
-0.36
-8.16
-14.85
-19.60
-22.13
-22.76
-22.06
-20.68
-19.08
-17.49
-15.99
-14.63
-13.49
-12.68
-12.22
-12.02
-11.86
-11.46
-10.65
-9.40
-7.88
-6.34
-5.05
-4.13
-3.55
-3.16
-2.73
-2.08
-1.11
0.16
1.63
3.07
4.28
5.10
5.49
5.60
5.73
6.16
7.10
8.53
10.21
11.82
13.08
13.90
14.35
14.65
15.02
15.60
16.45
17.58
18.87
20.05
20.65
20.08
17.81
13.68
8.01
1.60
-4.52
-9.52
-12.98
-14.96
-15.83
-16.01
-15.81
-15.36
-14.72
-14.00
-13.38
-13.03
-13.05
-13.34
-13.72
-13.97
-13.95
-13.60
-13.02
-12.34
-11.72
-11.22
-10.84
-10.49
-10.04
-9.43
-8.66
-7.85
-7.14
-6.65
-6.42
-6.36
-6.37
-6.34
-6.23
-6.07
-5.89
-5.76
-5.72
-5.82
-6.12
-6.60
-7.20
-7.76
-8.12
-8.19
-7.98
-7.59
-7.21
-6.98
-7.03
-7.38
-8.03
-8.88
-9.74
-10.27
-10.09
-8.79
-6.17
-2.31
2.35
7.11
11.25
14.23
15.82
16.19
15.69
14.75
13.72
12.77
11.94
11.19
10.54
10.01
9.63
9.39
9.18
8.86
8.29
7.46
6.46
5.49
4.70
4.16
3.82
3.49
3.02
2.32
1.41
0.43
-0.48
-1.22
-1.73
-2.02
-2.11
-2.05
-1.89
-1.68
-1.48
-1.34
-1.30
-1.31
-1.30
-1.20
-0.92
-0.45
0.16
0.80
1.36
1.74
1.93
1.96
1.90
1.85
1.81
1.80
1.78
1.75
1.74
1.76
1.84
1.99
2.25
2.65
3.18
3.79
4.31
4.51
4.14
3.07
1.37
-0.68
-2.73
-4.41
-5.52
-6.02
-6.02
-5.69
-5.14
-4.44
-3.60
-2.65
-1.66
-0.77
-0.09
0.34
0.60
0.85
1.24
1.81
2.53
3.25
3.87
4.34
4.75
5.24
5.96
6.96
8.12
9.23
10.09
10.60
10.80
10.84
10.91
11.12
11.50
11.99
12.52
13.04
13.51
13.95
14.35
14.65
14.85
14.93
14.89
14.69
14.13
12.88
10.60
7.05
2.29
-3.27
-8.99
-14.15
-18.20
-20.86
-22.18
-22.40
-21.86
-20.82
-19.52
-18.11
-16.71
-15.47
-14.47
-13.74
-13.22
-12.77
-12.26
-11.60
-10.76
-9.81
-8.87
-8.05
-7.42
-6.99
-6.65
-6.27
-5.75
-5.06
-4.26
-3.47
-2.82
-2.34
-1.97
-1.61
-1.19
-0.67
-0.12
0.32
0.57
0.55
0.29
-0.12
-0.57
-0.93
-1.11
-1.06
-0.80
-0.36
0.14
0.62
0.99
1.17
1.14
0.94
0.64
0.36
0.17
0.11
0.14
0.22
0.30
0.34
0.33
0.25
0.07
-0.22
-0.58
-0.90
-1.07
-1.02
-0.76
-0.34
0.11
0.53
0.89
1.21
1.51
1.80
2.02
2.12
2.07
1.86
1.56
1.26
1.01
0.85
0.73
0.60
0.42
0.22
0.07
0.05
0.19
0.40
0.55
0.50
0.21
-0.24
-0.67
-0.91
-0.88
-0.65
-0.36
-0.18
-0.20
-0.42
-0.74
-1.07
-1.35
-1.53
-1.60
-1.55
-1.37
-1.09
-0.77
-0.48
-0.25
-0.07
0.12
0.35
0.59
0.76
0.76
0.59
0.33
0.13
0.11
0.29
0.58
0.86
1.04
1.10
1.09
1.08
1.09
1.13
1.15
1.11
1.00
0.80
0.54
0.25
-0.03
-0.24
-0.34
-0.31
-0.22
-0.11
-0.04
-0.01
0.03
0.10
0.17
0.19
0.09
-0.14
-0.44
-0.73
-0.94
-1.03
-1.05
-1.03
-0.99
-0.87
-0.62
-0.19
0.34
0.83
1.12
1.13
0.89
0.55
0.28
0.23
0.44
0.84
1.34
1.85
2.31
2.70
3.01
3.23
3.35
3.40
3.41
3.44
3.53
3.72
4.00
4.35
4.72
5.09
5.41
5.70
6.02
6.51
7.27
8.36
9.69
11.05
12.21
13.00
13.43
13.67
13.98
14.61
15.67
17.14
18.82
20.38
21.48
21.84
21.28
19.77
17.38
14.28
10.60
6.50
2.10
-2.48
-7.08
-11.50
-15.50
-18.83
-21.32
-22.87
-23.48
-23.29
-22.49
-21.31
-19.99
-18.73
-17.66
-16.81
-16.15
-15.55
-14.91
-14.15
-13.27
-12.33
-11.42
-10.59
-9.85
-9.14
-8.38
-7.53
-6.63
-5.72
-4.89
-4.19
-3.62
-3.14
-2.72
-2.26
-1.76
-1.24
-0.77
-0.44
-0.33
-0.44
-0.72
-1.05
-1.34
-1.52
-1.53
-1.38
-1.08
-0.68
-0.21
0.26
0.68
0.99
1.15
1.20
1.17
1.14
1.19
1.36
1.65
2.01
2.41
2.79
3.12
3.39
3.61
3.78
3.93
4.04
4.06
3.94
3.63
3.13
2.48
1.77
1.10
0.53
0.12
-0.14
-0.26
-0.25
-0.11
0.11
0.32
0.39
0.19
-0.30
-0.98
-1.67
-2.15
-2.30
-2.12
-1.77
-1.39
-1.12
-1.01
-1.02
-1.07
-1.06
-0.87
-0.40
0.41
1.54
2.88
4.20
5.29
6.00
6.34
6.42
6.45
6.58
6.89
7.40
8.06
8.85
9.72
10.68
11.70
12.80
13.99
15.29
16.72
18.24
19.85
21.55
23.47
25.78
28.67
32.20
36.32
40.81
45.43
49.99
54.46
59.01
63.90
69.42
75.69
82.63
89.93
97.22
104.26
111.03
117.76
124.75
132.30
140.63
150.08
161.07
173.86
187.88
201.24
210.65
212.18
202.60
180.55
146.97
104.43
55.95
4.17
-48.71
-100.26
-147.25
-185.82
-212.61
-226.12
-227.54
-220.34
-208.81
-196.49
-185.17
-175.01
-165.32
-155.56
-145.81
-136.65
-128.66
-122.00
-116.26
-110.71
-104.66
-97.80
-90.29
-82.64
-75.39
-68.90
-63.22
-58.17
-53.53
-49.19
-45.27
-41.99
-39.56
-38.05
-37.30
-37.03
-36.83
-36.37
-35.40
-33.79
-31.64
-29.17
-26.75
-24.78
-23.60
-23.40
-24.12
-25.43
-26.84
-27.79
-27.81
-26.70
-24.57
-21.84
-19.00
-16.43
-14.20
-12.01
-9.38
-5.91
-1.42
3.83
9.40
14.74
19.47
23.46
26.72
29.32
31.27
32.46
32.79
32.27
31.13
29.73
28.43
27.46
26.84
26.38
25.85
25.08
24.05
22.90
21.78
20.83
20.05
19.36
18.64
17.79
16.76
15.57
14.26
12.89
11.49
10.10
8.75
7.47
6.32
5.33
4.55
3.97
3.59
3.36
3.18
2.96
2.61
2.10
1.45
0.77
0.21
-0.12
-0.22
-0.15
-0.02
0.07
0.06
-0.05
-0.24
-0.47
-0.71
-0.95
-1.21
-1.49
-1.82
-2.24
-2.76
-3.40
-4.08
-4.72
-5.20
-5.42
-5.37
-5.12
-4.82
-4.66
-4.77
-5.20
-5.86
-6.60
-7.22
-7.64
-7.88
-8.10
-8.47
-9.13
-10.13
-11.35
-12.53
-13.25
-12.99
-11.26
-7.85
-3.02
2.51
7.70
11.62
13.73
14.07
13.18
11.71
10.19
8.87
7.72
6.68
5.80
5.22
5.08
5.38
5.92
6.36
6.39
5.83
4.75
3.45
2.24
1.38
0.94
0.79
0.70
0.50
0.11
-0.38
-0.84
-1.17
-1.38
-1.55
-1.80
-2.22
-2.77
-3.38
-3.92
-4.29
-4.49
-4.60
-4.74
-5.01
-5.44
-5.90
-6.23
-6.28
-6.04
-5.64
-5.34
-5.36
-5.81
-6.58
-7.46
-8.17
-8.48
-8.23
-7.28
-5.55
-3.06
0.03
3.37
6.50
8.95
10.43
10.91
10.58
9.74
8.65
7.46
6.24
5.01
3.86
2.91
2.25
1.92
1.77
1.60
1.19
0.44
-0.54
-1.54
-2.31
-2.71
-2.77
-2.72
-2.82
-3.31
-4.28
-5.64
-7.19
-8.64
-9.78
-10.52
-10.90
-11.05
-11.13
-11.22
-11.31
-11.29
-11.03
-10.43
-9.49
-8.36
-7.25
-6.47
-6.32
-7.06
-8.86
-11.64
-15.00
-18.10
-19.80
-18.93
-14.80
-7.52
1.86
11.66
20.12
25.97
28.82
29.05
27.52
25.17
22.67
20.44
18.68
17.46
16.85
16.77
17.05
17.37
17.34
16.69
15.30
13.31
11.04
8.91
7.30
6.40
6.14
6.27
6.46
6.39
5.94
5.16
4.23
3.35
2.66
2.16
1.78
1.41
0.99
0.52
0.09
-0.21
-0.31
-0.20
0.07
0.40
0.68
0.81
0.75
0.54
0.26
0.04
-0.03
0.09
0.39
0.79
1.23
1.64
2.00
2.26
2.36
2.26
1.97
1.53
1.03
0.57
0.24
0.02
-0.11
-0.22
-0.36
-0.53
-0.68
-0.79
-0.86
-0.90
-0.98
-1.14
-1.34
-1.55
-1.70
-1.76
-1.77
-1.76
-1.76
-1.78
-1.77
-1.73
-1.70
-1.77
-2.05
-2.55
-3.22
-3.89
-4.41
-4.65
-4.57
-4.28
-3.89
-3.53
-3.25
-3.04
-2.83
-2.59
-2.31
-2.05
-1.85
-1.73
-1.64
-1.50
-1.25
-0.93
-0.64
-0.50
-0.55
-0.73
-0.87
-0.84
-0.58
-0.14
0.36
0.77
1.04
1.14
1.14
1.10
1.09
1.16
1.35
1.68
2.07
2.42
2.65
2.71
2.64
2.53
2.46
2.48
2.55
2.62
2.67
2.75
2.92
3.21
3.55
3.82
3.91
3.80
3.60
3.50
3.63
3.99
4.45
4.79
4.84
4.51
3.85
2.96
2.01
1.12
0.44
0.04
-0.08
-0.01
0.12
0.12
-0.07
-0.45
-0.89
-1.23
-1.39
-1.38
-1.26
-1.15
-1.12
-1.22
-1.47
-1.85
-2.30
-2.75
-3.08
-3.21
-3.10
-2.80
-2.43
-2.15
-2.08
-2.30
-2.82
-3.58
-4.44
-5.25
-5.82
-6.05
-5.91
-5.46
-4.83
-4.19
-3.61
-3.09
-2.56
-1.97
-1.33
-0.75
-0.37
-0.34
-0.65
-1.17
-1.68
-1.93
-1.83
-1.42
-0.89
-0.48
-0.32
-0.48
-0.86
-1.35
-1.76
-1.94
-1.70
-0.88
0.60
2.65
5.02
7.33
9.21
10.41
10.90
10.81
10.27
9.34
7.92
5.89
3.24
0.15
-3.01
-5.75
-7.71
-8.71
-8.82
-8.28
-7.36
-6.26
-5.08
-3.90
-2.88
-2.25
-2.28
-3.12
-4.63
-6.43
-7.99
-8.92
-9.19
-9.16
-9.41
-10.44
-12.39
-14.88
-17.24
-18.79
-19.23
-18.83
-18.29
-18.50
-20.06
-23.06
-26.96
-30.87
-33.90
-35.55
-35.89
-35.54
-35.42
-36.49
-39.48
-44.66
-51.62
-58.92
-64.14
-64.26
-56.70
-40.51
-17.18
9.54
34.80
54.40
66.22
70.60
69.66
66.00
61.51
57.02
52.57
48.06
43.70
39.97
37.26
35.51
34.18
32.54
30.01
26.54
22.65
19.13
16.68
15.60
15.68
16.32
16.77
16.51
15.36
13.53
11.47
9.60
8.21
7.35
6.86
6.47
5.91
5.06
3.95
2.78
1.80
1.21
1.00
0.97
0.77
0.14
-1.05
-2.64
-4.26
-5.52
-6.16
-6.13
-5.55
-4.65
-3.66
-2.74
-2.00
-1.51
-1.29
-1.36
-1.66
-2.06
-2.43
-2.63
-2.58
-2.32
-1.91
-1.50
-1.21
-1.09
-1.14
-1.28
-1.38
-1.33
-1.06
-0.62
-0.15
0.16
0.20
-0.03
-0.45
-0.93
-1.37
-1.74
-1.99
-2.09
-1.97
-1.57
-0.96
-0.30
0.18
0.30
0.06
-0.42
-0.92
-1.27
-1.43
-1.47
-1.49
-1.50
-1.37
-0.95
-0.13
1.03
2.32
3.47
4.22
4.49
4.30
3.80
3.06
2.15
1.09
-0.08
-1.22
-2.15
-2.67
-2.68
-2.25
-1.54
-0.75
-0.00
0.65
1.27
1.91
2.64
3.47
4.35
5.23
6.02
6.62
6.95
6.95
6.61
6.01
5.25
4.46
3.72
3.06
2.44
1.80
1.09
0.31
-0.52
-1.29
-1.95
-2.39
-2.56
-2.44
-2.08
-1.63
-1.27
-1.20
-1.50
-2.11
-2.83
-3.41
-3.65
-3.48
-3.00
-2.44
-2.00
-1.84
-1.96
-2.26
-2.60
-2.91
-3.15
-3.35
-3.54
-3.70
-3.75
-3.68
-3.51
-3.40
-3.53
-4.02
-4.90
-5.99
-7.07
-7.91
-8.36
-8.46
-8.38
-8.35
-8.60
-9.27
-10.35
-11.69
-13.04
-14.18
-15.02
-15.61
-16.18
-16.96
-18.12
-19.70
-21.62
-23.76
-26.00
-28.25
-30.44
-32.54
-34.61
-36.84
-39.59
-43.13
-47.43
-51.87
-55.22
-55.99
-53.06
-46.27
-36.69
-26.36
-17.56
-12.09
-10.70
-12.99
-17.67
-22.90
-26.71
-27.24
-23.03
-13.32
1.62
20.37
40.57
59.50
74.77
84.96
89.80
90.05
87.04
82.22
76.80
71.63
67.24
63.93
61.76
60.53
59.74
58.54
55.96
51.17
43.80
34.24
23.53
13.07
4.18
-2.31
-6.28
-8.17
-8.67
-8.48
-8.01
-7.48
-6.91
-6.34
-5.84
-5.51
-5.40
-5.46
-5.59
-5.64
-5.53
-5.28
-5.00
-4.85
-4.97
-5.42
-6.12
-6.89
-7.54
-7.88
-7.85
-7.45
-6.76
-5.82
-4.67
-3.36
-1.98
-0.67
0.35
0.89
0.86
0.29
-0.64
-1.72
-2.77
-3.71
-4.55
-5.31
-5.99
-6.52
-6.83
-6.86
-6.67
-6.42
-6.32
-6.59
-7.38
-8.67
-10.33
-12.15
-13.88
-15.35
-16.55
-17.62
-18.83
-20.47
-22.66
-25.35
-28.27
-31.08
-33.49
-35.38
-36.86
-38.22
-39.83
-42.11
-45.30
-49.31
-53.54
-56.85
-57.79
-54.99
-47.74
-36.32
-21.99
-6.63
7.94
20.38
30.08
36.99
41.32
43.41
43.57
42.27
40.09
37.69
35.65
34.32
33.74
33.71
33.95
34.17
34.26
34.19
33.97
33.63
33.13
32.39
31.30
29.84
28.10
26.26
24.49
22.91
21.50
20.16
18.79
17.34
15.80
14.17
12.45
10.58
8.59
6.61
4.87
3.63
3.03
2.99
3.27
3.56
3.63
3.41
2.98
2.45
1.94
1.54
1.26
1.14
1.18
1.38
1.71
2.12
2.57
2.99
3.33
3.50
3.37
2.84
1.87
0.60
-0.72
-1.78
-2.36
-2.42
-2.10
-1.66
-1.32
-1.14
-1.11
-1.10
-1.05
-0.98
-0.94
-0.99
-1.09
-1.14
-1.01
-0.61
0.01
0.72
1.32
1.66
1.66
1.32
0.75
0.06
-0.63
-1.24
-1.70
-1.98
-2.09
-2.07
-1.95
-1.81
-1.68
-1.60
-1.58
-1.62
-1.73
-1.86
-1.99
-2.11
-2.18
-2.23
-2.25
-2.26
-2.26
-2.22
-2.12
-1.95
-1.70
-1.40
-1.11
-0.86
-0.65
-0.48
-0.32
-0.18
-0.06
0.03
0.08
0.09
0.11
0.13
0.18
0.25
0.33
0.41
0.49
0.57
0.65
0.74
0.89
1.10
1.37
1.66
1.87
1.96
1.93
1.85
1.85
1.98
2.22
2.45
2.58
2.56
2.42
2.28
2.25
2.40
2.73
3.16
3.55
3.80
3.79
3.50
3.00
2.43
1.97
1.72
1.63
1.54
1.26
0.73
0.07
-0.49
-0.74
-0.64
-0.30
0.10
0.43
0.70
1.03
1.56
2.30
3.12
3.79
4.13
4.07
3.72
3.31
3.09
3.27
3.90
4.90
6.07
7.16
7.92
8.14
7.66
6.38
4.24
1.37
-1.91
-5.15
-7.86
-9.68
-10.51
-10.48
-9.87
-9.00
-8.05
-7.14
-6.28
-5.51
-4.87
-4.37
-4.04
-3.84
-3.68
-3.49
-3.24
-2.94
-2.66
-2.52
-2.56
-2.80
-3.17
-3.52
-3.70
-3.61
-3.24
-2.66
-1.99
-1.36
-0.86
-0.48
-0.21
-0.01
0.09
0.05
-0.15
-0.53
-1.02
-1.51
-1.86
-2.00
-1.91
-1.64
-1.30
-1.00
-0.76
-0.58
-0.43
-0.26
-0.10
0.00
-0.02
-0.18
-0.43
-0.69
-0.86
-0.93
-0.90
-0.81
-0.73
-0.64
-0.53
-0.42
-0.33
-0.31
-0.38
-0.50
-0.60
-0.62
-0.54
-0.44
-0.43
-0.56
-0.83
-1.16
-1.46
-1.64
-1.65
-1.48
-1.12
-0.58
0.08
0.72
1.20
1.35
1.12
0.55
-0.20
-0.97
-1.59
-1.94
-1.97
-1.67
-1.10
-0.40
0.24
0.66
0.78
0.68
0.49
0.33
0.25
0.17
-0.01
-0.31
-0.65
-0.85
-0.81
-0.52
-0.12
0.22
0.37
0.30
0.11
-0.10
-0.28
-0.42
-0.55
-0.69
-0.81
-0.87
-0.85
-0.73
-0.54
-0.30
-0.03
0.25
0.56
0.90
1.28
1.71
2.16
2.59
2.93
3.15
3.22
3.16
3.00
2.75
2.43
2.06
1.67
1.30
1.03
0.88
0.82
0.78
0.73
0.65
0.58
0.54
0.56
0.59
0.60
0.56
0.48
0.41
0.40
0.43
0.47
0.48
0.43
0.36
0.35
0.49
0.84
1.40
2.14
2.97
3.78
4.46
4.91
5.09
5.05
4.90
4.83
4.99
5.46
6.21
7.07
7.88
8.46
8.76
8.82
8.72
8.60
8.52
8.54
8.66
8.90
9.27
9.77
10.39
11.09
11.80
12.42
12.85
12.99
12.70
11.78
9.96
7.03
2.93
-2.09
-7.46
-12.46
-16.39
-18.88
-20.01
-20.11
-19.65
-18.94
-18.10
-17.09
-15.92
-14.67
-13.53
-12.64
-12.02
-11.51
-10.91
-10.07
-8.95
-7.68
-6.46
-5.46
-4.77
-4.38
-4.19
-4.08
-3.93
-3.66
-3.21
-2.62
-1.96
-1.33
-0.85
-0.56
-0.44
-0.37
-0.23
0.08
0.58
1.21
1.85
2.35
2.60
2.58
2.34
2.02
1.80
1.76
1.90
2.11
2.19
2.00
1.50
0.81
0.10
-0.44
-0.74
-0.82
-0.78
-0.73
-0.71
-0.70
-0.64
-0.52
-0.37
-0.28
-0.35
-0.60
-1.00
-1.44
-1.79
-1.94
-1.86
-1.58
-1.21
-0.89
-0.76
-0.86
-1.15
-1.52
-1.79
-1.81
-1.55
-1.08
-0.59
-0.24
-0.13
-0.21
-0.37
-0.51
-0.59
-0.66
-0.79
-1.01
-1.28
-1.51
-1.61
-1.60
-1.58
-1.60
-1.71
-1.82
-1.84
-1.71
-1.50
-1.35
-1.37
-1.61
-1.98
-2.34
-2.57
-2.62
-2.55
-2.45
-2.37
-2.33
-2.31
-2.29
-2.22
-2.10
-1.91
-1.67
-1.43
-1.24
-1.14
-1.06
-0.87
-0.36
0.63
2.13
4.01
6.05
8.11
10.14
12.25
14.59
17.21
19.94
22.44
24.26
25.09
24.88
23.96
22.97
22.65
23.52
25.69
28.72
31.83
34.18
35.25
35.09
34.28
33.71
34.23
36.43
40.46
45.80
51.13
54.36
53.06
45.27
30.47
10.17
-12.32
-32.97
-48.46
-57.27
-59.93
-58.29
-54.45
-49.85
-45.05
-40.14
-35.26
-30.87
-27.58
-25.79
-25.34
-25.56
-25.60
-24.79
-23.00
-20.60
-18.23
-16.43
-15.43
-15.05
-14.84
-14.32
-13.18
-11.47
-9.50
-7.70
-6.42
-5.79
-5.69
-5.80
-5.84
-5.64
-5.19
-4.63
-4.16
-3.89
-3.88
-4.06
-4.32
-4.54
-4.63
-4.55
-4.33
-4.04
-3.75
-3.50
-3.29
-3.09
-2.89
-2.69
-2.54
-2.50
-2.60
-2.85
-3.19
-3.59
-4.05
-4.60
-5.32
-6.26
-7.45
-8.82
-10.26
-11.66
-12.95
-14.13
-15.27
-16.43
-17.69
-19.07
-20.61
-22.38
-24.41
-26.71
-29.16
-31.61
-33.94
-36.16
-38.40
-40.93
-43.95
-47.48
-51.36
-55.28
-58.92
-62.06
-64.56
-66.38
-67.46
-67.72
-67.13
-65.55
-62.67
-57.84
-50.12
-38.65
-23.10
-4.15
16.55
36.74
54.28
67.79
76.90
82.04
83.99
83.45
80.87
76.67
71.39
65.85
60.90
57.17
54.82
53.49
52.52
51.29
49.47
47.06
44.37
41.71
39.29
37.10
35.02
32.94
30.90
29.03
27.53
26.52
25.96
25.70
25.49
25.11
24.38
23.21
21.55
19.42
16.89
14.06
11.11
8.20
5.49
3.08
1.07
-0.50
-1.58
-2.18
-2.37
-2.24
-1.94
-1.56
-1.15
-0.71
-0.13
0.68
1.78
3.14
4.62
5.93
6.73
6.75
5.82
4.05
1.77
-0.53
-2.35
-3.35
-3.42
-2.69
-1.42
0.10
1.58
2.75
3.30
2.93
1.43
-1.19
-4.61
-8.28
-11.54
-13.93
-15.31
-15.87
-15.98
-15.97
-15.94
-15.79
-15.35
-14.53
-13.42
-12.25
-11.24
-10.49
-9.91
-9.36
-8.66
-7.80
-6.85
-5.94
-5.23
-4.76
-4.56
-4.54
-4.62
-4.65
-4.52
-4.13
-3.46
-2.60
-1.72
-1.00
-0.54
-0.36
-0.37
-0.45
-0.50
-0.47
-0.35
-0.13
0.18
0.57
0.98
1.36
1.63
1.70
1.59
1.32
1.00
0.71
0.51
0.39
0.35
0.33
0.27
0.12
-0.15
-0.54
-0.99
-1.39
-1.58
-1.50
-1.16
-0.71
-0.39
-0.38
-0.74
-1.38
-2.09
-2.65
-2.89
-2.79
-2.41
-1.86
-1.26
-0.68
-0.20
0.14
0.35
0.42
0.41
0.40
0.44
0.54
0.68
0.78
0.82
0.80
0.74
0.70
0.67
0.64
0.60
0.56
0.54
0.59
0.69
0.79
0.81
0.69
0.41
0.03
-0.36
-0.66
-0.80
-0.75
-0.56
-0.29
-0.05
0.09
0.08
-0.05
-0.24
-0.43
-0.55
-0.62
-0.70
-0.83
-1.09
-1.45
-1.85
-2.21
-2.40
-2.35
-2.07
-1.62
-1.14
-0.79
-0.67
-0.78
-1.04
-1.30
-1.42
-1.31
-0.95
-0.42
0.17
0.72
1.13
1.34
1.34
1.12
0.75
0.32
-0.06
-0.29
-0.35
-0.30
-0.22
-0.15
-0.08
0.03
0.23
0.51
0.81
1.03
1.06
0.88
0.55
0.15
-0.23
-0.55
-0.84
-1.19
-1.70
-2.40
-3.24
-4.09
-4.77
-5.21
-5.43
-5.65
-6.16
-7.20
-8.80
-10.77
-12.69
-14.11
-14.75
-14.65
-14.24
-14.12
-14.86
-16.67
-19.30
-22.12
-24.47
-25.99
-26.73
-27.19
-28.03
-29.74
-32.49
-36.19
-40.62
-45.38
-49.81
-52.89
-53.45
-50.69
-44.77
-36.96
-29.14
-22.82
-18.17
-13.85
-7.59
2.43
16.51
32.99
48.86
61.01
67.44
67.89
63.53
56.34
48.22
40.58
34.21
29.42
26.32
24.88
24.91
25.96
27.39
28.44
28.48
27.31
25.15
22.58
20.20
18.45
17.46
17.07
16.93
16.64
15.91
14.58
12.75
10.65
8.55
6.72
5.29
4.24
3.45
2.80
2.16
1.52
0.91
0.36
-0.09
-0.44
-0.73
-0.96
-1.13
-1.25
-1.29
-1.28
-1.26
-1.26
-1.28
-1.30
-1.27
-1.15
-0.94
-0.66
-0.35
-0.06
0.17
0.32
0.34
0.26
0.07
-0.15
-0.36
-0.53
-0.66
-0.76
-0.81
-0.73
-0.48
-0.06
0.44
0.81
0.88
0.64
0.20
-0.17
-0.24
0.04
0.54
0.98
1.16
1.01
0.70
0.44
0.38
0.49
0.65
0.69
0.57
0.39
0.32
0.45
0.75
1.08
1.24
1.14
0.83
0.44
0.13
-0.01
0.02
0.17
0.36
0.51
0.59
0.58
0.49
0.31
0.06
-0.24
-0.55
-0.85
-1.12
-1.33
-1.47
-1.54
-1.58
-1.61
-1.65
-1.66
-1.54
-1.25
-0.79
-0.26
0.14
0.25
-0.02
-0.56
-1.16
-1.58
-1.67
-1.42
-1.00
-0.59
-0.35
-0.32
-0.41
-0.49
-0.47
-0.34
-0.17
-0.06
-0.01
0.02
0.12
0.33
0.59
0.79
0.81
0.60
0.23
-0.13
-0.33
-0.27
-0.01
0.34
0.64
0.80
0.77
0.60
0.34
0.04
-0.23
-0.38
-0.35
-0.11
0.31
0.79
1.17
1.32
1.16
0.73
0.16
-0.38
-0.73
-0.82
-0.65
-0.30
0.11
0.48
0.73
0.83
0.79
0.63
0.40
0.09
-0.29
-0.72
-1.14
-1.47
-1.65
-1.65
-1.49
-1.25
-0.99
-0.75
-0.54
-0.34
-0.13
0.07
0.20
0.21
0.10
-0.09
-0.25
-0.31
-0.22
-0.01
0.27
0.57
0.82
1.02
1.12
1.10
0.92
0.59
0.17
-0.26
-0.59
-0.79
-0.84
-0.77
-0.60
-0.35
-0.03
0.31
0.60
0.74
0.67
0.37
-0.11
-0.65
-1.11
-1.36
-1.35
-1.12
-0.81
-0.59
-0.55
-0.68
-0.85
-0.89
-0.71
-0.35
0.03
0.28
0.29
0.11
-0.11
-0.25
-0.23
-0.09
0.08
0.21
0.27
0.28
0.29
0.36
0.49
0.64
0.78
0.85
0.84
0.74
0.61
0.49
0.41
0.36
0.29
0.19
0.02
-0.17
-0.33
-0.46
-0.54
-0.57
-0.54
-0.42
-0.17
0.17
0.52
0.77
0.84
0.72
0.47
0.20
-0.01
-0.15
-0.25
-0.33
-0.41
-0.46
-0.47
-0.41
-0.30
-0.17
-0.00
0.19
0.39
0.57
0.65
0.57
0.33
-0.03
-0.38
-0.61
-0.64
-0.50
-0.26
-0.05
0.08
0.11
0.10
0.10
0.12
0.11
0.02
-0.14
-0.31
-0.33
-0.10
0.39
0.98
1.46
1.60
1.35
0.81
0.19
-0.28
-0.51
-0.51
-0.35
-0.13
0.14
0.49
0.90
1.31
1.57
1.52
1.10
0.40
-0.37
-0.99
-1.34
-1.43
-1.35
-1.19
-1.01
-0.78
-0.48
-0.14
0.15
0.31
0.31
0.19
0.04
-0.08
-0.16
-0.26
-0.41
-0.61
-0.78
-0.84
-0.76
-0.59
-0.44
-0.37
-0.39
-0.43
-0.42
-0.33
-0.23
-0.20
-0.27
-0.43
-0.54
-0.50
-0.24
0.17
0.62
0.93
1.04
0.96
0.76
0.54
0.34
0.18
0.03
-0.10
-0.16
-0.07
0.18
0.53
0.86
1.02
0.89
0.51
0.00
-0.47
-0.77
-0.88
-0.82
-0.66
-0.46
-0.21
0.08
0.39
0.67
0.87
0.94
0.93
0.87
0.77
0.61
0.33
-0.09
-0.61
-1.12
-1.51
-1.66
-1.58
-1.32
-0.97
-0.60
-0.29
-0.07
0.02
-0.01
-0.12
-0.24
-0.30
-0.23
-0.04
0.22
0.46
0.60
0.61
0.48
0.25
0.01
-0.16
-0.17
-0.02
0.26
0.58
0.86
1.01
1.02
0.91
0.73
0.51
0.33
0.22
0.21
0.29
0.43
0.54
0.58
0.49
0.32
0.10
-0.12
-0.32
-0.48
-0.60
-0.64
-0.59
-0.43
-0.19
0.07
0.26
0.32
0.28
0.20
0.17
0.25
0.43
0.65
0.82
0.84
0.72
0.49
0.23
0.01
-0.14
-0.23
-0.28
-0.30
-0.29
-0.21
-0.01
0.31
0.71
1.08
1.30
1.28
0.98
0.47
-0.09
-0.55
-0.81
-0.89
-0.87
-0.83
-0.83
-0.86
-0.86
-0.81
-0.72
-0.63
-0.56
-0.55
-0.56
-0.56
-0.55
-0.54
-0.53
-0.53
-0.56
-0.63
-0.75
-0.89
-0.97
-0.93
-0.69
-0.28
0.20
0.61
0.81
0.78
0.57
0.34
0.18
0.15
0.21
0.25
0.21
0.07
-0.10
-0.21
-0.19
-0.06
0.13
0.29
0.38
0.40
0.36
0.26
0.12
-0.04
-0.14
-0.08
0.16
0.51
0.84
0.94
0.74
0.28
-0.26
-0.69
-0.88
-0.87
-0.77
-0.68
-0.66
-0.65
-0.57
-0.37
-0.11
0.13
0.26
0.24
0.12
-0.03
-0.10
-0.03
0.15
0.37
0.50
0.47
0.24
-0.10
-0.40
-0.53
-0.46
-0.25
-0.04
0.07
0.05
-0.04
-0.08
-0.04
0.08
0.21
0.28
0.30
0.29
0.29
0.29
0.25
0.11
-0.13
-0.41
-0.66
-0.83
-0.90
-0.92
-0.92
-0.92
-0.92
-0.87
-0.77
-0.57
-0.28
0.09
0.51
0.89
1.17
1.27
1.17
0.92
0.62
0.35
0.20
0.18
0.25
0.34
0.39
0.38
0.34
0.33
0.41
0.59
0.81
0.97
0.96
0.72
0.31
-0.13
-0.43
-0.45
-0.15
0.37
0.94
1.32
1.34
0.96
0.28
-0.47
-1.03
-1.21
-0.98
-0.46
0.12
0.53
0.67
0.57
0.34
0.09
-0.14
-0.32
-0.47
-0.56
-0.53
-0.35
-0.03
0.34
0.65
0.78
0.69
0.42
0.05
-0.26
-0.43
-0.39
-0.20
0.03
0.14
0.06
-0.20
-0.51
-0.71
-0.74
-0.64
-0.51
-0.47
-0.52
-0.63
-0.70
-0.70
-0.66
-0.64
-0.65
-0.69
-0.71
-0.69
-0.64
-0.60
-0.57
-0.51
-0.34
-0.03
0.38
0.76
1.01
1.07
0.94
0.71
0.43
0.14
-0.10
-0.25
-0.25
-0.06
0.26
0.59
0.75
0.62
0.24
-0.24
-0.62
-0.75
-0.63
-0.35
-0.05
0.19
0.38
0.56
0.78
1.02
1.21
1.28
1.20
0.99
0.69
0.38
0.11
-0.08
-0.18
-0.18
-0.14
-0.12
-0.15
-0.27
-0.42
-0.53
-0.54
-0.43
-0.23
-0.02
0.13
0.18
0.10
-0.05
-0.22
-0.34
-0.38
-0.34
-0.26
-0.23
-0.30
-0.49
-0.75
-1.00
-1.14
-1.12
-0.93
-0.61
-0.23
0.11
0.34
0.44
0.43
0.36
0.32
0.33
0.36
0.36
0.29
0.17
0.06
0.05
0.17
0.40
0.63
0.80
0.83
0.75
0.58
0.37
0.15
-0.06
-0.22
-0.31
-0.31
-0.24
-0.12
-0.04
-0.03
-0.08
-0.17
-0.21
-0.17
-0.06
0.04
0.05
-0.11
-0.40
-0.69
-0.86
-0.78
-0.49
-0.11
0.19
0.28
0.17
-0.07
-0.32
-0.47
-0.51
-0.49
-0.44
-0.39
-0.35
-0.32
-0.29
-0.28
-0.25
-0.19
-0.08
0.08
0.24
0.34
0.32
0.21
0.05
-0.06
-0.08
-0.01
0.14
0.32
0.49
0.63
0.74
0.80
0.82
0.80
0.75
0.70
0.67
0.64
0.60
0.51
0.35
0.16
-0.00
-0.07
-0.03
0.10
0.23
0.28
0.19
0.02
-0.11
-0.07
0.22
0.69
1.16
1.44
1.40
1.06
0.57
0.16
-0.01
0.11
0.45
0.86
1.21
1.44
1.54
1.56
1.52
1.48
1.45
1.49
1.62
1.89
2.27
2.67
3.00
3.23
3.40
3.64
4.06
4.67
5.35
5.89
6.09
5.89
5.38
4.76
4.28
4.07
4.19
4.56
5.05
5.50
5.68
5.31
4.14
2.05
-0.83
-4.06
-7.05
-9.25
-10.32
-10.30
-9.51
-8.40
-7.35
-6.52
-5.94
-5.50
-5.14
-4.85
-4.63
-4.39
-4.00
-3.25
-2.03
-0.38
1.48
3.21
4.51
5.19
5.28
4.97
4.52
4.12
3.80
3.45
2.88
1.90
0.47
-1.32
-3.21
-4.93
-6.23
-6.99
-7.23
-7.04
-6.60
-6.07
-5.57
-5.19
-4.94
-4.76
-4.53
-4.16
-3.58
-2.80
-1.91
-1.03
-0.29
0.24
0.53
0.59
0.47
0.22
-0.04
-0.23
-0.29
-0.21
-0.06
0.10
0.22
0.27
0.27
0.21
0.11
-0.04
-0.22
-0.41
-0.56
-0.61
-0.55
-0.41
-0.27
-0.19
-0.24
-0.42
-0.70
-0.99
-1.20
-1.29
-1.26
-1.17
-1.14
-1.24
-1.51
-1.88
-2.26
-2.55
-2.72
-2.78
-2.83
-2.94
-3.13
-3.38
-3.66
-3.95
-4.30
-4.77
-5.39
-6.11
-6.81
-7.36
-7.70
-7.86
-7.93
-7.97
-8.00
-7.95
-7.79
-7.54
-7.34
-7.30
-7.49
-7.80
-8.00
-7.83
-7.19
-6.11
-4.85
-3.74
-3.08
-3.05
-3.72
-4.99
-6.70
-8.52
-10.05
-10.80
-10.31
-8.35
-5.01
-0.78
3.63
7.50
10.43
12.38
13.64
14.64
15.64
16.63
17.42
17.76
17.55
16.92
16.14
15.49
15.09
14.88
14.63
14.11
13.21
11.94
10.48
9.08
7.93
7.13
6.64
6.34
6.10
5.83
5.53
5.28
5.16
5.21
5.43
5.75
6.07
6.29
6.30
5.98
5.22
4.00
2.36
0.48
-1.42
-3.07
-4.30
-5.02
-5.28
-5.18
-4.88
-4.49
-4.11
-3.76
-3.45
-3.20
-3.02
-2.89
-2.78
-2.63
-2.38
-2.01
-1.57
-1.18
-0.96
-0.93
-1.06
-1.22
-1.34
-1.42
-1.57
-1.91
-2.49
-3.25
-4.05
-4.71
-5.15
-5.35
-5.37
-5.25
-5.01
-4.59
-3.93
-2.99
-1.79
-0.40
1.01
2.30
3.34
4.09
4.59
4.90
5.10
5.19
5.17
5.02
4.75
4.44
4.22
4.14
4.22
4.35
4.43
4.38
4.19
3.97
3.82
3.84
4.00
4.21
4.29
4.12
3.65
2.97
2.22
1.56
1.10
0.85
0.73
0.63
0.45
0.09
-0.49
-1.25
-2.15
-3.10
-3.98
-4.66
-5.03
-5.04
-4.74
-4.21
-3.57
-2.92
-2.28
-1.64
-0.95
-0.19
0.61
1.34
1.89
2.18
2.19
2.06
1.98
2.16
2.72
3.62
4.68
5.64
6.26
6.47
6.33
6.02
5.69
5.44
5.29
5.23
5.27
5.41
5.52
5.36
4.61
2.99
0.48
-2.65
-5.86
-8.57
-10.42
-11.28
-11.34
-10.87
-10.14
-9.28
-8.36
-7.42
-6.53
-5.76
-5.16
-4.70
-4.28
-3.75
-3.03
-2.14
-1.18
-0.33
0.33
0.75
1.00
1.13
1.20
1.18
1.08
0.91
0.72
0.58
0.51
0.46
0.37
0.18
-0.09
-0.39
-0.63
-0.78
-0.83
-0.81
-0.75
-0.65
-0.52
-0.38
-0.28
-0.25
-0.31
-0.41
-0.48
-0.47
-0.35
-0.12
0.14
0.38
0.52
0.55
0.50
0.43
0.41
0.47
0.55
0.56
0.42
0.09
-0.37
-0.87
-1.30
-1.59
-1.72
-1.73
-1.66
-1.54
-1.40
-1.28
-1.22
-1.25
-1.37
-1.49
-1.53
-1.43
-1.17
-0.84
-0.53
-0.30
-0.19
-0.14
-0.11
-0.09
-0.09
-0.15
-0.29
-0.51
-0.75
-1.00
-1.22
-1.39
-1.51
-1.53
-1.44
-1.23
-0.92
-0.58
-0.30
-0.12
-0.04
-0.04
-0.05
-0.02
0.05
0.13
0.16
0.08
-0.11
-0.36
-0.58
-0.68
-0.63
-0.46
-0.27
-0.15
-0.10
-0.09
-0.06
0.02
0.13
0.16
0.04
-0.23
-0.56
-0.77
-0.71
-0.35
0.23
0.78
1.11
1.09
0.74
0.24
-0.19
-0.34
-0.18
0.22
0.66
0.98
1.06
0.88
0.55
0.18
-0.12
-0.30
-0.34
-0.25
-0.07
0.17
0.42
0.61
0.68
0.64
0.50
0.36
0.33
0.44
0.67
0.94
1.12
1.14
0.98
0.69
0.34
-0.00
-0.30
-0.56
-0.77
-0.92
-0.99
-0.95
-0.79
-0.54
-0.25
0.03
0.27
0.46
0.59
0.67
0.68
0.61
0.46
0.26
0.05
-0.12
-0.21
-0.22
-0.14
-0.03
0.07
0.12
0.07
-0.08
-0.29
-0.53
-0.74
-0.87
-0.90
-0.81
-0.64
-0.41
-0.18
0.02
0.15
0.22
0.22
0.21
0.19
0.18
0.18
0.19
0.18
0.17
0.13
0.08
0.04
0.04
0.12
0.28
0.47
0.62
0.64
0.53
0.30
0.04
-0.19
-0.36
-0.44
-0.47
-0.47
-0.44
-0.40
-0.38
-0.39
-0.45
-0.51
-0.56
-0.54
-0.46
-0.36
-0.30
-0.30
-0.34
-0.36
-0.27
-0.04
0.33
0.74
1.11
1.33
1.37
1.23
0.97
0.67
0.37
0.11
-0.10
-0.29
-0.46
-0.59
-0.68
-0.69
-0.62
-0.48
-0.34
-0.24
-0.20
-0.18
-0.12
0.03
0.28
0.56
0.76
0.80
0.63
0.28
-0.16
-0.58
-0.90
-1.05
-1.04
-0.94
-0.81
-0.74
-0.75
-0.80
-0.85
-0.85
-0.76
-0.60
-0.40
-0.19
-0.02
0.10
0.14
0.12
0.10
0.18
0.42
0.77
1.10
1.25
1.13
0.75
0.28
-0.10
-0.27
-0.24
-0.11
0.01
0.06
0.07
0.08
0.10
0.06
-0.11
-0.44
-0.88
-1.28
-1.51
-1.50
-1.28
-0.97
-0.67
-0.46
-0.32
-0.22
-0.12
-0.07
-0.14
-0.37
-0.73
-1.10
-1.33
-1.31
-1.04
-0.62
-0.19
0.14
0.34
0.42
0.47
0.52
0.59
0.64
0.64
0.57
0.48
0.43
0.50
0.72
1.06
1.42
1.66
1.70
1.54
1.29
1.07
0.99
1.05
1.18
1.30
1.37
1.40
1.41
1.40
1.31
1.11
0.77
0.37
0.03
-0.15
-0.18
-0.13
-0.11
-0.18
-0.32
-0.43
-0.44
-0.32
-0.16
-0.05
-0.05
-0.17
-0.29
-0.33
-0.20
0.07
0.41
0.70
0.86
0.88
0.78
0.65
0.53
0.42
0.31
0.16
-0.03
-0.21
-0.34
-0.36
-0.24
0.00
0.32
0.62
0.84
0.95
0.97
0.94
0.89
0.85
0.81
0.77
0.73
0.72
0.74
0.79
0.80
0.71
0.49
0.15
-0.25
-0.63
-0.90
-1.04
-1.04
-0.92
-0.72
-0.47
-0.21
0.02
0.20
0.31
0.37
0.39
0.35
0.21
-0.06
-0.43
-0.81
-1.10
-1.22
-1.14
-0.93
-0.70
-0.51
-0.40
-0.37
-0.40
-0.48
-0.63
-0.83
-1.02
-1.08
-0.94
-0.59
-0.11
0.34
0.65
0.75
0.69
0.57
0.47
0.46
0.50
0.55
0.58
0.56
0.50
0.42
0.36
0.34
0.41
0.61
0.97
1.49
2.13
2.77
3.26
3.43
3.21
2.63
1.88
1.22
0.87
0.95
1.36
1.89
2.25
2.24
1.82
1.14
0.42
-0.12
-0.36
-0.28
0.06
0.57
1.13
1.64
1.99
2.16
2.21
2.26
2.46
2.86
3.32
3.56
3.27
2.27
0.62
-1.38
-3.30
-4.77
-5.63
-5.94
-5.89
-5.69
-5.46
-5.20
-4.89
-4.48
-3.98
-3.48
-3.04
-2.73
-2.56
-2.48
-2.43
-2.34
-2.20
-2.01
-1.84
-1.75
-1.79
-1.93
-2.11
-2.23
-2.24
-2.13
-1.94
-1.69
-1.40
-1.05
-0.60
-0.05
0.53
1.05
1.44
1.63
1.64
1.48
1.17
0.76
0.28
-0.16
-0.45
-0.49
-0.28
0.10
0.49
0.75
0.78
0.60
0.30
-0.02
-0.24
-0.27
-0.07
0.34
0.88
1.39
1.71
1.73
1.44
0.96
0.46
0.08
-0.15
-0.26
-0.32
-0.33
-0.27
-0.09
0.17
0.44
0.58
0.52
0.27
-0.05
-0.30
-0.38
-0.33
-0.24
-0.24
-0.37
-0.58
-0.76
-0.84
-0.79
-0.68
-0.59
-0.57
-0.63
-0.71
-0.73
-0.64
-0.42
-0.10
0.27
0.63
0.89
1.02
0.99
0.85
0.69
0.62
0.68
0.82
0.97
1.06
1.06
1.02
0.98
0.97
0.93
0.81
0.60
0.33
0.12
0.05
0.12
0.25
0.30
0.19
-0.07
-0.32
-0.42
-0.26
0.12
0.58
0.93
1.08
1.02
0.83
0.63
0.53
0.51
0.50
0.46
0.33
0.17
0.07
0.10
0.28
0.54
0.79
0.95
1.01
1.03
1.07
1.15
1.26
1.32
1.30
1.19
1.04
0.88
0.73
0.56
0.30
-0.05
-0.45
-0.86
-1.22
-1.51
-1.76
-1.99
-2.23
-2.44
-2.58
-2.61
-2.53
-2.36
-2.14
-1.90
-1.66
-1.44
-1.29
-1.24
-1.29
-1.39
-1.45
-1.36
-1.13
-0.85
-0.64
-0.60
-0.68
-0.75
-0.69
-0.45
-0.10
0.25
0.52
0.71
0.88
1.04
1.13
1.05
0.69
0.12
-0.49
-0.90
-0.99
-0.76
-0.37
0.00
0.25
0.39
0.50
0.62
0.75
0.78
0.65
0.36
-0.04
-0.40
-0.61
-0.61
-0.43
-0.15
0.11
0.23
0.17
-0.03
-0.28
-0.47
-0.48
-0.32
-0.05
0.18
0.26
0.16
-0.03
-0.20
-0.22
-0.09
0.09
0.15
-0.01
-0.38
-0.82
-1.11
-1.12
-0.83
-0.36
0.09
0.36
0.36
0.12
-0.26
-0.63
-0.88
-0.96
-0.88
-0.71
-0.56
-0.51
-0.58
-0.75
-0.91
-1.01
-1.02
-1.01
-1.05
-1.18
-1.39
-1.60
-1.76
-1.88
-2.03
-2.28
-2.64
-3.08
-3.49
-3.79
-3.90
-3.79
-3.42
-2.76
-1.82
-0.68
0.52
1.61
2.46
3.04
3.38
3.58
3.67
3.66
3.50
3.17
2.71
2.19
1.71
1.38
1.25
1.35
1.65
2.08
2.53
2.87
3.01
2.88
2.49
1.92
1.29
0.76
0.44
0.41
0.62
0.96
1.27
1.41
1.30
1.01
0.67
0.37
0.19
0.10
0.04
-0.03
-0.13
-0.21
-0.23
-0.15
0.02
0.24
0.46
0.60
0.64
0.56
0.42
0.26
0.13
0.06
0.04
0.04
-0.02
-0.17
-0.41
-0.69
-0.91
-0.98
-0.84
-0.49
-0.01
0.49
0.91
1.16
1.20
1.05
0.77
0.46
0.19
0.01
-0.06
-0.04
0.01
0.04
-0.01
-0.16
-0.40
-0.70
-0.97
-1.11
-1.03
-0.73
-0.28
0.18
0.51
0.64
0.55
0.30
-0.01
-0.31
-0.54
-0.66
-0.65
-0.54
-0.38
-0.25
-0.19
-0.20
-0.20
-0.13
0.01
0.18
0.24
0.14
-0.13
-0.49
-0.80
-0.94
-0.86
-0.63
-0.32
-0.04
0.16
0.25
0.28
0.28
0.30
0.34
0.39
0.41
0.38
0.33
0.29
0.29
0.31
0.27
0.09
-0.23
-0.57
-0.76
-0.64
-0.21
0.40
0.91
1.10
0.89
0.41
-0.09
-0.35
-0.26
0.11
0.56
0.90
1.00
0.87
0.61
0.33
0.07
-0.14
-0.35
-0.53
-0.65
-0.64
-0.47
-0.16
0.20
0.51
0.68
0.70
0.60
0.44
0.29
0.16
0.06
-0.02
-0.09
-0.14
-0.19
-0.23
-0.28
-0.34
-0.40
-0.48
-0.60
-0.80
-1.08
-1.36
-1.52
-1.45
-1.11
-0.58
-0.00
0.49
0.81
0.92
0.82
0.59
0.29
0.02
-0.14
-0.17
-0.10
-0.03
-0.05
-0.20
-0.43
-0.64
-0.73
-0.69
-0.57
-0.44
-0.33
-0.20
-0.02
0.21
0.45
0.62
0.65
0.55
0.36
0.19
0.10
0.15
0.31
0.54
0.74
0.84
0.78
0.61
0.38
0.20
0.11
0.13
0.18
0.21
0.20
0.17
0.17
0.25
0.38
0.50
0.54
0.48
0.36
0.26
0.24
0.31
0.43
0.52
0.50
0.37
0.15
-0.08
-0.30
-0.50
-0.67
-0.78
-0.83
-0.80
-0.70
-0.59
-0.50
-0.47
-0.45
-0.43
-0.37
-0.30
-0.27
-0.33
-0.48
-0.66
-0.80
-0.83
-0.74
-0.56
-0.32
-0.09
0.09
0.18
0.19
0.14
0.08
0.05
0.08
0.18
0.31
0.47
0.61
0.73
0.82
0.85
0.81
0.69
0.49
0.25
0.03
-0.12
-0.15
-0.08
0.05
0.16
0.19
0.11
-0.07
-0.31
-0.55
-0.74
-0.81
-0.72
-0.45
-0.05
0.37
0.67
0.75
0.58
0.22
-0.20
-0.54
-0.71
-0.73
-0.64
-0.51
-0.36
-0.21
-0.09
-0.00
0.03
-0.02
-0.13
-0.31
-0.50
-0.67
-0.75
-0.70
-0.52
-0.25
0.04
0.25
0.31
0.18
-0.09
-0.38
-0.56
-0.54
-0.28
0.15
0.62
0.99
1.18
1.16
0.98
0.70
0.36
0.03
-0.27
-0.47
-0.51
-0.38
-0.08
0.27
0.53
0.55
0.31
-0.13
-0.61
-0.95
-1.02
-0.82
-0.46
-0.11
0.11
0.14
0.05
-0.02
0.04
0.22
0.46
0.58
0.51
0.27
-0.01
-0.14
-0.04
0.27
0.61
0.79
0.70
0.42
0.11
-0.05
-0.01
0.14
0.24
0.17
-0.08
-0.37
-0.54
-0.49
-0.25
0.08
0.38
0.57
0.70
0.81
0.95
1.11
1.20
1.16
0.93
0.56
0.13
-0.28
-0.57
-0.75
-0.82
-0.83
-0.80
-0.74
-0.65
-0.53
-0.35
-0.11
0.18
0.46
0.69
0.81
0.80
0.64
0.38
0.09
-0.12
-0.20
-0.15
-0.04
0.02
-0.05
-0.25
-0.50
-0.68
-0.69
-0.50
-0.17
0.19
0.47
0.61
0.59
0.43
0.16
-0.13
-0.37
-0.48
-0.40
-0.15
0.20
0.54
0.80
0.97
1.10
1.26
1.48
1.73
1.96
2.11
2.16
2.18
2.24
2.44
2.78
3.22
3.70
4.14
4.53
4.92
5.37
5.92
6.54
7.19
7.79
8.34
8.92
9.58
10.37
11.26
12.15
12.98
13.77
14.60
15.57
16.77
18.19
19.74
21.34
22.94
24.53
26.18
27.91
29.69
31.42
32.95
34.12
34.82
35.00
34.65
33.80
32.45
30.61
28.33
25.81
23.39
21.55
20.78
21.47
23.78
27.63
32.75
38.72
44.98
50.75
55.06
56.77
54.89
48.80
38.56
24.93
9.21
-6.98
-22.08
-34.72
-43.97
-49.27
-50.50
-47.93
-42.25
-34.57
-26.45
-19.81
-16.52
-17.94
-24.38
-34.75
-46.88
-58.11
-66.26
-70.31
-70.53
-68.08
-64.30
-60.13
-55.97
-51.93
-48.15
-45.09
-43.34
-43.33
-44.98
-47.65
-50.34
-52.08
-52.15
-50.27
-46.54
-41.41
-35.51
-29.61
-24.46
-20.74
-18.86
-18.88
-20.59
-23.64
-27.76
-32.66
-37.94
-42.74
-45.75
-45.49
-41.03
-32.60
-21.80
-11.18
-3.28
0.25
-0.81
-5.47
-12.11
-19.06
-24.87
-28.25
-28.05
-23.44
-14.40
-2.05
11.46
23.52
32.03
36.07
36.12
33.66
30.44
27.86
26.59
26.66
27.60
28.76
29.40
28.93
26.98
23.57
19.10
14.26
9.79
6.24
3.79
2.22
1.02
-0.42
-2.57
-5.60
-9.16
-12.43
-14.19
-13.21
-8.69
-0.69
9.76
20.86
30.67
37.73
41.53
42.43
41.37
39.35
37.08
34.87
32.72
30.57
28.36
26.08
23.70
21.16
18.36
15.25
11.93
8.61
5.60
3.18
1.52
0.59
0.23
0.13
-0.02
-0.40
-1.03
-1.72
-2.23
-2.31
-1.87
-1.02
0.00
0.92
1.51
1.65
1.38
0.83
0.16
-0.48
-0.99
-1.34
-1.55
-1.65
-1.72
-1.80
-1.92
-2.11
-2.32
-2.50
-2.55
-2.38
-1.93
-1.21
-0.31
0.62
1.40
1.92
2.14
2.11
1.93
1.70
1.49
1.28
1.02
0.64
0.13
-0.43
-0.96
-1.31
-1.43
-1.35
-1.14
-0.92
-0.78
-0.71
-0.64
-0.46
-0.07
0.55
1.30
2.02
2.55
2.79
2.71
2.38
1.91
1.41
1.03
0.87
1.00
1.39
1.98
2.66
3.28
3.75
3.99
3.99
3.75
3.38
2.99
2.70
2.58
2.52
2.29
1.61
0.33
-1.44
-3.37
-5.04
-6.13
-6.56
-6.50
-6.22
-5.96
-5.80
-5.70
-5.60
-5.46
-5.33
-5.22
-5.17
-5.17
-5.28
-5.56
-6.07
-6.79
-7.56
-8.10
-8.19
-7.78
-7.11
-6.64
-6.88
-8.11
-10.26
-12.90
-15.37
-17.07
-17.74
-17.52
-16.99
-16.88
-17.75
-19.79
-22.62
-25.50
-27.70
-28.80
-28.87
-28.48
-28.31
-28.95
-30.76
-33.95
-38.40
-43.24
-46.59
-45.73
-38.04
-22.43
-0.31
24.42
46.71
62.40
69.71
69.52
64.41
57.04
49.10
41.13
33.23
25.81
19.81
16.23
15.45
16.82
18.94
20.34
20.06
18.01
14.91
11.77
9.47
8.38
8.31
8.65
8.74
8.14
6.82
5.14
3.56
2.47
2.03
2.13
2.52
2.92
3.14
3.11
2.82
2.38
1.89
1.47
1.24
1.22
1.37
1.50
1.43
1.08
0.51
-0.11
-0.56
-0.72
-0.62
-0.42
-0.28
-0.29
-0.41
-0.54
-0.54
-0.39
-0.17
-0.03
-0.09
-0.39
-0.81
-1.16
-1.27
-1.09
-0.70
-0.28
0.00
0.10
0.09
0.11
0.25
0.49
0.73
0.83
0.71
0.40
-0.02
-0.43
-0.76
-0.99
-1.08
-1.03
-0.82
-0.47
-0.02
0.43
0.81
1.05
1.13
1.06
0.89
0.67
0.45
0.25
0.09
-0.05
-0.19
-0.32
-0.46
-0.56
-0.59
-0.52
-0.35
-0.14
0.07
0.22
0.27
0.21
0.06
-0.13
-0.27
-0.32
-0.26
-0.15
-0.08
-0.13
-0.29
-0.52
-0.69
-0.72
-0.55
-0.23
0.10
0.31
0.26
-0.07
-0.61
-1.20
-1.65
-1.81
-1.67
-1.30
-0.88
-0.54
-0.34
-0.26
-0.20
-0.12
0.00
0.12
0.17
0.16
0.12
0.11
0.19
0.36
0.58
0.80
0.95
1.04
1.07
1.07
1.03
0.95
0.83
0.65
0.44
0.19
-0.07
-0.30
-0.45
-0.47
-0.33
-0.07
0.23
0.43
0.48
0.36
0.15
-0.05
-0.18
-0.26
-0.33
-0.42
-0.46
-0.38
-0.12
0.28
0.70
1.01
1.14
1.10
0.96
0.78
0.60
0.43
0.25
0.09
-0.06
-0.20
-0.37
-0.57
-0.80
-0.98
-1.05
-0.96
-0.73
-0.43
-0.11
0.19
0.44
0.64
0.75
0.77
0.71
0.61
0.53
0.48
0.40
0.25
-0.03
-0.36
-0.62
-0.68
-0.51
-0.21
0.07
0.18
0.09
-0.13
-0.34
-0.43
-0.38
-0.26
-0.17
-0.15
-0.20
-0.24
-0.23
-0.13
0.00
0.10
0.10
-0.02
-0.19
-0.36
-0.48
-0.55
-0.61
-0.70
-0.79
-0.86
-0.84
-0.70
-0.47
-0.21
0.00
0.13
0.16
0.15
0.15
0.19
0.27
0.38
0.48
0.54
0.59
0.64
0.73
0.82
0.85
0.74
0.43
-0.02
-0.51
-0.87
-1.00
-0.88
-0.59
-0.24
0.06
0.24
0.31
0.31
0.25
0.14
-0.01
-0.20
-0.40
-0.53
-0.52
-0.35
-0.04
0.28
0.51
0.59
0.55
0.47
0.44
0.45
0.46
0.39
0.22
0.04
-0.05
0.04
0.27
0.53
0.67
0.60
0.34
0.00
-0.29
-0.46
-0.48
-0.39
-0.28
-0.21
-0.22
-0.34
-0.51
-0.66
-0.70
-0.55
-0.21
0.27
0.73
1.02
1.04
0.78
0.34
-0.13
-0.46
-0.55
-0.40
-0.08
0.29
0.57
0.65
0.49
0.08
-0.47
-1.06
-1.53
-1.77
-1.72
-1.38
-0.87
-0.32
0.11
0.35
0.38
0.27
0.10
-0.05
-0.16
-0.22
-0.23
-0.18
-0.02
0.23
0.53
0.78
0.88
0.79
0.52
0.17
-0.15
-0.29
-0.20
0.12
0.56
0.98
1.21
1.20
0.95
0.55
0.11
-0.28
-0.59
-0.82
-0.94
-0.92
-0.72
-0.35
0.09
0.46
0.65
0.62
0.46
0.30
0.23
0.29
0.38
0.43
0.38
0.27
0.17
0.18
0.29
0.46
0.59
0.62
0.52
0.35
0.16
0.01
-0.08
-0.12
-0.13
-0.11
-0.05
0.03
0.14
0.24
0.30
0.29
0.19
-0.01
-0.29
-0.58
-0.84
-1.00
-1.08
-1.12
-1.16
-1.22
-1.24
-1.14
-0.87
-0.45
-0.02
0.27
0.31
0.12
-0.16
-0.33
-0.27
0.02
0.43
0.78
0.93
0.83
0.51
0.08
-0.31
-0.55
-0.57
-0.36
0.00
0.39
0.67
0.77
0.68
0.46
0.20
-0.08
-0.39
-0.73
-1.05
-1.24
-1.18
-0.83
-0.28
0.30
0.70
0.84
0.73
0.51
0.33
0.26
0.31
0.37
0.35
0.18
-0.09
-0.35
-0.46
-0.33
0.01
0.44
0.77
0.89
0.74
0.41
0.03
-0.29
-0.48
-0.58
-0.63
-0.68
-0.72
-0.69
-0.55
-0.30
-0.02
0.20
0.25
0.13
-0.06
-0.18
-0.10
0.18
0.55
0.84
0.89
0.70
0.38
0.09
-0.04
-0.01
0.12
0.24
0.26
0.19
0.06
-0.08
-0.19
-0.27
-0.34
-0.42
-0.47
-0.47
-0.36
-0.15
0.13
0.42
0.66
0.82
0.89
0.89
0.83
0.73
0.61
0.50
0.43
0.39
0.34
0.24
0.06
-0.17
-0.36
-0.44
-0.34
-0.09
0.24
0.57
0.79
0.87
0.78
0.60
0.41
0.32
0.41
0.67
1.02
1.32
1.48
1.48
1.39
1.30
1.25
1.19
1.02
0.67
0.14
-0.43
-0.88
-1.09
-1.06
-0.88
-0.70
-0.63
-0.69
-0.83
-0.99
-1.13
-1.24
-1.32
-1.35
-1.32
-1.19
-0.95
-0.66
-0.39
-0.22
-0.21
-0.38
-0.66
-0.95
-1.15
-1.16
-0.97
-0.61
-0.19
0.14
0.31
0.26
0.03
-0.26
-0.52
-0.68
-0.73
-0.69
-0.60
-0.49
-0.33
-0.12
0.16
0.44
0.64
0.67
0.49
0.14
-0.23
-0.51
-0.58
-0.45
-0.19
0.06
0.22
0.23
0.13
0.00
-0.05
0.03
0.25
0.51
0.74
0.88
0.91
0.91
0.92
0.95
0.98
0.95
0.84
0.69
0.56
0.50
0.51
0.56
0.55
0.46
0.28
0.07
-0.13
-0.29
-0.41
-0.49
-0.52
-0.49
-0.40
-0.25
-0.09
0.03
0.09
0.10
0.13
0.22
0.43
0.70
0.92
0.94
0.66
0.08
-0.62
-1.20
-1.42
-1.24
-0.74
-0.19
0.19
0.24
-0.02
-0.46
-0.90
-1.21
-1.36
-1.36
-1.24
-1.01
-0.67
-0.24
0.25
0.70
1.00
1.08
0.92
0.59
0.20
-0.15
-0.39
-0.51
-0.55
-0.56
-0.57
-0.59
-0.62
-0.63
-0.62
-0.59
-0.55
-0.52
-0.49
-0.44
-0.37
-0.25
-0.10
0.07
0.25
0.43
0.61
0.81
1.00
1.15
1.20
1.12
0.95
0.78
0.73
0.85
1.09
1.35
1.47
1.40
1.15
0.86
0.64
0.57
0.62
0.71
0.77
0.81
0.87
0.97
1.14
1.32
1.49
1.61
1.69
1.74
1.76
1.77
1.75
1.72
1.73
1.83
2.04
2.32
2.60
2.80
2.90
2.98
3.15
3.55
4.20
4.95
5.50
5.49
4.68
3.05
0.89
-1.39
-3.33
-4.65
-5.31
-5.45
-5.29
-4.99
-4.63
-4.22
-3.76
-3.28
-2.89
-2.67
-2.68
-2.86
-3.12
-3.29
-3.27
-3.05
-2.69
-2.35
-2.15
-2.13
-2.22
-2.31
-2.28
-2.10
-1.82
-1.53
-1.30
-1.18
-1.13
-1.14
-1.18
-1.26
-1.39
-1.52
-1.56
-1.41
-1.06
-0.57
-0.10
0.21
0.31
0.21
0.02
-0.18
-0.36
-0.49
-0.62
-0.72
-0.74
-0.64
-0.39
-0.04
0.32
0.61
0.74
0.68
0.47
0.15
-0.17
-0.42
-0.52
-0.44
-0.25
-0.03
0.13
0.18
0.17
0.19
0.31
0.56
0.89
1.22
1.46
1.57
1.53
1.38
1.13
0.84
0.54
0.30
0.15
0.12
0.22
0.41
0.63
0.82
0.91
0.86
0.66
0.32
-0.12
-0.58
-0.99
-1.26
-1.33
-1.14
-0.73
-0.20
0.32
0.65
0.70
0.47
0.09
-0.29
-0.51
-0.50
-0.29
0.05
0.44
0.79
1.07
1.20
1.12
0.79
0.25
-0.34
-0.81
-0.96
-0.75
-0.30
0.18
0.46
0.43
0.09
-0.38
-0.84
-1.12
-1.18
-1.02
-0.73
-0.39
-0.07
0.17
0.28
0.26
0.14
-0.02
-0.16
-0.22
-0.18
-0.04
0.15
0.33
0.47
0.53
0.51
0.44
0.37
0.30
0.24
0.20
0.16
0.13
0.12
0.15
0.17
0.15
0.03
-0.19
-0.48
-0.73
-0.88
-0.86
-0.70
-0.42
-0.10
0.21
0.44
0.54
0.46
0.21
-0.14
-0.47
-0.67
-0.70
-0.59
-0.44
-0.34
-0.32
-0.32
-0.23
0.04
0.48
0.99
1.42
1.62
1.57
1.33
1.03
0.79
0.67
0.63
0.58
0.45
0.21
-0.08
-0.32
-0.43
-0.39
-0.24
-0.07
0.04
0.04
-0.05
-0.20
-0.36
-0.52
-0.69
-0.87
-1.03
-1.11
-1.05
-0.84
-0.55
-0.27
-0.10
-0.02
0.02
0.14
0.38
0.68
0.91
0.92
0.66
0.19
-0.31
-0.68
-0.80
-0.67
-0.35
0.07
0.49
0.86
1.13
1.25
1.21
1.04
0.77
0.51
0.32
0.25
0.30
0.41
0.53
0.58
0.55
0.43
0.31
0.23
0.22
0.25
0.22
0.05
-0.28
-0.68
-1.00
-1.11
-0.99
-0.76
-0.59
-0.62
-0.88
-1.24
-1.47
-1.44
-1.12
-0.67
-0.24
0.03
0.16
0.27
0.47
0.78
1.10
1.25
1.09
0.59
-0.11
-0.80
-1.30
-1.48
-1.37
-1.03
-0.57
-0.12
0.24
0.43
0.42
0.21
-0.15
-0.54
-0.83
-0.91
-0.75
-0.40
0.01
0.33
0.49
0.46
0.31
0.13
-0.00
-0.08
-0.10
-0.09
-0.05
0.04
0.20
0.37
0.50
0.50
0.36
0.12
-0.08
-0.13
0.04
0.38
0.77
1.05
1.12
0.93
0.54
0.05
-0.42
-0.73
-0.82
-0.66
-0.33
0.05
0.34
0.49
0.51
0.45
0.40
0.36
0.33
0.29
0.26
0.28
0.41
0.63
0.88
1.03
0.97
0.71
0.32
-0.07
-0.34
-0.40
-0.27
0.01
0.33
0.58
0.67
0.53
0.19
-0.27
-0.73
-1.08
-1.25
-1.22
-1.03
-0.72
-0.39
-0.12
0.01
-0.04
-0.25
-0.50
-0.67
-0.68
-0.50
-0.23
0.02
0.18
0.23
0.22
0.20
0.17
0.09
-0.07
-0.29
-0.49
-0.58
-0.55
-0.45
-0.36
-0.33
-0.31
-0.24
-0.06
0.25
0.61
0.92
1.08
1.05
0.84
0.51
0.15
-0.14
-0.30
-0.30
-0.15
0.05
0.26
0.43
0.57
0.70
0.80
0.83
0.71
0.39
-0.06
-0.53
-0.88
-1.02
-0.97
-0.80
-0.64
-0.58
-0.64
-0.74
-0.80
-0.73
-0.53
-0.23
0.08
0.30
0.37
0.30
0.14
-0.05
-0.19
-0.27
-0.26
-0.19
-0.06
0.10
0.28
0.47
0.64
0.77
0.87
0.92
0.94
0.89
0.81
0.67
0.51
0.32
0.14
-0.04
-0.19
-0.31
-0.39
-0.40
-0.34
-0.21
-0.04
0.10
0.17
0.12
-0.01
-0.15
-0.22
-0.17
-0.00
0.19
0.33
0.36
0.26
0.08
-0.11
-0.26
-0.32
-0.25
-0.07
0.17
0.38
0.49
0.50
0.44
0.41
0.46
0.57
0.66
0.66
0.50
0.19
-0.19
-0.54
-0.79
-0.92
-0.95
-0.91
-0.83
-0.76
-0.67
-0.55
-0.37
-0.13
0.15
0.41
0.57
0.57
0.41
0.14
-0.16
-0.43
-0.61
-0.69
-0.67
-0.58
-0.42
-0.25
-0.10
0.00
0.03
0.01
-0.05
-0.13
-0.23
-0.35
-0.47
-0.56
-0.56
-0.43
-0.20
0.03
0.17
0.16
0.01
-0.20
-0.36
-0.40
-0.28
-0.02
0.31
0.64
0.88
0.95
0.84
0.54
0.14
-0.27
-0.56
-0.68
-0.62
-0.42
-0.17
0.08
0.26
0.36
0.37
0.31
0.21
0.12
0.08
0.14
0.27
0.44
0.55
0.55
0.40
0.12
-0.22
-0.51
-0.65
-0.59
-0.33
0.03
0.36
0.52
0.46
0.21
-0.11
-0.36
-0.45
-0.35
-0.12
0.15
0.37
0.48
0.46
0.31
0.09
-0.14
-0.31
-0.36
-0.30
-0.15
0.04
0.24
0.43
0.60
0.70
0.70
0.54
0.25
-0.09
-0.37
-0.49
-0.40
-0.16
0.14
0.39
0.53
0.55
0.48
0.36
0.21
0.01
-0.24
-0.51
-0.71
-0.78
-0.68
-0.47
-0.27
-0.24
-0.43
-0.78
-1.15
-1.37
-1.33
-1.06
-0.69
-0.35
-0.11
0.02
0.10
0.19
0.32
0.47
0.58
0.62
0.57
0.46
0.34
0.21
0.11
0.07
0.10
0.22
0.40
0.58
0.72
0.76
0.71
0.58
0.43
0.26
0.09
-0.10
-0.27
-0.38
-0.38
-0.26
-0.04
0.19
0.35
0.39
0.30
0.10
-0.14
-0.35
-0.44
-0.38
-0.19
0.04
0.19
0.18
0.02
-0.19
-0.32
-0.29
-0.10
0.13
0.27
0.22
0.01
-0.27
-0.46
-0.47
-0.28
0.03
0.33
0.50
0.49
0.33
0.13
-0.00
-0.01
0.10
0.24
0.32
0.29
0.13
-0.10
-0.31
-0.43
-0.44
-0.34
-0.18
-0.00
0.14
0.24
0.30
0.34
0.36
0.38
0.38
0.36
0.30
0.23
0.15
0.07
-0.02
-0.14
-0.33
-0.58
-0.86
-1.10
-1.19
-1.08
-0.78
-0.35
0.07
0.36
0.49
0.47
0.39
0.36
0.41
0.51
0.57
0.51
0.32
0.03
-0.28
-0.56
-0.75
-0.85
-0.81
-0.61
-0.25
0.21
0.65
0.92
0.96
0.81
0.59
0.41
0.30
0.17
-0.05
-0.39
-0.74
-0.96
-0.90
-0.59
-0.14
0.25
0.47
0.51
0.45
0.39
0.39
0.44
0.49
0.47
0.39
0.25
0.09
-0.04
-0.10
-0.06
0.07
0.24
0.40
0.52
0.55
0.53
0.47
0.37
0.22
0.00
-0.27
-0.52
-0.67
-0.67
-0.55
-0.39
-0.28
-0.27
-0.29
-0.28
-0.16
0.06
0.28
0.39
0.31
0.03
-0.38
-0.80
-1.12
-1.21
-1.04
-0.64
-0.12
0.35
0.61
0.54
0.17
-0.38
-0.91
-1.23
-1.24
-0.98
-0.55
-0.10
0.26
0.47
0.54
0.49
0.39
0.28
0.18
0.13
0.15
0.23
0.36
0.51
0.65
0.74
0.77
0.76
0.72
0.69
0.64
0.54
0.35
0.05
-0.34
-0.73
-1.02
-1.14
-1.08
-0.84
-0.49
-0.07
0.35
0.73
1.00
1.11
1.00
0.74
0.42
0.16
0.05
0.06
0.08
0.01
-0.20
-0.49
-0.77
-0.95
-0.98
-0.91
-0.76
-0.57
-0.34
-0.08
0.14
0.27
0.26
0.15
0.03
0.00
0.07
0.19
0.25
0.19
0.02
-0.17
-0.32
-0.39
-0.39
-0.38
-0.35
-0.31
-0.23
-0.13
-0.06
-0.05
-0.11
-0.17
-0.18
-0.09
0.12
0.38
0.64
0.82
0.89
0.82
0.65
0.43
0.22
0.09
0.07
0.18
0.37
0.59
0.80
0.93
0.93
0.74
0.36
-0.14
-0.61
-0.89
-0.88
-0.59
-0.15
0.27
0.55
0.64
0.59
0.46
0.30
0.11
-0.13
-0.40
-0.71
-0.98
-1.17
-1.24
-1.16
-0.96
-0.68
-0.38
-0.09
0.14
0.31
0.43
0.53
0.62
0.71
0.78
0.80
0.75
0.59
0.30
-0.09
-0.54
-0.94
-1.17
-1.17
-0.93
-0.55
-0.13
0.22
0.46
0.57
0.60
0.57
0.49
0.36
0.18
-0.01
-0.19
-0.32
-0.37
-0.33
-0.23
-0.12
-0.05
-0.05
-0.10
-0.14
-0.09
0.07
0.27
0.39
0.30
-0.02
-0.46
-0.81
-0.92
-0.75
-0.39
-0.03
0.17
0.17
0.01
-0.20
-0.35
-0.39
-0.33
-0.21
-0.06
0.11
0.27
0.38
0.41
0.36
0.25
0.14
0.11
0.20
0.39
0.66
0.91
1.08
1.10
0.98
0.72
0.38
0.04
-0.24
-0.41
-0.45
-0.38
-0.25
-0.11
0.03
0.16
0.27
0.31
0.27
0.15
0.00
-0.11
-0.13
-0.09
-0.03
-0.04
-0.15
-0.34
-0.55
-0.71
-0.75
-0.66
-0.47
-0.24
-0.04
0.09
0.10
-0.02
-0.20
-0.34
-0.35
-0.19
0.09
0.41
0.67
0.82
0.84
0.74
0.58
0.39
0.21
0.07
0.00
-0.02
-0.01
-0.04
-0.14
-0.33
-0.57
-0.77
-0.88
-0.88
-0.80
-0.69
-0.56
-0.41
-0.26
-0.08
0.07
0.15
0.16
0.14
0.15
0.25
0.45
0.67
0.82
0.84
0.72
0.53
0.32
0.14
-0.05
-0.24
-0.43
-0.56
-0.56
-0.40
-0.13
0.16
0.37
0.46
0.43
0.36
0.28
0.22
0.18
0.14
0.07
-0.00
-0.07
-0.15
-0.23
-0.32
-0.40
-0.42
-0.35
-0.20
-0.01
0.19
0.35
0.46
0.54
0.58
0.55
0.45
0.29
0.08
-0.10
-0.23
-0.31
-0.35
-0.39
-0.44
-0.48
-0.50
-0.50
-0.49
-0.48
-0.47
-0.43
-0.33
-0.20
-0.06
0.03
0.04
-0.01
-0.09
-0.13
-0.09
0.03
0.18
0.29
0.31
0.26
0.19
0.21
0.34
0.59
0.85
1.02
1.06
0.98
0.87
0.81
0.83
0.90
0.93
0.85
0.65
0.40
0.17
0.02
-0.08
-0.17
-0.31
-0.54
-0.83
-1.08
-1.20
-1.16
-0.96
-0.72
-0.51
-0.40
-0.43
-0.51
-0.59
-0.60
-0.56
-0.52
-0.55
-0.68
-0.87
-1.02
-1.00
-0.74
-0.28
0.26
0.68
0.84
0.73
0.44
0.14
-0.04
-0.08
-0.03
0.03
0.05
0.04
0.06
0.14
0.24
0.30
0.26
0.15
0.01
-0.08
-0.09
-0.04
0.04
0.12
0.21
0.31
0.42
0.52
0.57
0.58
0.56
0.52
0.48
0.42
0.32
0.18
0.04
-0.06
-0.08
-0.04
0.01
0.05
0.07
0.05
-0.01
-0.13
-0.35
-0.64
-0.91
-1.04
-0.93
-0.56
-0.03
0.49
0.83
0.87
0.61
0.16
-0.32
-0.69
-0.86
-0.83
-0.66
-0.42
-0.18
0.02
0.19
0.31
0.36
0.32
0.21
0.07
-0.01
0.03
0.19
0.41
0.57
0.59
0.45
0.20
-0.04
-0.21
-0.27
-0.28
-0.29
-0.33
-0.38
-0.38
-0.31
-0.17
-0.01
0.08
0.10
0.04
-0.05
-0.13
-0.20
-0.24
-0.26
-0.20
-0.04
0.19
0.43
0.58
0.55
0.36
0.08
-0.13
-0.18
-0.04
0.21
0.41
0.42
0.18
-0.27
-0.77
-1.14
-1.26
-1.11
-0.80
-0.49
-0.33
-0.35
-0.48
-0.56
-0.44
-0.09
0.39
0.85
1.14
1.22
1.20
1.18
1.24
1.37
1.47
1.45
1.26
0.95
0.61
0.34
0.20
0.18
0.23
0.26
0.17
-0.07
-0.45
-0.88
-1.20
-1.28
-1.10
-0.72
-0.33
-0.08
-0.05
-0.21
-0.44
-0.65
-0.78
-0.84
-0.84
-0.81
-0.76
-0.72
-0.71
-0.76
-0.83
-0.86
-0.76
-0.52
-0.20
0.05
0.07
-0.20
-0.65
-1.12
-1.45
-1.59
-1.57
-1.49
-1.45
-1.48
-1.55
-1.65
-1.75
-1.85
-1.93
-1.94
-1.81
-1.46
-0.86
-0.02
0.93
1.83
2.54
2.95
3.05
2.91
2.65
2.35
2.05
1.75
1.39
0.99
0.57
0.19
-0.06
-0.15
-0.07
0.14
0.43
0.75
1.01
1.19
1.22
1.09
0.82
0.42
-0.04
-0.49
-0.82
-0.97
-0.91
-0.73
-0.52
-0.39
-0.33
-0.28
-0.13
0.16
0.53
0.88
1.06
1.02
0.79
0.48
0.21
0.07
0.05
0.13
0.26
0.38
0.47
0.52
0.52
0.48
0.42
0.33
0.22
0.12
0.02
-0.06
-0.08
-0.06
0.00
0.06
0.08
0.01
-0.10
-0.21
-0.21
-0.06
0.21
0.48
0.63
0.58
0.39
0.19
0.11
0.18
0.30
0.33
0.20
-0.04
-0.22
-0.21
-0.00
0.28
0.47
0.44
0.23
-0.03
-0.21
-0.26
-0.22
-0.21
-0.30
-0.50
-0.71
-0.87
-0.90
-0.81
-0.62
-0.37
-0.13
0.08
0.23
0.29
0.27
0.21
0.15
0.14
0.21
0.36
0.52
0.63
0.62
0.46
0.19
-0.10
-0.30
-0.35
-0.27
-0.17
-0.15
-0.25
-0.45
-0.62
-0.64
-0.47
-0.15
0.21
0.50
0.64
0.62
0.49
0.31
0.11
-0.07
-0.19
-0.23
-0.15
0.04
0.31
0.59
0.80
0.89
0.82
0.59
0.21
-0.27
-0.77
-1.18
-1.36
-1.23
-0.81
-0.25
0.28
0.60
0.68
0.55
0.35
0.15
-0.02
-0.20
-0.40
-0.57
-0.63
-0.53
-0.27
0.02
0.20
0.20
0.04
-0.14
-0.24
-0.20
-0.08
-0.01
-0.03
-0.15
-0.26
-0.28
-0.17
0.04
0.26
0.41
0.46
0.43
0.38
0.33
0.33
0.37
0.42
0.46
0.44
0.37
0.28
0.20
0.19
0.24
0.29
0.30
0.24
0.16
0.11
0.14
0.22
0.27
0.22
0.06
-0.15
-0.30
-0.31
-0.17
0.04
0.20
0.22
0.08
-0.18
-0.47
-0.70
-0.83
-0.83
-0.71
-0.49
-0.24
-0.03
0.08
0.06
-0.08
-0.28
-0.44
-0.50
-0.43
-0.26
-0.04
0.19
0.39
0.58
0.72
0.80
0.75
0.58
0.32
0.05
-0.16
-0.29
-0.39
-0.49
-0.61
-0.73
-0.79
-0.75
-0.65
-0.54
-0.46
-0.43
-0.41
-0.34
-0.19
0.02
0.16
0.15
-0.06
-0.39
-0.71
-0.84
-0.68
-0.25
0.31
0.83
1.13
1.15
0.88
0.45
0.01
-0.30
-0.40
-0.31
-0.10
0.10
0.23
0.25
0.19
0.11
0.02
-0.09
-0.22
-0.37
-0.45
-0.39
-0.16
0.21
0.56
0.77
0.78
0.60
0.34
0.11
-0.00
0.00
0.10
0.24
0.38
0.46
0.43
0.27
-0.00
-0.32
-0.57
-0.69
-0.66
-0.55
-0.43
-0.34
-0.24
-0.08
0.15
0.41
0.61
0.67
0.58
0.41
0.24
0.14
0.10
0.09
0.07
0.01
-0.04
-0.06
-0.04
0.02
0.11
0.21
0.31
0.42
0.54
0.65
0.72
0.70
0.57
0.35
0.06
-0.21
-0.40
-0.49
-0.50
-0.49
-0.49
-0.53
-0.57
-0.57
-0.49
-0.34
-0.21
-0.15
-0.21
-0.37
-0.53
-0.59
-0.51
-0.29
-0.03
0.16
0.23
0.17
0.04
-0.09
-0.13
-0.06
0.09
0.28
0.44
0.54
0.55
0.49
0.39
0.29
0.21
0.14
0.10
0.06
0.03
-0.01
-0.04
-0.07
-0.12
-0.19
-0.28
-0.36
-0.42
-0.43
-0.40
-0.32
-0.21
-0.11
-0.04
-0.01
-0.04
-0.11
-0.20
-0.26
-0.26
-0.18
-0.05
0.10
0.24
0.35
0.43
0.50
0.52
0.44
0.23
-0.09
-0.44
-0.68
-0.74
-0.62
-0.39
-0.16
0.03
0.20
0.38
0.60
0.78
0.84
0.71
0.43
0.12
-0.07
-0.08
0.08
0.30
0.46
0.52
0.49
0.45
0.42
0.42
0.39
0.31
0.15
-0.05
-0.25
-0.41
-0.51
-0.54
-0.55
-0.53
-0.50
-0.44
-0.34
-0.19
-0.03
0.08
0.10
0.01
-0.17
-0.37
-0.55
-0.68
-0.74
-0.73
-0.63
-0.43
-0.17
0.11
0.33
0.41
0.36
0.25
0.16
0.16
0.24
0.34
0.40
0.39
0.30
0.19
0.08
-0.03
-0.16
-0.32
-0.52
-0.73
-0.92
-1.04
-1.08
-1.03
-0.88
-0.64
-0.32
0.02
0.32
0.53
0.64
0.68
0.65
0.57
0.46
0.35
0.26
0.23
0.28
0.39
0.51
0.58
0.59
0.51
0.35
0.16
-0.05
-0.26
-0.44
-0.55
-0.56
-0.45
-0.24
0.02
0.29
0.50
0.61
0.57
0.41
0.16
-0.11
-0.31
-0.40
-0.38
-0.30
-0.22
-0.17
-0.14
-0.12
-0.13
-0.17
-0.27
-0.39
-0.46
-0.36
-0.07
0.38
0.85
1.19
1.30
1.19
0.93
0.62
0.34
0.11
-0.06
-0.15
-0.12
0.01
0.22
0.43
0.53
0.48
0.25
-0.11
-0.49
-0.81
-0.99
-0.97
-0.75
-0.39
0.02
0.36
0.53
0.50
0.30
0.01
-0.25
-0.42
-0.47
-0.44
-0.37
-0.32
-0.28
-0.25
-0.18
-0.04
0.17
0.39
0.57
0.65
0.61
0.47
0.28
0.09
-0.06
-0.17
-0.26
-0.33
-0.39
-0.39
-0.30
-0.15
0.03
0.15
0.15
0.01
-0.21
-0.40
-0.43
-0.26
0.08
0.45
0.72
0.78
0.64
0.39
0.18
0.11
0.18
0.33
0.42
0.37
0.17
-0.13
-0.43
-0.64
-0.76
-0.81
-0.81
-0.76
-0.63
-0.42
-0.14
0.15
0.37
0.46
0.40
0.21
-0.07
-0.37
-0.64
-0.83
-0.89
-0.79
-0.54
-0.25
-0.04
-0.02
-0.22
-0.56
-0.87
-1.00
-0.84
-0.40
0.18
0.75
1.16
1.35
1.34
1.16
0.86
0.46
-0.02
-0.51
-0.87
-0.97
-0.74
-0.23
0.40
0.94
1.25
1.26
1.04
0.69
0.33
0.04
-0.16
-0.27
-0.32
-0.34
-0.32
-0.27
-0.20
-0.14
-0.10
-0.10
-0.12
-0.08
0.11
0.49
0.96
1.36
1.54
1.41
1.02
0.50
0.04
-0.25
-0.36
-0.34
-0.28
-0.23
-0.22
-0.25
-0.32
-0.41
-0.55
-0.70
-0.82
-0.84
-0.71
-0.46
-0.17
0.05
0.08
-0.10
-0.38
-0.62
-0.69
-0.55
-0.29
-0.04
0.10
0.12
0.09
0.07
0.05
-0.01
-0.18
-0.47
-0.81
-1.09
-1.21
-1.09
-0.73
-0.20
0.40
0.93
1.27
1.34
1.13
0.76
0.38
0.14
0.08
0.18
0.32
0.42
0.47
0.51
0.58
0.67
0.72
0.66
0.46
0.18
-0.08
-0.20
-0.16
-0.00
0.16
0.25
0.23
0.16
0.09
0.07
0.11
0.17
0.20
0.20
0.15
0.06
-0.07
-0.25
-0.42
-0.55
-0.58
-0.47
-0.26
-0.03
0.16
0.27
0.30
0.27
0.20
0.07
-0.13
-0.37
-0.56
-0.57
-0.35
0.06
0.51
0.83
0.89
0.67
0.24
-0.26
-0.72
-1.05
-1.22
-1.23
-1.09
-0.83
-0.52
-0.23
-0.02
0.13
0.24
0.38
0.54
0.70
0.79
0.76
0.61
0.36
0.09
-0.15
-0.33
-0.47
-0.59
-0.70
-0.80
-0.89
-0.92
-0.87
-0.72
-0.49
-0.22
0.03
0.23
0.37
0.45
0.53
0.61
0.70
0.75
0.75
0.67
0.55
0.38
0.20
0.04
-0.05
-0.04
0.11
0.35
0.56
0.65
0.54
0.24
-0.16
-0.54
-0.79
-0.88
-0.82
-0.64
-0.40
-0.13
0.10
0.23
0.22
0.04
-0.23
-0.49
-0.63
-0.59
-0.40
-0.12
0.13
0.28
0.29
0.19
0.02
-0.14
-0.27
-0.35
-0.42
-0.49
-0.56
-0.56
-0.43
-0.13
0.27
0.66
0.88
0.85
0.54
0.06
-0.45
-0.87
-1.13
-1.24
-1.22
-1.10
-0.88
-0.57
-0.17
0.24
0.59
0.80
0.79
0.55
0.16
-0.27
-0.59
-0.67
-0.46
0.03
0.71
1.47
2.19
2.79
3.24
3.51
3.61
3.52
3.23
2.77
2.20
1.69
1.40
1.49
1.99
2.78
3.58
4.12
4.26
4.06
3.80
3.76
4.15
5.00
6.10
7.20
8.07
8.66
9.10
9.68
10.68
12.23
14.23
16.37
18.21
19.47
20.14
20.55
21.24
22.72
25.22
28.57
32.24
35.61
38.20
39.87
40.91
41.96
43.77
47.10
52.44
59.70
67.92
75.17
78.94
76.89
67.95
52.95
34.59
16.53
2.10
-6.89
-10.47
-10.02
-7.22
-3.21
1.78
8.09
16.04
25.47
35.64
45.33
53.07
57.34
56.89
51.01
39.88
24.70
7.50
-9.40
-24.13
-35.67
-44.01
-49.74
-53.53
-55.76
-56.51
-55.72
-53.57
-50.47
-46.94
-43.28
-39.32
-34.50
-28.28
-20.64
-12.39
-5.19
-1.11
-1.84
-8.02
-18.86
-32.29
-45.64
-56.50
-63.44
-66.28
-65.86
-63.43
-60.11
-56.51
-52.80
-48.95
-45.03
-41.25
-37.93
-35.25
-33.14
-31.33
-29.45
-27.26
-24.72
-22.02
-19.47
-17.39
-15.92
-15.01
-14.44
-13.89
-13.10
-12.03
-10.86
-9.91
-9.46
-9.58
-10.04
-10.42
-10.33
-9.61
-8.42
-7.10
-6.10
-5.70
-5.98
-6.78
-7.83
-8.81
-9.47
-9.69
-9.48
-9.01
-8.57
-8.44
-8.84
-9.77
-11.02
-12.18
-12.79
-12.49
-11.19
-9.09
-6.70
-4.58
-3.21
-2.75
-3.00
-3.53
-3.90
-3.99
-4.08
-4.84
-6.87
-10.26
-14.28
-17.50
-18.28
-15.53
-9.35
-1.12
7.01
12.92
15.32
14.27
11.07
7.94
7.30
11.07
20.14
34.09
51.32
69.65
86.97
101.86
113.95
123.67
131.82
139.06
145.41
150.02
151.10
146.28
133.40
111.60
82.14
48.61
16.16
-10.17
-27.05
-33.77
-31.91
-24.14
-12.83
0.67
15.59
30.59
42.82
48.12
42.62
24.87
-2.73
-34.29
-62.48
-81.40
-88.85
-86.64
-79.11
-70.62
-63.74
-58.80
-54.92
-51.39
-48.56
-47.51
-49.12
-53.14
-58.08
-61.81
-62.52
-59.53
-53.49
-45.99
-38.81
-33.30
-29.97
-28.53
-28.22
-28.18
-27.81
-26.94
-25.74
-24.60
-23.84
-23.62
-23.83
-24.16
-24.30
-24.04
-23.42
-22.64
-22.02
-21.86
-22.32
-23.40
-24.96
-26.77
-28.57
-30.13
-31.27
-31.93
-32.19
-32.29
-32.60
-33.50
-35.27
-37.88
-40.98
-43.91
-45.91
-46.33
-44.87
-41.68
-37.26
-32.30
-27.42
-23.02
-19.19
-15.77
-12.50
-9.09
-5.35
-1.12
3.66
8.97
14.61
20.12
24.82
27.86
28.49
26.29
21.31
14.20
5.95
-2.33
-9.81
-16.18
-21.72
-27.15
-33.29
-40.73
-49.55
-59.24
-68.87
-77.45
-84.27
-89.30
-93.35
-98.03
-105.27
-116.40
-131.10
-146.77
-158.72
-161.20
-149.22
-120.27
-75.50
-19.80
39.28
93.47
136.05
163.47
175.99
176.97
171.18
162.83
154.33
146.07
137.37
127.78
117.94
109.53
104.52
104.17
108.42
115.64
122.75
125.46
118.58
97.15
58.03
1.87
-65.66
-134.31
-191.62
-226.54
-232.82
-210.84
-167.13
-111.88
-55.69
-6.73
30.66
55.77
70.34
77.07
78.55
76.81
73.54
70.17
67.90
67.39
68.47
70.03
70.39
68.12
62.72
55.05
46.91
40.30
36.56
35.77
36.80
37.92
37.59
35.06
30.64
25.41
20.69
17.51
16.19
16.33
17.08
17.51
17.00
15.41
13.06
10.55
8.51
7.36
7.19
7.77
8.67
9.43
9.63
8.98
7.29
4.48
0.64
-3.89
-8.44
-12.04
-13.73
-12.88
-9.45
-4.13
1.90
7.36
11.26
13.21
13.42
12.50
11.15
9.92
9.14
8.93
9.37
10.50
12.36
14.75
17.12
18.65
18.53
16.33
12.32
7.46
3.03
0.02
-1.28
-1.40
-1.40
-2.29
-4.58
-8.09
-12.14
-15.82
-18.38
-19.38
-18.70
-16.52
-13.26
-9.49
-5.77
-2.54
0.00
1.91
3.45
4.91
6.53
8.42
10.50
12.50
13.96
14.25
12.86
9.57
4.73
-0.81
-5.96
-9.78
-11.82
-12.23
-11.53
-10.35
-9.05
-7.73
-6.30
-4.68
-2.93
-1.23
0.19
1.14
1.51
1.28
0.52
-0.71
-2.32
-4.21
-6.17
-7.83
-8.55
-7.55
-4.25
1.45
8.93
16.87
23.79
28.55
30.80
31.01
30.14
29.09
28.27
27.55
26.52
24.87
22.66
20.36
18.61
18.04
19.05
21.93
26.77
33.30
40.42
45.92
46.63
39.33
22.13
-4.35
-36.70
-69.71
-98.20
-118.78
-130.68
-135.29
-134.81
-130.92
-124.20
-114.45
-101.58
-86.30
-70.14
-54.90
-41.87
-31.39
-22.84
-15.14
-7.38
0.82
9.20
17.17
24.11
29.74
34.17
37.78
40.92
43.73
46.03
47.49
47.89
47.32
46.26
45.41
45.40
46.49
48.43
50.61
52.37
53.30
53.53
53.57
54.11
55.61
58.07
61.03
63.84
65.95
67.27
68.15
69.35
71.69
75.77
81.66
88.64
95.03
98.34
95.77
85.09
65.63
38.94
8.69
-20.31
-43.62
-58.53
-64.71
-63.87
-58.75
-51.91
-44.98
-38.54
-32.54
-26.73
-20.92
-14.99
-8.85
-2.54
3.56
8.49
10.68
8.47
0.79
-12.17
-28.71
-45.99
-60.94
-71.27
-76.05
-75.85
-72.20
-66.88
-61.30
-56.19
-51.72
-47.72
-44.03
-40.52
-37.18
-34.00
-30.92
-27.92
-25.01
-22.29
-19.90
-17.99
-16.60
-15.65
-14.96
-14.30
-13.49
-12.43
-11.18
-9.87
-8.70
-7.79
-7.15
-6.69
-6.27
-5.85
-5.49
-5.29
-5.35
-5.67
-6.09
-6.44
-6.60
-6.60
-6.58
-6.68
-6.98
-7.40
-7.78
-7.89
-7.50
-6.46
-4.68
-2.22
0.73
3.81
6.59
8.67
9.84
10.11
9.70
8.91
8.00
7.16
6.44
5.87
5.44
5.16
5.01
4.94
4.89
4.78
4.57
4.23
3.80
3.35
2.95
2.67
2.51
2.43
2.34
2.13
1.78
1.31
0.84
0.48
0.27
0.22
0.26
0.25
0.14
-0.11
-0.41
-0.66
-0.73
-0.58
-0.27
0.06
0.24
0.15
-0.22
-0.76
-1.27
-1.61
-1.68
-1.52
-1.25
-1.00
-0.84
-0.78
-0.77
-0.80
-0.86
-1.03
-1.35
-1.82
-2.37
-2.86
-3.17
-3.26
-3.19
-3.13
-3.19
-3.46
-3.92
-4.46
-4.98
-5.46
-5.87
-6.25
-6.58
-6.82
-6.94
-6.98
-7.05
-7.25
-7.56
-7.80
-7.62
-6.67
-4.79
-2.08
1.06
4.10
6.60
8.30
9.23
9.57
9.51
9.19
8.64
7.85
6.87
5.83
4.91
4.26
3.97
4.01
4.27
4.62
4.93
5.13
5.20
5.15
4.99
4.69
4.23
3.58
2.75
1.85
1.03
0.45
0.21
0.32
0.64
0.98
1.13
0.97
0.54
-0.00
-0.42
-0.52
-0.28
0.21
0.74
1.11
1.23
1.15
0.99
0.86
0.77
0.66
0.46
0.18
-0.09
-0.23
-0.16
0.11
0.48
0.82
1.00
0.99
0.79
0.46
0.11
-0.18
-0.36
-0.42
-0.42
-0.44
-0.54
-0.73
-0.98
-1.21
-1.36
-1.36
-1.21
-0.98
-0.76
-0.62
-0.63
-0.75
-0.86
-0.82
-0.56
-0.11
0.42
0.86
1.10
1.11
0.97
0.77
0.58
0.41
0.29
0.23
0.26
0.38
0.56
0.71
0.76
0.68
0.51
0.37
0.34
0.44
0.64
0.86
1.03
1.13
1.14
1.10
1.02
0.89
0.75
0.63
0.56
0.59
0.69
0.86
1.06
1.25
1.42
1.58
1.73
1.85
1.92
1.90
1.77
1.53
1.24
0.95
0.72
0.61
0.58
0.55
0.43
0.15
-0.27
-0.70
-0.98
-1.01
-0.80
-0.53
-0.42
-0.66
-1.29
-2.18
-3.09
-3.80
-4.14
-4.09
-3.75
-3.25
-2.74
-2.29
-1.94
-1.67
-1.49
-1.40
-1.39
-1.45
-1.51
-1.48
-1.30
-0.97
-0.52
-0.04
0.39
0.71
0.91
0.95
0.84
0.57
0.24
-0.04
-0.12
0.10
0.53
1.03
1.35
1.38
1.12
0.71
0.33
0.13
0.13
0.26
0.45
0.61
0.73
0.83
0.92
1.00
1.02
0.99
0.90
0.79
0.69
0.59
0.48
0.31
0.07
-0.23
-0.53
-0.76
-0.89
-0.91
-0.87
-0.85
-0.91
-1.07
-1.29
-1.54
-1.76
-1.93
-2.05
-2.12
-2.13
-2.07
-1.92
-1.69
-1.42
-1.18
-1.04
-1.09
-1.38
-1.86
-2.42
-2.89
-3.10
-3.01
-2.69
-2.38
-2.31
-2.66
-3.37
-4.27
-5.10
-5.64
-5.84
-5.80
-5.76
-5.92
-6.45
-7.31
-8.34
-9.30
-9.98
-10.31
-10.41
-10.54
-10.99
-11.95
-13.51
-15.59
-18.00
-20.38
-22.12
-22.38
-20.34
-15.52
-8.18
0.61
9.25
16.20
20.53
22.25
22.07
20.93
19.51
18.02
16.36
14.45
12.44
10.74
9.74
9.56
9.94
10.39
10.45
9.90
8.84
7.62
6.59
5.97
5.74
5.69
5.59
5.26
4.64
3.83
2.98
2.27
1.78
1.49
1.32
1.11
0.80
0.38
-0.06
-0.38
-0.47
-0.26
0.23
0.95
1.79
2.62
3.25
3.53
3.35
2.76
1.94
1.17
0.65
0.46
0.48
0.53
0.46
0.27
0.11
0.16
0.53
1.15
1.83
2.32
2.48
2.33
2.06
1.89
2.00
2.41
3.01
3.58
3.93
4.03
4.01
4.13
4.63
5.59
6.86
8.12
8.99
9.25
8.89
8.24
7.74
7.84
8.77
10.47
12.62
14.77
16.54
17.75
18.53
19.21
20.21
21.83
24.15
26.87
29.43
31.14
31.36
29.80
26.62
22.42
18.10
14.53
12.28
11.41
11.60
12.38
13.39
14.60
16.34
19.10
23.30
28.99
35.61
41.84
45.71
45.08
38.34
25.13
6.79
-13.88
-33.44
-48.90
-58.65
-62.73
-62.47
-59.61
-55.64
-51.36
-47.05
-42.78
-38.75
-35.33
-32.83
-31.32
-30.46
-29.62
-28.19
-25.87
-22.83
-19.63
-16.95
-15.26
-14.60
-14.57
-14.58
-14.11
-12.99
-11.36
-9.64
-8.24
-7.41
-7.09
-7.04
-6.90
-6.45
-5.63
-4.60
-3.66
-3.06
-2.93
-3.22
-3.73
-4.21
-4.49
-4.53
-4.41
-4.28
-4.29
-4.51
-4.89
-5.34
-5.75
-6.03
-6.16
-6.14
-6.03
-5.90
-5.80
-5.80
-5.95
-6.29
-6.83
-7.54
-8.31
-9.01
-9.57
-10.04
-10.64
-11.60
-13.02
-14.66
-15.88
-15.78
-13.55
-8.77
-1.72
6.72
15.28
22.74
28.30
31.79
33.61
34.44
34.94
35.47
36.02
36.32
36.06
35.09
33.60
32.09
31.20
31.40
32.86
35.28
38.03
40.37
41.82
42.31
42.26
42.42
43.64
46.58
51.50
58.02
64.84
69.65
69.53
61.81
45.30
21.18
-7.01
-34.48
-56.82
-71.57
-78.73
-80.16
-78.31
-75.04
-71.19
-66.90
-62.23
-57.69
-54.09
-52.10
-51.78
-52.44
-52.99
-52.37
-49.95
-45.79
-40.50
-34.98
-30.04
-26.16
-23.32
-21.07
-18.70
-15.58
-11.42
-6.42
-1.15
3.65
7.45
10.13
11.95
13.38
14.79
16.20
17.34
17.82
17.39
16.13
14.46
12.90
11.90
11.57
11.72
11.95
11.87
11.30
10.33
9.22
8.31
7.81
7.75
7.96
8.17
8.15
7.78
7.10
6.27
5.48
4.86
4.46
4.25
4.12
3.98
3.80
3.57
3.32
3.10
2.94
2.81
2.69
2.47
1.95
0.86
-1.10
-4.06
-7.85
-11.96
-15.68
-18.40
-19.86
-20.33
-20.47
-21.07
-22.57
-24.94
-27.65
-29.97
-31.37
-31.75
-31.60
-31.71
-32.94
-35.76
-40.03
-45.06
-49.77
-53.27
-55.26
-56.31
-57.71
-61.08
-67.84
-78.70
-93.36
-110.22
-126.20
-136.93
-137.51
-124.02
-95.24
-53.84
-6.21
39.33
75.28
97.40
105.70
103.62
95.86
86.21
76.49
66.75
56.43
45.37
34.21
23.90
15.06
7.65
1.36
-3.58
-5.93
-3.64
5.21
21.09
42.31
65.31
85.86
100.68
108.63
110.70
109.00
105.17
99.18
89.30
73.20
49.58
19.41
-14.07
-46.46
-73.89
-94.24
-107.29
-113.75
-114.11
-107.91
-94.23
-72.75
-44.91
-14.06
15.35
39.39
55.92
65.11
68.81
69.35
68.42
66.43
62.82
56.81
48.19
37.80
27.27
18.41
12.42
9.48
8.82
9.21
9.58
9.38
8.71
7.99
7.60
7.65
7.89
7.90
7.33
6.13
4.49
2.82
1.47
0.63
0.21
-0.02
-0.35
-0.94
-1.77
-2.61
-3.19
-3.32
-2.95
-2.18
-1.26
-0.41
0.24
0.68
0.98
1.24
1.47
1.61
1.56
1.26
0.73
0.11
-0.43
-0.77
-0.88
-0.84
-0.74
-0.66
-0.61
-0.55
-0.48
-0.40
-0.35
-0.30
-0.20
0.03
0.45
1.00
1.53
1.90
2.02
1.92
1.71
1.53
1.47
1.51
1.63
1.78
1.97
2.24
2.60
3.00
3.32
3.45
3.40
3.26
3.22
3.42
3.88
4.51
5.09
5.44
5.46
5.12
4.46
3.51
2.37
1.12
-0.11
-1.18
-2.01
-2.56
-2.86
-2.94
-2.84
-2.58
-2.22
-1.84
-1.54
-1.38
-1.32
-1.23
-0.97
-0.48
0.19
0.88
1.40
1.67
1.71
1.62
1.54
1.56
1.71
2.00
2.42
2.98
3.66
4.43
5.21
5.90
6.37
6.48
6.13
5.27
3.92
2.20
0.32
-1.52
-3.14
-4.48
-5.53
-6.35
-7.00
-7.44
-7.61
-7.43
-6.88
-6.03
-5.05
-4.14
-3.49
-3.16
-3.12
-3.21
-3.25
-3.15
-2.91
-2.63
-2.43
-2.34
-2.32
-2.32
-2.31
-2.32
-2.41
-2.60
-2.79
-2.83
-2.59
-2.06
-1.39
-0.78
-0.42
-0.35
-0.53
-0.83
-1.18
-1.56
-1.93
-2.26
-2.44
-2.39
-2.08
-1.57
-1.02
-0.60
-0.37
-0.33
-0.38
-0.43
-0.47
-0.51
-0.63
-0.84
-1.10
-1.36
-1.51
-1.53
-1.41
-1.19
-0.95
-0.74
-0.58
-0.51
-0.50
-0.54
-0.56
-0.52
-0.41
-0.26
-0.14
-0.08
-0.11
-0.17
-0.20
-0.16
-0.07
0.00
-0.03
-0.17
-0.37
-0.50
-0.47
-0.27
-0.01
0.16
0.13
-0.09
-0.37
-0.56
-0.53
-0.31
-0.01
0.23
0.33
0.32
0.34
0.51
0.85
1.27
1.60
1.68
1.45
0.96
0.37
-0.18
-0.57
-0.76
-0.77
-0.68
-0.54
-0.35
-0.13
0.13
0.37
0.53
0.53
0.36
0.04
-0.31
-0.60
-0.75
-0.74
-0.61
-0.40
-0.15
0.12
0.38
0.62
0.77
0.77
0.64
0.42
0.20
0.07
0.07
0.17
0.28
0.35
0.38
0.39
0.44
0.52
0.55
0.46
0.24
-0.06
-0.35
-0.52
-0.56
-0.49
-0.39
-0.30
-0.24
-0.21
-0.24
-0.38
-0.65
-1.01
-1.36
-1.55
-1.48
-1.15
-0.64
-0.11
0.32
0.55
0.58
0.46
0.27
0.11
0.09
0.22
0.49
0.78
0.98
1.03
0.93
0.76
0.61
0.53
0.50
0.46
0.35
0.17
-0.03
-0.16
-0.15
-0.04
0.12
0.19
0.11
-0.15
-0.47
-0.73
-0.81
-0.69
-0.45
-0.25
-0.18
-0.28
-0.46
-0.63
-0.70
-0.65
-0.51
-0.34
-0.22
-0.17
-0.19
-0.25
-0.32
-0.35
-0.31
-0.24
-0.17
-0.14
-0.16
-0.17
-0.07
0.19
0.57
0.98
1.30
1.43
1.35
1.12
0.81
0.49
0.21
-0.01
-0.17
-0.28
-0.33
-0.32
-0.26
-0.14
0.01
0.17
0.29
0.33
0.28
0.19
0.11
0.07
0.03
-0.06
-0.26
-0.55
-0.84
-0.99
-0.93
-0.69
-0.39
-0.16
-0.07
-0.05
-0.01
0.17
0.47
0.80
1.02
1.04
0.87
0.61
0.40
0.30
0.30
0.29
0.16
-0.15
-0.64
-1.19
-1.65
-1.89
-1.85
-1.58
-1.22
-0.95
-0.90
-1.08
-1.40
-1.69
-1.78
-1.64
-1.31
-0.89
-0.49
-0.15
0.12
0.36
0.59
0.78
0.95
1.09
1.24
1.45
1.73
2.07
2.37
2.54
2.48
2.15
1.59
0.91
0.26
-0.23
-0.46
-0.44
-0.21
0.14
0.53
0.86
1.07
1.13
1.00
0.70
0.27
-0.18
-0.57
-0.81
-0.90
-0.89
-0.86
-0.85
-0.89
-0.99
-1.09
-1.19
-1.24
-1.27
-1.29
-1.32
-1.35
-1.35
-1.25
-1.02
-0.65
-0.21
0.19
0.46
0.54
0.44
0.25
0.08
0.03
0.14
0.38
0.70
1.00
1.23
1.37
1.44
1.51
1.64
1.85
2.08
2.26
2.27
2.08
1.74
1.36
1.04
0.87
0.81
0.82
0.82
0.79
0.76
0.78
0.87
1.00
1.06
0.97
0.71
0.34
0.01
-0.18
-0.18
-0.07
0.01
-0.04
-0.27
-0.63
-1.02
-1.33
-1.53
-1.66
-1.75
-1.85
-1.95
-2.00
-1.99
-1.92
-1.85
-1.81
-1.83
-1.86
-1.84
-1.70
-1.41
-0.99
-0.54
-0.13
0.17
0.34
0.39
0.37
0.30
0.21
0.10
-0.01
-0.10
-0.15
-0.16
-0.13
-0.07
0.04
0.20
0.42
0.67
0.88
0.98
0.96
0.87
0.78
0.79
0.90
1.02
1.05
0.93
0.68
0.38
0.11
-0.05
-0.13
-0.14
-0.09
0.03
0.26
0.54
0.76
0.78
0.50
-0.01
-0.56
-0.95
-1.00
-0.75
-0.37
-0.04
0.11
0.08
-0.03
-0.11
-0.14
-0.17
-0.28
-0.47
-0.69
-0.80
-0.74
-0.52
-0.24
-0.06
-0.05
-0.20
-0.42
-0.61
-0.69
-0.63
-0.48
-0.29
-0.14
-0.07
-0.09
-0.16
-0.20
-0.16
-0.04
0.13
0.29
0.38
0.41
0.44
0.50
0.57
0.54
0.32
-0.11
-0.65
-1.12
-1.34
-1.21
-0.81
-0.31
0.09
0.29
0.31
0.23
0.15
0.14
0.19
0.31
0.48
0.68
0.90
1.07
1.13
1.06
0.86
0.57
0.26
-0.05
-0.33
-0.58
-0.74
-0.77
-0.61
-0.28
0.14
0.49
0.63
0.54
0.29
0.04
-0.09
-0.07
0.07
0.20
0.24
0.16
0.01
-0.14
-0.25
-0.29
-0.28
-0.24
-0.18
-0.09
0.01
0.09
0.09
-0.03
-0.27
-0.58
-0.84
-0.99
-0.99
-0.84
-0.62
-0.41
-0.23
-0.08
0.09
0.30
0.52
0.68
0.65
0.38
-0.06
-0.55
-0.87
-0.92
-0.69
-0.33
-0.02
0.13
0.11
0.03
-0.01
0.06
0.22
0.37
0.46
0.45
0.36
0.24
0.13
0.06
0.04
0.09
0.21
0.40
0.62
0.82
0.97
1.01
0.95
0.77
0.51
0.22
-0.03
-0.16
-0.13
0.06
0.35
0.67
0.95
1.15
1.23
1.16
0.94
0.58
0.13
-0.33
-0.70
-0.90
-0.92
-0.79
-0.60
-0.42
-0.29
-0.23
-0.19
-0.16
-0.11
-0.08
-0.08
-0.09
-0.08
-0.03
0.07
0.17
0.24
0.26
0.25
0.28
0.40
0.57
0.73
0.76
0.61
0.31
-0.04
-0.32
-0.44
-0.39
-0.25
-0.13
-0.10
-0.19
-0.38
-0.61
-0.84
-1.02
-1.15
-1.21
-1.19
-1.11
-0.96
-0.76
-0.51
-0.28
-0.10
-0.04
-0.12
-0.32
-0.52
-0.63
-0.56
-0.30
0.06
0.37
0.54
0.56
0.51
0.47
0.49
0.53
0.48
0.27
-0.09
-0.49
-0.78
-0.88
-0.74
-0.42
-0.02
0.41
0.82
1.19
1.50
1.72
1.78
1.64
1.31
0.85
0.35
-0.07
-0.33
-0.44
-0.41
-0.33
-0.23
-0.09
0.11
0.39
0.73
1.03
1.18
1.11
0.83
0.39
-0.09
-0.52
-0.87
-1.12
-1.28
-1.36
-1.35
-1.22
-0.98
-0.61
-0.15
0.37
0.87
1.25
1.41
1.32
1.05
0.71
0.47
0.40
0.50
0.65
0.74
0.69
0.55
0.41
0.37
0.45
0.58
0.62
0.50
0.21
-0.18
-0.54
-0.79
-0.92
-0.98
-1.02
-1.04
-0.99
-0.83
-0.57
-0.29
-0.07
0.03
0.01
-0.08
-0.16
-0.20
-0.20
-0.20
-0.19
-0.16
-0.09
-0.02
0.01
-0.06
-0.24
-0.48
-0.69
-0.77
-0.70
-0.54
-0.36
-0.22
-0.13
-0.03
0.14
0.40
0.70
0.93
0.95
0.74
0.32
-0.15
-0.51
-0.63
-0.48
-0.14
0.26
0.60
0.82
0.90
0.86
0.77
0.65
0.53
0.43
0.34
0.25
0.16
0.05
-0.04
-0.07
-0.03
0.07
0.19
0.23
0.18
0.04
-0.10
-0.21
-0.28
-0.37
-0.55
-0.84
-1.16
-1.40
-1.47
-1.33
-1.02
-0.66
-0.32
-0.06
0.11
0.23
0.30
0.33
0.33
0.26
0.12
-0.10
-0.38
-0.66
-0.84
-0.84
-0.63
-0.24
0.20
0.57
0.76
0.77
0.67
0.57
0.55
0.60
0.65
0.64
0.53
0.41
0.40
0.59
0.95
1.31
1.48
1.30
0.81
0.17
-0.36
-0.60
-0.51
-0.20
0.16
0.43
0.60
0.70
0.78
0.81
0.76
0.56
0.23
-0.15
-0.47
-0.61
-0.55
-0.40
-0.30
-0.39
-0.71
-1.17
-1.60
-1.82
-1.72
-1.33
-0.79
-0.26
0.10
0.25
0.23
0.12
0.01
-0.05
-0.04
0.03
0.16
0.28
0.32
0.20
-0.12
-0.60
-1.10
-1.45
-1.49
-1.23
-0.80
-0.40
-0.18
-0.17
-0.25
-0.28
-0.17
0.05
0.30
0.49
0.59
0.63
0.64
0.64
0.59
0.44
0.22
-0.03
-0.20
-0.23
-0.13
0.08
0.31
0.52
0.67
0.74
0.71
0.61
0.46
0.33
0.25
0.24
0.30
0.39
0.51
0.64
0.74
0.81
0.83
0.84
0.89
1.03
1.26
1.51
1.70
1.75
1.65
1.41
1.11
0.80
0.50
0.20
-0.11
-0.41
-0.65
-0.79
-0.77
-0.59
-0.29
0.05
0.32
0.46
0.42
0.26
0.02
-0.22
-0.41
-0.53
-0.58
-0.55
-0.46
-0.34
-0.27
-0.26
-0.33
-0.41
-0.45
-0.40
-0.30
-0.21
-0.18
-0.21
-0.21
-0.11
0.12
0.43
0.71
0.86
0.88
0.86
0.98
1.37
2.05
2.92
3.76
4.38
4.69
4.74
4.74
4.90
5.43
6.37
7.64
8.99
10.13
10.84
11.03
10.85
10.67
10.94
11.99
13.85
16.16
18.32
19.80
20.33
20.09
19.66
19.71
20.76
23.10
26.64
30.93
34.98
37.35
36.37
30.77
20.35
6.40
-8.60
-21.80
-31.08
-35.77
-36.66
-35.31
-33.17
-31.01
-28.88
-26.57
-24.04
-21.62
-19.77
-18.82
-18.69
-18.95
-19.05
-18.57
-17.42
-15.82
-14.17
-12.87
-12.12
-11.84
-11.72
-11.38
-10.52
-9.14
-7.50
-5.98
-4.93
-4.48
-4.52
-4.74
