1531840249.00
64.000000
-0.00
-0.00
-0.00
-0.00
-0.00
-0.00
-0.00
-0.00
-0.00
-0.00
0.00
0.01
0.01
-0.00
-0.03
-0.05
-0.05
0.00
0.13
0.36
0.66
1.01
1.37
1.72
2.06
2.40
2.79
3.24
3.80
4.43
5.08
5.70
6.28
6.81
7.36
8.02
8.82
9.90
11.16
12.50
13.76
14.88
15.88
16.89
18.15
19.83
22.21
25.11
28.27
31.34
34.13
36.69
39.33
42.54
46.70
52.25
58.85
65.97
72.94
79.33
85.18
91.01
97.61
105.65
115.83
127.66
140.29
152.66
163.98
174.17
183.87
194.62
205.48
219.00
235.91
256.14
278.10
298.40
312.41
315.51
304.73
279.82
243.73
200.49
154.07
106.99
60.00
12.88
-34.42
-80.99
-125.17
-165.05
-199.96
-230.59
-258.34
-284.46
-309.44
-333.14
-355.21
-375.65
-394.41
-411.11
-424.14
-430.72
-428.05
-414.49
-391.04
-361.02
-328.61
-296.83
-266.73
-237.59
-208.39
-179.34
-152.22
-129.39
-112.09
-99.30
-88.04
-75.05
-58.68
-39.91
-21.89
-8.14
-0.55
1.84
2.34
4.83
11.63
22.23
33.62
42.00
44.91
42.62
37.91
34.52
35.05
39.54
45.58
49.83
49.98
46.09
40.55
36.61
36.44
39.89
44.53
47.07
45.37
39.67
32.54
27.37
26.40
29.42
33.85
36.25
34.32
28.24
20.59
14.88
13.50
16.37
21.03
24.05
23.06
18.15
11.81
7.39
7.24
11.24
16.86
20.65
20.26
15.86
10.01
6.20
6.76
11.47
17.66
21.72
21.20
16.20
9.31
4.09
3.09
6.37
11.60
15.43
15.51
11.77
6.50
2.90
3.16
7.17
12.52
15.97
15.38
11.01
5.42
1.89
2.49
6.80
12.11
14.96
13.26
7.49
0.44
-4.35
-4.65
-0.81
4.42
7.54
6.30
1.00
-5.71
-10.40
-10.80
-7.18
-2.12
0.99
-0.05
-5.00
-11.31
-15.59
-15.63
-11.67
-6.23
-2.70
-3.28
-7.75
-13.50
-17.15
-16.43
-11.58
-5.18
-0.70
-0.48
-4.35
-9.81
-13.43
-12.90
-8.33
-2.21
2.06
2.13
-1.92
-7.65
-11.70
-11.69
-7.60
-1.76
2.54
2.95
-0.54
-5.61
-8.95
-8.20
-3.28
3.48
8.76
10.12
7.43
2.94
-0.10
0.72
5.49
11.92
16.72
17.44
14.02
8.78
5.10
5.52
10.21
16.90
22.15
23.39
20.38
15.32
11.55
11.58
15.63
21.52
25.98
26.66
23.55
18.95
16.06
17.02
21.53
27.04
30.22
29.06
24.10
18.17
14.71
15.72
20.59
26.37
29.50
27.88
22.08
14.99
10.16
9.80
13.51
18.55
21.43
19.92
14.27
7.09
1.83
0.80
3.83
8.45
11.32
10.30
5.68
0.04
-3.31
-2.40
2.23
7.72
10.64
9.05
3.68
-2.44
-5.74
-4.23
1.34
7.88
11.71
10.64
5.20
-1.76
-6.65
-7.26
-3.85
1.03
4.15
3.52
-0.45
-5.22
-7.67
-6.02
-0.94
4.76
7.79
6.33
1.16
-4.69
-7.75
-6.08
-0.48
6.02
9.82
8.83
3.63
-2.92
-7.33
-7.49
-3.75
1.30
4.50
4.01
0.35
-3.95
-5.86
-3.77
1.50
7.12
9.86
7.95
2.12
-4.71
-9.15
-9.15
-5.16
0.20
3.75
3.59
0.18
-3.93
-5.74
-3.62
1.64
7.15
9.63
7.33
1.11
-5.90
-10.08
-9.34
-4.29
2.13
6.38
6.30
2.37
-2.72
-5.70
-4.66
-0.20
4.93
7.53
5.89
0.84
-4.66
-7.28
-5.30
0.38
6.66
10.03
8.56
2.96
-3.78
-8.15
-8.05
-4.00
1.30
4.53
3.81
-0.25
-4.89
-6.92
-4.65
1.00
6.99
9.86
7.76
1.59
-5.48
-9.80
-9.26
-4.47
1.64
5.60
5.38
1.50
-3.31
-5.81
-4.25
0.66
6.08
8.75
6.92
1.44
-4.71
-8.12
-6.89
-1.71
4.50
8.29
7.61
2.93
-3.08
-7.08
-7.04
-3.30
1.62
4.63
3.89
-0.00
-4.42
-6.27
-3.92
1.72
7.62
10.35
8.08
1.73
-5.49
-9.89
-9.37
-4.55
1.59
5.52
5.20
1.20
-3.71
-6.28
-4.71
0.25
5.73
8.48
6.73
1.29
-4.92
-8.57
-7.80
-3.30
2.17
5.37
4.59
0.56
-3.97
-5.89
-3.66
1.78
7.49
10.19
8.26
2.62
-3.71
-7.36
-6.47
-1.77
3.90
7.23
6.30
1.68
-3.99
-7.48
-6.91
-2.80
2.26
5.16
4.14
-0.12
-4.90
-7.11
-5.15
0.04
5.52
8.02
5.98
0.46
-5.37
-8.12
-6.09
-0.28
6.14
9.69
8.49
3.32
-2.89
-6.69
-6.15
-1.83
3.53
6.67
5.72
1.23
-4.13
-7.15
-6.02
-1.43
3.89
6.68
5.16
0.11
-5.56
-8.54
-7.03
-1.88
3.95
7.09
5.79
0.96
-4.42
-7.06
-5.32
-0.21
5.22
7.66
5.59
0.11
-5.67
-8.44
-6.64
-1.43
4.10
6.70
4.88
-0.22
-5.58
-8.02
-6.11
-0.99
4.33
6.71
4.70
-0.61
-6.25
-9.03
-7.38
-2.22
3.56
6.72
5.58
0.90
-4.51
-7.43
-6.07
-1.16
4.49
7.59
6.32
1.40
-4.32
-7.50
-6.27
-1.32
4.47
7.79
6.75
2.09
-3.30
-6.11
-4.55
0.55
6.23
9.11
7.47
2.22
-3.56
-6.47
-4.85
0.32
5.90
8.51
6.51
0.98
-4.90
-7.78
-6.07
-0.87
4.67
7.26
5.35
0.10
-5.35
-7.75
-5.61
-0.13
5.51
8.04
5.97
0.51
-5.13
-7.63
-5.53
-0.04
5.62
8.10
5.90
0.22
-5.70
-8.48
-6.56
-1.06
4.84
7.77
6.12
0.99
-4.56
-7.25
-5.54
-0.52
4.76
7.11
5.08
-0.15
-5.46
-7.65
-5.31
0.33
6.07
8.60
6.43
0.81
-5.06
-7.78
-5.77
-0.17
5.84
8.81
7.06
1.59
-4.44
-7.61
-6.13
-0.87
5.13
8.45
7.23
2.20
-3.74
-7.25
-6.42
-1.89
3.57
6.67
5.53
0.75
-4.93
-8.21
-7.21
-2.53
3.04
6.21
5.05
0.21
-5.49
-8.74
-7.69
-3.03
2.37
5.26
3.93
-0.71
-5.64
-7.64
-5.15
0.66
6.55
9.16
6.99
1.32
-4.50
-7.01
-4.65
1.33
7.54
10.49
8.51
2.71
-3.70
-7.25
-6.18
-1.41
4.05
6.87
5.31
0.17
-5.68
-8.95
-7.92
-3.35
1.96
4.83
3.63
-0.80
-5.60
-7.67
-5.50
-0.17
5.28
7.64
5.49
0.09
-5.33
-7.46
-4.90
0.99
6.83
9.23
6.74
0.77
-5.26
-7.92
-5.74
-0.09
5.69
8.21
6.02
0.46
-5.17
-7.55
-5.24
0.47
6.36
9.12
7.28
2.01
-3.59
-6.27
-4.52
0.62
6.13
8.77
6.95
1.63
-4.25
-7.40
-6.16
-1.37
4.08
6.92
5.45
0.48
-5.11
-8.09
-6.73
-1.86
3.64
6.54
5.13
0.27
-5.16
-7.97
-6.52
-1.73
3.50
6.01
4.23
-0.83
-6.21
-8.72
-6.77
-1.43
4.27
7.04
5.27
-0.06
-5.92
-8.97
-7.48
-2.35
3.46
6.60
5.31
0.39
-5.24
-8.27
-6.87
-1.79
4.08
7.45
6.47
1.89
-3.46
-6.31
-4.91
-0.06
5.37
8.14
6.61
1.71
-3.52
-5.79
-3.52
2.18
8.12
10.91
8.94
3.37
-2.57
-5.48
-3.86
1.08
6.14
8.07
5.55
-0.06
-5.50
-7.60
-5.17
0.31
5.53
7.33
4.53
-1.34
-6.98
-9.18
-6.75
-1.15
4.33
6.55
4.28
-1.03
-6.16
-7.99
-5.37
0.21
5.49
7.33
4.60
-1.24
-6.90
-9.17
-6.81
-1.23
4.36
6.78
4.74
-0.45
-5.66
-7.77
-5.54
-0.32
4.74
6.53
3.91
-1.62
-6.76
-8.32
-5.12
1.27
7.40
9.94
7.56
1.68
-4.35
-7.18
-5.34
-0.05
5.53
8.12
6.23
0.89
-4.90
-7.93
-6.67
-2.10
2.91
5.28
3.57
-1.17
-5.98
-7.79
-5.22
0.53
6.34
8.98
6.98
1.51
-4.30
-7.15
-5.47
-0.33
5.22
7.90
6.12
0.88
-4.82
-7.71
-6.25
-1.45
3.70
6.05
4.17
-0.75
-5.59
-7.16
-4.10
2.23
8.50
11.29
9.04
2.94
-3.75
-7.57
-6.75
-2.21
3.11
5.95
4.63
0.01
-5.08
-7.54
-5.89
-1.08
4.00
6.28
4.37
-0.59
-5.57
-7.45
-4.85
1.03
7.06
10.00
8.26
2.82
-3.37
-7.06
-6.54
-2.50
2.39
5.10
4.00
-0.24
-5.03
-7.44
-6.00
-1.52
3.30
5.49
3.68
-1.10
-5.91
-7.71
-5.16
0.53
6.25
8.81
6.82
1.53
-3.94
-6.36
-4.27
1.19
6.94
9.77
8.11
2.97
-2.75
-5.86
-4.70
-0.11
5.12
7.84
6.35
1.38
-4.33
-7.59
-6.63
-2.10
3.27
6.24
4.95
0.04
-5.75
-9.12
-8.15
-3.42
2.32
5.75
4.91
0.35
-5.16
-8.33
-7.26
-2.58
2.94
6.02
4.85
0.19
-5.12
-7.84
-6.28
-1.33
4.10
6.77
5.12
0.18
-5.03
-7.28
-5.05
0.55
6.37
9.09
7.16
1.68
-4.17
-7.01
-5.19
0.29
6.30
9.47
8.05
2.97
-2.77
-5.80
-4.37
0.72
6.50
9.63
8.22
2.95
-3.31
-7.14
-6.52
-1.99
3.69
7.06
6.03
1.10
-4.97
-8.67
-7.87
-3.06
2.94
6.58
5.73
0.89
-5.08
-8.67
-7.80
-3.05
2.71
6.03
4.90
0.02
-5.69
-8.77
-7.29
-2.02
4.02
7.36
6.06
0.90
-5.10
-8.43
-7.18
-2.11
3.79
7.05
5.81
0.88
-4.74
-7.63
-5.99
-0.72
5.11
8.09
6.44
1.12
-4.76
-7.75
-6.09
-0.73
5.24
8.33
6.76
1.41
-4.61
-7.79
-6.21
-0.67
5.75
9.44
8.32
3.02
-3.47
-7.47
-6.77
-1.80
4.56
8.63
8.10
3.23
-3.25
-7.73
-7.83
-3.62
2.35
6.64
6.84
2.93
-2.73
-6.81
-6.94
-3.05
2.61
6.72
6.92
3.11
-2.46
-6.52
-6.72
-2.92
2.62
6.62
6.73
2.90
-2.57
-6.38
-6.20
-2.02
3.74
7.67
7.39
2.95
-3.15
-7.43
-7.43
-3.13
2.98
7.43
7.72
3.81
-1.87
-5.91
-5.87
-1.70
4.22
8.48
8.59
4.45
-1.64
-6.30
-6.96
-3.38
2.24
6.56
6.97
3.15
-2.79
-7.53
-8.46
-5.18
0.27
4.62
5.30
1.97
-3.32
-7.32
-7.60
-3.97
1.37
5.14
4.99
0.93
-4.63
-8.32
-7.81
-3.22
2.90
7.12
7.13
3.08
-2.46
-6.09
-5.52
-0.94
5.08
9.11
8.81
4.27
-2.07
-6.80
-7.49
-4.06
1.23
5.09
5.19
1.54
-3.51
-6.70
-5.75
-0.83
5.50
9.72
9.40
4.65
-1.92
-6.72
-7.15
-3.12
2.92
7.46
7.85
3.83
-2.38
-7.39
-8.54
-5.45
-0.14
4.11
4.75
1.42
-3.84
-7.77
-7.92
-4.05
1.61
5.73
5.85
1.87
-3.79
-7.65
-7.21
-2.44
4.13
8.88
9.20
4.97
-1.32
-6.05
-6.54
-2.53
3.59
8.29
8.81
4.86
-1.37
-6.38
-7.41
-4.03
1.68
6.34
7.23
3.85
-1.82
-6.51
-7.51
-4.35
1.06
5.46
6.20
2.77
-2.88
-7.50
-8.42
-5.11
0.50
5.14
6.13
2.94
-2.50
-6.93
-7.68
-4.25
1.41
6.02
6.90
3.58
-1.92
-6.29
-6.88
-3.27
2.47
6.97
7.56
3.87
-1.95
-6.45
-6.95
-3.12
2.81
7.34
7.77
3.81
-2.28
-6.92
-7.35
-3.25
3.13
8.21
9.17
5.57
-0.43
-5.36
-6.38
-3.02
2.70
7.34
8.15
4.65
-1.06
-5.54
-6.04
-2.13
4.00
8.79
9.40
5.40
-0.99
-6.17
-7.28
-3.89
1.78
6.21
6.61
2.63
-3.51
-8.27
-8.90
-5.03
1.13
6.05
6.95
3.26
-2.95
-8.28
-9.83
-6.88
-1.18
3.99
5.70
3.05
-2.38
-7.41
-9.09
-6.36
-0.67
4.84
7.17
5.25
0.52
-3.88
-4.97
-1.81
3.93
8.94
10.21
6.84
0.60
-5.09
-7.12
-4.50
1.06
6.20
7.83
4.93
-0.90
-6.39
-8.54
-6.32
-1.25
3.53
5.11
2.54
-2.60
-7.08
-7.96
-4.32
2.12
7.92
9.88
6.92
0.64
-5.59
-8.48
-6.78
-1.82
3.26
5.43
3.52
-1.08
-5.30
-6.25
-2.95
3.02
8.37
10.01
6.81
0.31
-6.19
-9.38
-7.87
-2.86
2.60
5.34
3.96
-0.40
-4.78
-6.20
-3.46
2.08
7.31
9.16
6.48
0.69
-4.94
-7.21
-4.85
0.73
6.24
8.41
5.89
0.04
-5.91
-8.70
-6.90
-1.75
3.64
6.12
4.34
-0.42
-5.07
-6.52
-3.58
2.28
7.78
9.77
7.06
1.09
-4.87
-7.65
-5.92
-0.96
4.15
6.27
4.08
-1.21
-6.55
-8.82
-6.66
-1.28
4.27
6.85
5.10
0.22
-4.70
-6.56
-4.06
1.47
6.81
8.81
6.15
0.17
-5.97
-9.06
-7.65
-2.84
2.45
5.18
3.93
-0.29
-4.65
-6.20
-3.66
1.80
7.17
9.39
7.12
1.54
-4.23
-6.98
-5.21
-0.05
5.41
7.88
5.83
0.31
-5.64
-8.75
-7.41
-2.55
2.93
5.83
4.62
0.25
-4.37
-6.14
-3.68
1.80
7.17
9.26
6.69
0.79
-5.25
-8.17
-6.51
-1.46
3.90
6.35
4.42
-0.82
-6.35
-9.05
-7.36
-2.21
3.53
6.70
5.69
1.31
-3.65
-6.06
-4.36
0.56
5.83
8.32
6.52
1.45
-3.91
-6.39
-4.46
0.78
6.24
8.70
6.61
1.06
-4.87
-7.95
-6.57
-1.71
3.66
6.29
4.57
-0.55
-6.06
-8.69
-6.80
-1.37
4.57
7.72
6.46
1.75
-3.42
-5.81
-3.84
1.41
6.84
9.16
6.77
0.73
-5.85
-9.55
-8.60
-3.79
1.94
5.21
4.17
-0.49
-5.89
-8.70
-7.11
-1.86
4.14
7.53
6.53
1.99
-3.12
-5.49
-3.50
1.78
7.24
9.53
7.11
1.14
-5.15
-8.36
-6.84
-1.59
4.25
7.28
5.74
0.48
-5.56
-9.01
-8.01
-3.19
2.66
6.22
5.59
1.34
-3.78
-6.50
-5.01
-0.01
5.64
8.64
7.26
2.31
-3.27
-6.18
-4.69
0.33
5.87
8.54
6.55
0.77
-5.74
-9.47
-8.46
-3.40
2.82
6.73
6.35
2.22
-2.94
-5.87
-4.73
-0.15
5.13
7.87
6.29
1.10
-4.86
-8.32
-7.39
-2.71
2.97
6.43
5.80
1.72
-3.12
-5.54
-3.89
1.00
6.23
8.58
6.45
0.84
-5.26
-8.55
-7.36
-2.55
2.97
5.95
4.67
-0.12
-5.65
-8.73
-7.58
-2.82
2.85
6.24
5.50
1.19
-4.06
-7.06
-5.88
-1.07
4.71
8.20
7.44
3.00
-2.42
-5.56
-4.50
0.17
5.70
8.78
7.51
2.49
-3.48
-7.05
-6.21
-1.48
4.37
7.95
7.16
2.39
-3.68
-7.70
-7.51
-3.38
2.15
5.76
5.32
1.09
-4.38
-7.84
-7.18
-2.73
2.93
6.47
5.80
1.27
-4.50
-8.18
-7.68
-3.39
2.10
5.49
4.80
0.51
-4.73
-7.66
-6.45
-1.71
3.79
6.83
5.65
1.01
-4.22
-6.83
-5.13
-0.04
5.45
8.07
6.20
0.92
-4.65
-7.12
-4.88
0.95
7.08
10.01
7.98
2.09
-4.39
-7.88
-6.51
-1.22
4.85
8.16
6.86
1.79
-4.02
-7.11
-5.62
-0.36
5.68
9.04
7.76
2.53
-3.71
-7.48
-6.74
-2.02
3.84
7.36
6.45
1.64
-4.28
-7.83
-6.90
-1.96
4.17
7.92
7.10
2.12
-4.23
-8.41
-8.14
-3.72
2.19
6.15
5.93
1.84
-3.51
-6.78
-5.91
-1.32
4.30
7.58
6.56
1.87
-3.63
-6.53
-4.96
0.25
6.07
9.08
7.50
2.30
-3.40
-6.22
-4.53
0.57
5.92
8.21
5.95
0.29
-5.58
-8.40
-6.68
-1.57
3.88
6.47
4.70
-0.34
-5.70
-8.19
-6.36
-1.24
4.20
6.82
5.11
0.06
-5.36
-8.00
-6.28
-1.17
4.38
7.15
5.52
0.37
-5.36
-8.40
-6.99
-1.92
3.91
7.18
5.99
1.05
-4.83
-8.27
-7.27
-2.44
3.45
6.99
6.20
1.62
-4.01
-7.35
-6.48
-1.98
3.37
6.29
4.95
0.09
-5.47
-8.43
-6.99
-1.94
3.84
7.03
5.84
1.07
-4.38
-7.20
-5.67
-0.67
4.83
7.50
5.72
0.53
-4.96
-7.41
-5.21
0.47
6.39
9.12
7.09
1.51
-4.34
-7.03
-4.97
0.67
6.66
9.59
7.84
2.48
-3.37
-6.36
-4.79
0.38
6.15
9.17
7.66
2.39
-3.76
-7.50
-6.97
-2.84
2.19
4.90
3.54
-1.17
-6.40
-8.91
-7.01
-1.58
4.32
7.28
5.56
0.16
-5.69
-8.40
-6.14
0.06
6.86
10.54
9.09
3.34
-3.54
-7.92
-7.71
-3.51
1.84
5.01
4.11
-0.16
-5.02
-7.26
-5.21
0.27
6.19
9.22
7.62
2.28
-3.73
-6.99
-5.64
-0.55
5.26
8.34
6.82
1.47
-4.74
-8.38
-7.54
-2.92
2.61
5.71
4.57
-0.02
-5.16
-7.57
-5.48
0.18
6.41
9.79
8.46
3.22
-2.97
-6.72
-6.13
-1.88
3.22
5.94
4.51
-0.29
-5.63
-8.31
-6.70
-1.74
3.63
6.20
4.45
-0.53
-5.60
-7.49
-4.76
1.35
7.54
10.40
8.31
2.44
-3.97
-7.44
-6.15
-1.00
4.99
8.39
7.30
2.33
-3.74
-7.55
-7.13
-2.96
2.33
5.52
4.67
0.25
-5.09
-8.14
-7.11
-2.63
2.52
5.14
3.56
-1.28
-6.31
-8.23
-5.45
0.87
7.42
10.64
8.80
2.98
-3.56
-7.21
-6.08
-0.99
5.03
8.52
7.52
2.65
-3.33
-7.11
-6.77
-2.82
2.11
4.85
3.66
-0.78
-5.71
-7.94
-5.84
-0.33
5.53
8.38
6.50
0.97
-5.01
-7.89
-5.84
0.14
6.83
10.58
9.39
4.00
-2.62
-6.94
-6.90
-3.03
2.01
4.99
4.07
-0.15
-5.01
-7.44
-5.85
-1.11
3.91
6.11
4.01
-1.20
-6.37
-8.20
-5.26
1.13
7.55
10.50
8.41
2.52
-3.80
-7.04
-5.47
-0.17
5.71
8.76
7.24
2.03
-3.93
-7.32
-6.35
-1.75
3.73
6.88
5.91
1.42
-3.94
-7.03
-6.10
-1.76
3.35
6.12
4.83
0.18
-5.09
-7.87
-6.46
-1.67
3.70
6.44
4.88
-0.15
-5.73
-8.61
-7.01
-1.76
4.21
7.50
6.23
1.08
-5.11
-8.96
-8.40
-3.92
1.81
5.46
5.02
0.91
-4.23
-7.13
-5.85
-0.96
4.76
7.97
6.82
2.08
-3.28
-5.81
-3.71
2.03
8.16
11.12
9.09
3.14
-3.44
-7.10
-6.00
-1.07
4.57
7.46
5.82
0.56
-5.26
-8.26
-6.71
-1.52
4.26
7.30
5.87
0.90
-4.59
-7.23
-5.33
0.11
5.96
8.70
6.57
0.52
-6.23
-10.13
-9.22
-4.27
1.75
5.47
5.03
1.12
-3.48
-5.66
-3.82
1.14
6.32
8.56
6.29
0.54
-5.63
-8.87
-7.45
-2.25
3.71
7.07
6.00
1.37
-3.83
-6.28
-4.26
1.25
7.10
9.89
7.88
2.07
-4.44
-8.19
-7.31
-2.56
3.16
6.50
5.54
0.94
-4.48
-7.44
-6.10
-1.17
4.49
7.56
6.23
1.26
-4.45
-7.55
-6.24
-1.36
4.08
6.70
4.76
-0.75
-6.63
-9.39
-7.26
-1.30
5.21
8.68
7.26
1.93
-4.15
-7.47
-6.23
-1.33
4.16
6.88
5.13
-0.07
-5.61
-8.13
-5.99
-0.22
6.03
9.32
7.91
2.74
-3.17
-6.46
-5.42
-0.98
3.91
6.06
3.93
-1.37
-6.76
-8.97
-6.47
-0.37
6.17
9.70
8.45
3.25
-2.96
-6.83
-6.52
-2.68
2.02
4.53
3.26
-0.98
-5.42
-7.06
-4.43
1.47
7.60
10.64
8.86
3.16
-3.43
-7.43
-6.92
-2.58
2.76
5.88
5.06
1.05
-3.41
-5.33
-3.29
1.68
6.64
8.45
5.67
-0.54
-6.96
-10.17
-8.43
-2.74
3.75
7.54
6.81
2.33
-3.04
-6.10
-5.28
-1.43
2.73
4.37
2.28
-2.36
-6.66
-7.74
-4.44
1.87
8.03
10.71
8.35
2.11
-4.76
-8.64
-7.62
-2.57
3.43
6.87
5.89
1.29
-4.01
-6.84
-5.63
-1.34
3.21
5.07
2.99
-1.82
-6.39
-7.76
-4.74
1.34
7.29
9.83
7.50
1.52
-4.85
-8.19
-6.83
-1.84
3.69
6.52
5.17
0.74
-3.83
-5.56
-3.28
1.72
6.37
7.73
4.72
-1.18
-6.71
-8.68
-5.79
0.52
6.89
9.88
7.94
2.23
-4.04
-7.51
-6.61
-2.40
2.18
4.13
2.24
-2.18
-6.14
-6.80
-3.22
2.98
8.43
9.94
6.35
-0.67
-7.50
-10.50
-8.10
-1.69
5.15
8.75
7.39
2.23
-3.48
-6.40
-5.06
-0.64
3.84
5.45
3.11
-1.72
-5.97
-6.80
-3.32
2.82
8.33
10.11
7.08
0.78
-5.45
-8.35
-6.62
-1.58
3.61
5.84
3.90
-0.88
-5.40
-6.68
-3.69
2.08
7.34
9.02
5.98
-0.27
-6.45
-9.39
-7.80
-2.98
2.03
4.26
2.59
-1.59
-5.29
-5.74
-2.10
3.93
9.02
10.19
6.52
-0.20
-6.49
-9.11
-6.90
-1.43
4.02
6.37
4.52
-0.09
-4.40
-5.61
-2.87
2.21
6.51
7.25
3.70
-2.33
-7.47
-8.72
-5.21
1.27
7.23
9.52
7.05
1.39
-4.15
-6.52
-4.68
-0.11
4.08
5.13
2.25
-2.83
-6.97
-7.49
-3.76
2.31
7.40
8.66
5.34
-0.74
-6.26
-8.27
-5.87
-0.69
4.09
5.63
3.11
-1.81
-5.99
-6.70
-3.27
2.48
7.30
8.44
5.23
-0.50
-5.50
-6.98
-4.22
0.99
5.44
6.40
3.17
-2.45
-7.27
-8.54
-5.54
0.04
5.07
6.82
4.53
-0.16
-4.19
-4.90
-1.67
3.70
8.01
8.57
4.82
-1.37
-6.70
-8.40
-5.76
-0.53
4.14
5.54
2.98
-1.83
-5.84
-6.48
-3.26
2.04
6.33
7.12
3.99
-1.18
-5.35
-6.04
-2.88
2.24
6.29
6.84
3.54
-1.81
-6.25
-7.41
-4.82
-0.15
3.77
4.64
2.05
-2.29
-5.50
-5.30
-1.38
4.31
8.64
9.14
5.45
-0.50
-5.49
-6.93
-4.29
0.55
4.51
5.07
1.83
-3.22
-6.93
-6.84
-2.68
3.37
7.95
8.49
4.73
-1.13
-5.69
-6.37
-2.90
2.50
6.49
6.56
2.54
-3.33
-7.71
-8.14
-4.45
1.19
5.58
6.29
3.14
-1.82
-5.49
-5.59
-1.98
3.22
6.84
6.58
2.32
-3.73
-8.32
-8.95
-5.35
0.40
5.03
5.99
2.96
-1.95
-5.47
-5.14
-0.87
4.97
8.94
8.60
4.04
-2.20
-6.59
-6.68
-2.62
3.04
6.83
6.42
1.97
-4.01
-8.13
-8.08
-3.89
2.08
6.52
7.07
3.61
-1.68
-5.63
-5.89
-2.31
2.96
6.78
6.85
3.14
-2.10
-5.63
-5.20
-0.91
4.76
8.47
7.93
3.31
-2.85
-7.15
-7.26
-3.30
2.23
5.97
5.61
1.27
-4.62
-8.71
-8.71
-4.67
1.02
5.04
5.11
1.35
-3.82
-7.06
-6.17
-1.46
4.44
8.09
7.33
2.64
-3.16
-6.56
-5.43
-0.42
5.50
8.77
7.32
1.81
-4.76
-8.83
-8.31
-3.70
2.20
5.97
5.52
1.23
-4.28
-7.73
-7.06
-2.58
3.16
6.89
6.50
2.34
-3.04
-6.29
-5.30
-0.52
5.34
8.85
7.90
3.04
-2.89
-6.43
-5.55
-0.86
4.72
7.76
6.31
1.06
-5.11
-8.78
-8.00
-3.33
2.49
6.16
5.73
1.68
-3.33
-6.06
-4.62
0.37
6.13
9.27
7.79
2.31
-4.31
-8.61
-8.44
-4.29
1.16
4.57
3.97
-0.07
-4.82
-7.08
-5.09
0.38
6.39
9.58
8.15
2.85
-3.39
-7.14
-6.50
-2.14
3.13
6.01
4.70
-0.00
-5.16
-7.46
-5.21
0.63
6.88
10.00
8.15
2.28
-4.42
-8.34
-7.60
-3.04
2.29
5.07
3.68
-0.81
-5.35
-6.78
-3.80
2.22
7.96
10.05
7.12
0.59
-6.13
-9.54
-8.05
-2.83
2.91
5.87
4.53
-0.01
-4.72
-6.51
-4.07
1.33
6.54
8.37
5.52
-0.64
-6.70
-9.20
-6.63
-0.32
6.24
9.42
7.51
1.72
-4.61
-8.00
-6.85
-2.31
2.54
4.62
2.74
-1.77
-5.90
-6.81
-3.52
2.39
7.73
9.42
6.36
0.07
-6.07
-8.70
-6.40
-0.56
5.52
8.44
6.71
1.57
-3.81
-6.24
-4.38
0.47
5.18
6.69
3.90
-1.66
-6.69
-8.12
-4.91
1.29
7.07
9.24
6.71
1.05
-4.35
-6.35
-3.88
1.47
6.34
7.62
4.32
-1.86
-7.51
-9.46
-6.66
-0.77
4.86
7.08
4.84
-0.26
-4.90
-6.08
-2.92
2.77
7.59
8.53
4.84
-1.57
-7.19
-8.97
-6.04
-0.23
5.01
6.59
3.58
-2.29
-7.57
-9.15
-6.06
-0.06
5.45
7.41
4.91
-0.32
-4.97
-6.12
-3.04
2.42
6.94
7.71
4.13
-1.84
-6.84
-8.09
-4.97
0.60
5.33
6.48
3.48
-1.72
-5.76
-5.93
-1.76
4.58
9.49
10.07
5.80
-1.12
-7.04
-8.99
-6.31
-1.03
3.48
4.54
1.74
-2.82
-5.87
-4.98
-0.10
6.33
10.75
10.51
5.49
-1.89
-7.92
-9.71
-6.77
-1.19
3.56
4.73
1.83
-3.06
-6.62
-6.29
-1.82
4.45
9.03
9.28
4.98
-1.53
-6.71
-7.87
-4.74
0.41
4.24
4.29
0.51
-4.70
-7.95
-6.88
-1.64
5.14
9.78
9.71
4.93
-1.96
-7.26
-8.25
-4.81
0.70
4.85
5.19
1.72
-3.19
-6.30
-5.42
-0.79
5.05
8.69
7.88
2.88
-3.59
-7.89
-7.52
-2.62
4.07
8.83
9.03
4.70
-1.56
-6.18
-6.72
-3.28
1.66
4.82
4.14
0.05
-4.83
-7.29
-5.47
-0.03
6.14
9.54
8.06
2.29
-4.79
-9.41
-9.14
-4.32
2.23
6.83
7.10
3.28
-2.00
-5.40
-4.85
-0.81
4.05
6.52
4.79
-0.40
-6.11
-8.96
-7.10
-1.33
5.26
9.04
7.92
2.56
-4.03
-8.23
-7.89
-3.62
1.76
4.89
3.97
-0.23
-4.83
-6.65
-4.17
1.58
7.47
10.10
7.78
1.58
-5.22
-8.98
-7.74
-2.38
3.93
7.57
6.60
1.81
-3.79
-6.83
-5.61
-1.06
3.91
6.23
4.54
-0.06
-4.69
-6.46
-4.16
0.98
5.99
7.82
5.19
-0.65
-6.49
-9.00
-6.58
-0.41
6.17
9.56
7.93
2.32
-3.99
-7.41
-6.21
-1.40
3.90
6.45
4.86
0.31
-4.25
-5.97
-3.81
0.82
4.97
5.94
2.89
-2.55
-7.26
-8.35
-4.90
1.44
7.25
9.24
6.14
-0.46
-6.95
-9.72
-7.23
-0.93
5.61
8.77
6.99
1.60
-4.08
-6.81
-5.28
-0.81
3.59
5.15
3.02
-1.33
-5.07
-5.73
-2.72
2.31
6.46
7.21
3.98
-1.53
-6.23
-7.36
-4.13
1.72
6.88
8.29
4.99
-1.23
-6.78
-8.36
-4.89
1.77
7.86
9.92
6.81
0.35
-5.78
-8.28
-6.10
-1.01
3.61
4.88
2.14
-2.68
-6.31
-6.17
-1.92
4.19
8.71
8.90
4.46
-2.30
-7.75
-8.96
-5.45
0.60
5.62
6.78
3.59
-1.79
-5.90
-6.07
-2.03
3.93
8.29
8.43
4.11
-2.37
-7.53
-8.69
-5.47
0.02
4.45
5.22
1.92
-3.41
-7.51
-7.82
-4.00
1.85
6.39
7.07
3.66
-1.61
-5.35
-5.03
-0.58
5.53
9.77
9.59
5.06
-1.23
-5.64
-5.67
-1.45
4.34
8.09
7.39
2.45
-3.98
-8.30
-8.12
-3.64
2.42
6.42
5.98
1.25
-5.10
-9.47
-9.42
-5.07
1.00
5.27
5.33
1.34
-4.11
-7.53
-6.59
-1.61
4.69
8.75
8.26
3.56
-2.66
-6.89
-6.87
-2.91
2.37
5.65
4.86
0.50
-4.66
-7.24
-5.25
0.62
7.34
11.22
10.05
4.38
-2.83
-7.83
-8.26
-4.47
0.85
4.28
3.73
-0.32
-5.19
-7.58
-5.62
-0.01
6.28
9.70
8.19
2.38
-4.65
-9.15
-8.80
-4.08
2.11
6.18
6.00
2.10
-2.74
-5.25
-3.66
1.17
6.32
8.49
6.07
0.11
-6.16
-9.20
-7.14
-1.00
5.91
9.79
8.55
2.93
-3.87
-8.11
-7.69
-3.24
2.31
5.63
4.97
1.10
-3.31
-5.38
-3.80
0.43
4.65
6.16
3.90
-0.94
-5.53
-7.01
-4.21
1.61
7.30
9.56
6.86
0.40
-6.40
-9.83
-8.04
-2.09
4.57
8.22
6.96
1.83
-3.93
-6.89
-5.52
-0.99
3.63
5.35
3.11
-1.61
-5.76
-6.59
-3.34
2.26
6.98
7.91
4.24
-2.21
-7.90
-9.60
-6.19
0.61
7.15
9.91
7.45
1.23
-5.28
-8.64
-7.34
-2.62
2.39
4.65
2.98
-1.29
-5.16
-5.86
-2.53
3.23
8.24
9.57
6.33
0.12
-5.77
-8.25
-6.18
-1.00
4.14
6.25
4.25
-0.39
-4.56
-5.45
-2.26
3.26
7.87
8.74
5.19
-0.90
-6.16
-7.71
-4.81
0.69
5.48
6.71
3.63
-2.01
-7.01
-8.61
-6.02
-0.91
3.64
4.96
2.38
-2.35
-6.10
-6.28
-2.42
3.44
8.01
8.69
5.12
-0.52
-4.87
-5.34
-1.70
3.80
7.77
7.68
3.35
-2.93
-7.78
-8.68
-5.33
0.18
4.59
5.43
2.41
-2.45
-5.99
-5.83
-1.85
3.74
7.69
7.63
3.57
-2.15
-6.14
-6.06
-1.97
3.61
7.28
6.72
2.05
-4.24
-8.75
-9.15
-5.40
0.21
4.48
5.12
2.06
-2.59
-5.84
-5.57
-1.81
3.28
6.70
6.40
2.54
-2.58
-5.79
-4.98
-0.35
5.58
9.44
8.95
4.25
-2.14
-6.84
-7.48
-4.09
0.99
4.57
4.51
0.96
-3.70
-6.33
-4.92
0.11
6.13
9.75
8.83
3.77
-2.76
-7.28
-7.54
-3.80
1.43
4.85
4.41
0.44
-4.48
-7.20
-5.81
-0.88
4.89
8.21
7.15
2.23
-3.90
-7.95
-7.84
-3.88
1.44
4.93
4.57
0.65
-4.32
-7.16
-5.85
-0.78
5.39
9.27
8.73
4.18
-1.63
-5.20
-4.41
0.23
5.82
8.85
7.31
1.92
-4.22
-7.56
-6.20
-1.04
4.74
7.57
5.66
0.05
-6.04
-9.05
-7.25
-1.74
4.23
7.17
5.36
-0.10
-6.01
-8.91
-7.12
-1.74
4.13
7.16
5.81
1.18
-3.71
-5.76
-3.67
1.28
6.05
7.70
5.19
0.03
-4.68
-6.07
-3.26
2.11
6.88
8.23
5.33
-0.23
-5.39
-7.45
-5.59
-1.31
2.51
3.36
0.52
-4.52
-8.93
-10.19
-7.50
-2.25
2.80
5.08
3.61
-0.47
-4.63
-6.42
-4.82
-0.79
3.33
5.25
4.07
0.73
-2.61
-3.80
-2.04
1.72
5.37
6.87
5.45
1.99
-1.54
-3.21
-2.27
0.50
3.28
4.32
2.95
-0.04
-2.93
-4.05
-2.81
-0.02
2.56
3.28
1.54
-1.81
-5.00
-6.31
-5.07
-2.08
0.89
2.12
0.99
-1.69
-4.07
-4.45
-2.30
1.37
4.54
5.41
3.46
-0.13
-3.15
-3.63
-1.07
3.25
6.89
7.73
5.20
0.61
-3.61
-5.30
-3.80
-0.34
2.78
3.59
1.64
-1.77
-4.35
-4.25
-1.19
3.28
6.67
6.94
3.78
-1.25
-5.51
-6.82
-4.70
-0.59
3.05
4.19
2.41
-0.91
-3.53
-3.79
-1.55
1.73
4.00
3.87
1.52
-1.53
-3.38
-2.87
-0.29
2.82
4.62
4.07
1.49
-1.57
-3.22
-2.34
0.76
4.43
6.57
5.82
2.36
-2.08
-5.17
-5.26
-2.37
1.79
4.78
4.84
1.93
-2.27
-5.36
-5.60
-2.98
0.83
3.45
3.28
0.45
-3.21
-5.24
-4.04
0.14
5.19
8.32
7.64
3.31
-2.46
-6.66
-7.14
-3.87
1.05
4.68
4.95
1.89
-2.37
-4.98
-4.03
0.21
5.43
8.59
7.72
3.07
-2.97
-7.27
-7.70
-4.32
0.69
4.37
4.69
1.77
-2.30
-4.68
-3.56
0.73
5.87
8.81
7.63
2.71
-3.44
-7.56
-7.43
-3.20
2.72
7.09
7.67
4.46
-0.38
-3.85
-3.91
-0.72
3.53
5.92
4.61
-0.01
-5.47
-8.65
-7.58
-2.68
3.46
7.51
7.29
3.08
-2.66
-6.61
-6.60
-2.85
2.20
5.31
4.48
0.09
-5.21
-8.13
-6.69
-1.41
4.88
8.72
7.99
3.19
-2.92
-6.87
-6.53
-2.32
3.07
6.31
5.45
1.03
-4.19
-6.95
-5.34
-0.05
6.09
9.70
8.76
3.84
-2.34
-6.44
-6.44
-2.76
2.12
5.21
4.85
1.67
-1.88
-3.05
-0.53
4.69
9.83
11.86
9.39
3.54
-2.55
-5.46
-3.44
2.50
9.10
12.70
11.32
5.83
-0.59
-4.34
-3.54
0.92
6.03
8.50
6.79
1.92
-3.24
-5.82
-4.63
-0.89
2.56
2.97
-0.69
-7.09
-13.32
-16.48
-15.30
-10.85
-5.86
-3.22
-4.35
-8.49
-13.18
-15.70
-14.57
-10.33
-5.08
-1.22
-0.09
-1.36
-3.42
-4.46
-3.58
-1.32
0.82
1.34
-0.31
-3.27
-5.79
-6.19
-3.89
0.16
3.95
5.54
4.15
0.73
-2.59
-3.67
-1.66
2.47
6.39
7.82
5.84
1.48
-2.84
-4.80
-3.45
0.11
3.51
4.47
2.23
-2.03
-5.89
-7.16
-5.20
-1.26
2.28
3.34
1.39
-2.31
-5.46
-6.08
-3.69
0.49
4.23
5.61
4.09
0.78
-2.20
-2.98
-0.98
2.76
6.19
7.44
5.90
2.56
-0.60
-1.76
-0.34
2.63
5.22
5.73
3.72
0.32
-2.50
-3.05
-1.01
2.41
5.19
5.65
3.47
-0.10
-2.99
-3.48
-1.26
2.42
5.37
5.83
3.41
-0.57
-3.85
-4.54
-2.24
1.70
4.96
5.58
3.11
-1.04
-4.48
-5.18
-2.73
1.41
4.78
5.36
2.80
-1.37
-4.64
-5.03
-2.34
1.72
4.57
4.27
0.77
-4.00
-7.26
-6.97
-3.11
2.30
6.27
6.63
3.22
-1.93
-5.79
-6.06
-2.53
2.76
6.72
6.93
3.18
-2.38
-6.43
-6.35
-1.88
4.72
9.80
10.47
6.25
-0.55
-6.08
-7.08
-2.81
4.55
11.06
13.22
9.95
3.16
-3.34
-5.97
-3.37
3.06
10.17
15.06
16.65
15.87
14.41
12.81
9.63
2.32
-10.48
-27.01
-42.13
-49.49
-44.86
-28.71
-6.40
14.32
26.99
29.33
23.74
15.35
8.96
6.74
7.68
9.02
8.27
4.83
0.19
-3.14
-3.25
-0.02
4.73
8.23
8.33
4.72
-0.87
-5.59
-7.05
-4.63
0.20
4.68
6.28
4.08
-0.81
-5.89
-8.65
-7.94
-4.47
-0.41
1.86
1.07
-2.37
-6.69
-9.74
-10.27
-8.46
-5.81
-4.12
-4.52
-6.80
-9.59
-11.18
-10.55
-7.96
-4.82
-2.89
-3.22
-5.48
-8.09
-9.15
-7.52
-3.71
0.36
2.38
1.06
-2.95
-7.30
-9.28
-7.37
-2.32
3.29
6.49
5.77
1.93
-2.39
-4.34
-2.61
1.79
6.20
7.92
5.96
1.68
-2.07
-2.64
0.77
6.53
11.47
12.71
9.30
2.84
-3.42
-6.35
-4.67
0.32
5.58
8.03
6.31
1.46
-3.67
-6.20
-4.77
-0.39
4.30
6.50
4.98
0.77
-3.47
-5.06
-2.88
1.90
6.51
8.23
6.06
1.27
-3.29
-4.92
-2.69
1.98
6.23
7.38
4.60
-0.63
-5.39
-7.07
-4.88
-0.27
3.95
5.26
2.95
-1.54
-5.51
-6.61
-4.22
0.16
3.92
4.80
2.26
-2.23
-6.02
-6.87
-4.20
0.57
4.78
6.11
3.88
-0.51
-4.41
-5.42
-2.84
1.94
6.25
7.70
5.65
1.51
-2.07
-2.84
-0.30
3.97
7.27
7.40
4.00
-1.25
-5.60
-6.83
-4.46
-0.08
3.71
4.72
2.51
-1.45
-4.62
-4.94
-2.09
2.38
5.93
6.52
3.86
-0.45
-3.85
-4.31
-1.56
2.80
6.17
6.51
3.52
-1.21
-5.08
-6.03
-3.69
0.41
3.77
4.41
2.02
-1.83
-4.62
-4.49
-1.36
2.94
5.78
5.28
1.50
-3.61
-7.31
-7.66
-4.63
-0.14
3.06
2.96
-0.56
-5.59
-9.28
-9.49
-5.91
-0.28
4.63
6.60
5.14
1.74
-1.14
-1.52
0.88
4.49
6.90
6.31
2.69
-2.22
-5.90
-6.52
-3.97
0.04
3.07
3.36
0.85
-2.77
-5.08
-4.41
-0.84
3.76
6.83
6.59
3.11
-1.78
-5.49
-6.18
-3.78
0.08
3.06
3.55
1.52
-1.47
-3.33
-2.71
0.18
3.67
5.60
4.65
1.15
-3.01
-5.49
-4.79
-1.18
3.39
6.46
6.39
3.36
-0.78
-3.61
-3.54
-0.76
2.92
5.13
4.37
0.95
-3.20
-5.70
-5.02
-1.52
2.87
5.71
5.46
2.41
-1.54
-3.99
-3.47
-0.27
3.65
5.93
5.10
1.52
-2.87
-5.69
-5.48
-2.54
1.32
3.82
3.60
0.98
-2.24
-3.88
-2.73
0.72
4.49
6.30
4.91
0.92
-3.65
-6.43
-6.09
-3.07
0.76
3.19
2.98
0.52
-2.40
-3.72
-2.33
1.24
5.07
6.93
5.61
1.68
-2.83
-5.49
-4.91
-1.52
2.67
5.23
4.75
1.63
-2.20
-4.45
-3.85
-0.92
2.39
3.89
2.48
-1.10
-4.71
-6.06
-4.07
0.40
5.00
7.22
5.83
1.63
-3.01
-5.52
-4.59
-0.95
3.16
5.35
4.50
1.39
-1.89
-3.20
-1.71
1.63
4.68
5.33
2.85
-1.68
-5.92
-7.57
-5.66
-1.15
3.58
6.07
5.09
1.31
-3.10
-5.78
-5.51
-2.86
0.28
1.83
0.86
-1.88
-4.43
-4.85
-2.45
1.73
5.45
6.55
4.27
-0.25
-4.51
-6.10
-4.07
0.48
5.03
7.06
5.57
1.54
-2.62
-4.59
-3.45
-0.21
2.92
3.94
2.28
-0.90
-3.43
-3.47
-0.69
3.51
6.73
6.98
3.90
-0.96
-4.89
-5.60
-2.51
2.83
7.58
9.20
6.91
2.11
-2.40
-4.10
-2.16
2.15
6.23
7.77
6.05
2.26
-1.30
-2.63
-1.19
1.86
4.48
4.98
3.02
-0.22
-2.80
-3.13
-0.95
2.52
5.30
5.83
3.81
0.45
-2.27
-2.74
-0.68
2.62
5.08
5.00
2.16
-2.00
-5.18
-5.51
-2.72
1.70
5.34
6.29
4.23
0.62
-2.23
-2.54
-0.12
3.58
6.39
6.78
4.73
1.76
-0.08
0.61
3.77
7.94
11.06
11.48
8.66
3.27
-3.29
-9.55
-14.49
-17.73
-19.50
-20.39
-21.12
-22.25
-23.91
-25.61
-26.55
-26.17
-24.64
-22.84
-21.64
-21.05
-19.86
-16.20
-8.93
1.19
11.48
18.58
20.37
17.23
11.82
7.41
5.92
6.86
8.05
7.32
4.11
-0.14
-3.05
-2.91
0.19
4.37
7.15
6.87
3.70
-0.57
-3.59
-3.83
-1.39
2.14
4.64
4.77
2.65
-0.22
-1.95
-1.35
1.37
4.75
6.97
6.87
4.60
1.49
-0.78
-1.10
0.49
2.86
4.52
4.51
2.90
0.76
-0.56
-0.19
1.69
3.97
5.27
4.74
2.61
0.04
-1.51
-1.21
0.72
3.06
4.35
3.75
1.53
-1.03
-2.45
-1.85
0.49
3.27
4.92
4.52
2.30
-0.44
-2.15
-1.87
0.12
2.42
3.38
2.07
-1.05
-4.24
-5.51
-3.76
0.43
4.96
7.35
6.19
2.02
-2.84
-5.63
-4.74
-0.71
4.06
6.74
5.72
1.58
-3.28
-6.13
-5.48
-1.93
2.27
4.67
4.07
1.12
-2.17
-3.70
-2.59
0.36
3.20
4.05
2.22
-1.32
-4.50
-5.34
-3.15
1.02
4.84
6.05
3.75
-0.97
-5.54
-7.38
-5.36
-0.49
4.56
7.02
5.60
1.25
-3.43
-5.74
-4.45
-0.48
3.71
5.67
4.38
0.84
-2.71
-4.11
-2.65
0.61
3.53
4.22
2.15
-1.52
-4.70
-5.58
-3.67
-0.10
3.04
3.91
1.97
-1.70
-4.98
-5.91
-3.88
0.01
3.54
4.61
2.55
-1.48
-5.09
-6.03
-3.59
0.97
5.06
6.32
4.02
-0.48
-4.54
-5.79
-3.51
0.91
4.86
6.06
3.91
-0.20
-3.74
-4.56
-2.18
1.99
5.47
6.23
3.84
-0.31
-3.88
-4.92
-3.00
0.60
3.71
4.55
2.73
-0.55
-3.33
-4.00
-2.27
0.74
3.22
3.74
2.08
-0.69
-2.89
-3.23
-1.55
1.06
2.96
2.90
0.80
-2.15
-4.20
-4.03
-1.61
1.75
4.04
3.80
0.99
-2.91
-5.64
-5.49
-2.34
2.16
5.52
5.82
2.88
-1.60
-4.99
-5.30
-2.32
2.22
5.70
6.12
3.31
-1.01
-4.29
-4.70
-2.14
1.70
4.40
4.31
1.46
-2.43
-5.05
-4.84
-1.94
1.94
4.52
4.34
1.54
-2.16
-4.58
-4.28
-1.46
2.21
4.56
4.23
1.43
-2.13
-4.32
-3.86
-1.02
2.49
4.56
3.98
1.09
-2.35
-4.29
-3.59
-0.67
2.73
4.60
3.82
0.83
-2.65
-4.67
-4.17
-1.57
1.47
3.05
2.18
-0.66
-3.82
-5.39
-4.37
-1.24
2.28
4.23
3.57
0.80
-2.32
-3.75
-2.43
1.07
4.80
6.57
5.20
1.34
-2.92
-5.22
-4.29
-0.75
3.31
5.52
4.64
1.26
-2.59
-4.68
-3.89
-0.85
2.48
4.00
2.72
-0.59
-3.85
-4.93
-2.89
1.38
5.60
7.40
5.68
1.29
-3.43
-5.97
-5.10
-1.51
2.59
4.78
3.92
0.74
-2.58
-3.79
-1.92
2.10
5.97
7.38
5.33
0.80
-3.89
-6.36
-5.54
-2.28
1.24
2.79
1.47
-1.79
-4.78
-5.37
-2.81
1.75
5.92
7.39
5.31
0.74
-3.92
-6.25
-5.22
-1.69
2.09
3.83
2.56
-0.84
-4.21
-5.40
-3.60
0.17
3.71
4.92
3.10
-0.57
-3.77
-4.44
-2.00
2.19
5.68
6.37
3.77
-0.75
-4.69
-5.94
-3.92
0.07
3.63
4.67
2.62
-1.30
-4.77
-5.75
-3.66
0.31
3.82
4.81
2.68
-1.34
-4.88
-5.81
-3.51
0.76
4.60
5.86
3.97
0.25
-2.89
-3.42
-0.93
3.05
6.02
6.00
2.75
-2.04
-5.73
-6.31
-3.52
0.95
4.45
4.93
2.09
-2.49
-6.23
-7.07
-4.60
-0.27
3.46
4.51
2.44
-1.35
-4.42
-4.74
-1.93
2.52
6.08
6.73
4.10
-0.27
-3.93
-4.88
-2.82
0.73
3.44
3.53
0.93
-2.72
-5.02
-4.30
-0.65
4.04
7.14
6.81
3.07
-2.14
-6.05
-6.64
-3.79
0.67
4.10
4.63
2.17
-1.59
-4.32
-4.44
-2.08
1.11
3.03
2.41
-0.38
-3.58
-5.12
-3.86
-0.31
3.59
5.58
4.36
0.45
-4.06
-6.59
-5.58
-1.40
3.73
7.01
6.65
2.88
-2.10
-5.41
-5.20
-1.69
2.98
6.01
5.66
2.20
-2.24
-5.08
-4.73
-1.57
2.41
4.82
4.31
1.34
-2.20
-4.20
-3.52
-0.72
2.39
3.88
2.82
-0.12
-3.14
-4.37
-3.02
0.13
3.24
4.41
2.88
-0.53
-3.83
-5.00
-3.16
0.83
4.79
6.44
4.69
0.31
-4.39
-6.88
-5.83
-1.86
2.77
5.50
4.92
1.59
-2.37
-4.58
-3.80
-0.67
2.78
4.40
3.22
0.03
-3.11
-4.13
-2.21
1.68
5.29
6.38
4.04
-0.71
-5.44
-7.61
-6.06
-1.62
3.28
6.05
5.38
1.96
-2.00
-4.15
-3.36
-0.35
2.79
3.93
2.20
-1.45
-4.85
-5.84
-3.60
0.81
5.03
6.76
5.10
1.08
-2.93
-4.62
-3.09
0.64
4.21
5.38
3.34
-0.78
-4.54
-5.67
-3.44
0.93
4.94
6.27
4.19
-0.08
-4.03
-5.42
-3.50
0.47
4.02
4.93
2.55
-1.78
-5.55
-6.55
-4.20
0.15
3.98
5.12
2.95
-1.18
-4.80
-5.75
-3.44
0.75
4.32
5.11
2.65
-1.61
-5.10
-5.68
-2.94
1.58
5.32
6.13
3.61
-0.75
-4.42
-5.32
-3.00
1.14
4.71
5.71
3.63
-0.24
-3.63
-4.61
-2.74
0.71
3.49
3.73
1.18
-2.70
-5.57
-5.60
-2.67
1.54
4.54
4.50
1.38
-2.98
-5.98
-5.79
-2.36
2.48
6.13
6.73
4.11
-0.06
-3.34
-3.86
-1.40
2.48
5.39
5.54
2.75
-1.44
-4.63
-5.05
-2.54
1.30
4.09
4.06
1.17
-2.86
-5.53
-5.08
-1.53
3.30
6.79
7.12
4.26
0.01
-3.10
-3.31
-0.68
2.97
5.14
4.21
0.44
-4.16
-6.99
-6.43
-2.76
1.96
5.12
5.04
1.93
-2.29
-5.12
-4.95
-1.98
1.87
4.20
3.52
0.14
-3.96
-6.33
-5.48
-1.76
2.85
5.90
5.87
3.08
-0.63
-2.97
-2.62
0.04
3.18
4.66
3.32
-0.27
-4.13
-5.96
-4.55
-0.49
4.05
6.51
5.45
1.36
-3.54
-6.58
-6.12
-2.52
2.08
5.10
4.95
1.98
-1.89
-4.32
-4.04
-1.50
1.48
2.87
1.71
-1.33
-4.38
-5.50
-3.87
-0.32
3.13
4.39
2.59
-1.37
-5.25
-6.74
-4.75
-0.19
4.54
6.87
5.55
1.40
-3.16
-5.52
-4.38
-0.55
3.66
5.79
4.71
1.24
-2.40
-4.03
-2.76
0.51
3.70
4.86
3.29
-0.01
-3.05
-3.98
-2.25
1.10
3.99
4.55
2.23
-1.84
-5.42
-6.40
-4.04
0.57
5.07
7.12
5.74
1.83
-2.33
-4.44
-3.52
-0.37
2.87
4.10
2.51
-0.96
-4.15
-4.98
-2.78
1.30
4.90
5.83
3.36
-1.26
-5.57
-7.23
-5.42
-1.28
2.76
4.45
3.02
-0.40
-3.49
-4.20
-1.97
1.86
4.89
5.12
2.15
-2.52
-6.34
-7.18
-4.55
0.14
4.36
5.92
4.22
0.49
-2.98
-4.19
-2.60
0.60
3.28
3.64
1.30
-2.46
-5.42
-5.73
-3.02
1.39
5.17
6.34
4.40
0.65
-2.65
-3.57
-1.71
1.62
4.14
4.08
1.23
-2.87
-5.82
-5.76
-2.52
2.29
6.14
7.07
4.77
0.77
-2.54
-3.26
-1.12
2.38
4.86
4.58
1.48
-2.77
-5.70
-5.59
-2.44
1.96
5.05
5.04
1.90
-2.59
-5.84
-5.98
-2.92
1.64
5.13
5.66
3.03
-1.14
-4.36
-4.75
-2.17
1.74
4.51
4.35
1.29
-2.87
-5.59
-5.19
-1.85
2.47
5.17
4.64
1.17
-3.16
-5.79
-5.12
-1.52
2.98
5.83
5.46
2.12
-2.26
-5.18
-4.99
-1.85
2.42
5.37
5.29
2.28
-1.93
-4.88
-4.91
-2.11
1.69
4.06
3.37
-0.08
-4.29
-6.71
-5.77
-1.83
2.99
6.08
5.81
2.49
-1.83
-4.58
-4.17
-0.91
3.16
5.48
4.53
0.75
-3.73
-6.34
-5.55
-1.84
2.62
5.19
4.38
0.70
-3.62
-5.95
-4.80
-0.72
4.08
6.98
6.50
3.09
-1.16
-3.79
-3.41
-0.53
2.82
4.29
2.71
-1.23
-5.29
-7.06
-5.35
-0.97
3.77
6.35
5.50
1.94
-2.08
-4.12
-2.96
0.63
4.41
5.96
4.17
-0.09
-4.44
-6.42
-4.85
-0.60
4.01
6.44
5.50
1.97
-1.89
-3.66
-2.24
1.50
5.22
6.55
4.50
0.06
-4.33
-6.24
-4.69
-0.66
3.43
5.21
3.70
-0.10
-3.84
-5.27
-3.54
0.29
3.81
4.81
2.47
-2.03
-6.26
-7.89
-6.03
-1.76
2.57
4.61
3.47
0.13
-3.16
-4.26
-2.44
1.21
4.37
4.95
2.31
-2.24
-6.23
-7.38
-4.95
-0.18
4.40
6.43
5.06
1.39
-2.21
-3.58
-2.00
1.34
4.10
4.23
1.23
-3.49
-7.37
-8.17
-5.31
-0.20
4.47
6.32
4.60
0.58
-3.23
-4.59
-2.88
0.65
3.63
4.11
1.72
-2.07
-4.87
-4.80
-1.68
2.84
6.20
6.42
3.28
-1.51
-5.25
-5.80
-2.73
2.33
6.68
8.08
5.98
1.83
-1.91
-3.22
-1.71
1.27
3.49
3.25
0.47
-3.29
-5.75
-5.28
-1.95
2.44
5.39
5.09
1.57
-3.30
-6.84
-7.02
-3.69
1.37
5.43
6.40
3.98
-0.24
-3.78
-4.73
-2.82
0.48
2.97
3.03
0.66
-2.61
-4.59
-3.78
-0.35
3.96
6.72
6.31
2.82
-1.88
-5.25
-5.44
-2.43
2.03
5.38
5.77
3.13
-0.82
-3.60
-3.46
-0.47
3.53
6.05
5.43
1.86
-2.71
-5.78
-5.71
-2.76
1.12
3.45
2.72
-0.65
-4.58
-6.54
-5.12
-0.88
3.88
6.48
5.42
1.26
-3.68
-6.67
-6.09
-2.35
2.37
5.44
5.29
2.28
-1.63
-4.11
-3.85
-1.25
1.87
3.48
2.55
-0.32
-3.32
-4.51
-2.99
0.51
4.04
5.49
3.88
-0.01
-4.03
-5.83
-4.23
0.06
4.74
7.21
6.07
1.96
-2.81
-5.59
-4.98
-1.57
2.44
4.57
3.59
0.16
-3.53
-5.15
-3.61
0.26
4.19
5.88
4.29
0.31
-3.78
-5.66
-4.31
-0.66
3.00
4.36
2.47
-1.62
-5.52
-6.84
-4.68
-0.15
4.27
6.15
4.56
0.57
-3.44
-5.17
-3.74
-0.21
3.14
4.12
2.03
-1.95
-5.42
-6.16
-3.49
1.26
5.50
6.87
4.60
-0.03
-4.46
-6.31
-4.76
-0.97
2.69
4.06
2.48
-0.84
-3.64
-4.01
-1.58
2.22
5.04
5.00
1.81
-2.93
-6.69
-7.37
-4.54
0.26
4.41
5.69
3.50
-0.80
-4.80
-6.50
-5.43
-2.88
-0.99
-1.41
-4.22
-7.98
-10.53
-10.45
-7.90
-4.67
-3.16
-4.95
-9.84
-15.84
-20.22
-21.09
-18.47
-14.41
-11.87
-13.01
-17.97
-24.74
-30.34
-32.58
-31.27
-28.35
-26.71
-28.41
-33.59
-40.34
-45.82
-47.84
-45.76
-40.34
-32.75
-23.53
-12.39
1.07
16.35
31.48
43.54
49.99
50.10
45.48
39.45
35.50
35.80
40.51
48.17
56.69
64.31
70.12
73.87
75.56
75.16
72.60
67.87
61.26
53.37
44.99
36.89
29.58
23.22
17.65
12.52
7.55
2.64
-2.06
-6.23
-9.57
-11.95
-13.45
-14.34
-14.99
-15.67
-16.47
-17.31
-18.01
-18.38
-18.33
-17.92
-17.30
-16.65
-16.09
-15.67
-15.32
-14.96
-14.50
-13.91
-13.20
-12.43
-11.67
-10.96
-10.31
-9.72
-9.16
-8.63
-8.10
-7.59
-7.10
-6.61
-6.15
-5.71
-5.28
-4.89
-4.49
-4.12
-3.76
-3.44
-3.14
-2.88
-2.63
-2.41
-2.21
-2.03
-1.87
-1.73
-1.61
-1.49
-1.39
-1.29
-1.20
-1.12
-1.05
-0.99
-0.93
-0.88
-0.82
-0.78
-0.74
-0.70
-0.66
-0.63
-0.60
-0.57
-0.54
-0.52
-0.50
-0.48
-0.46
-0.44
-0.42
-0.41
-0.39
-0.37
-0.37
-0.35
-0.34
-0.33
-0.32
-0.31
-0.30
-0.29
-0.28
-0.27
-0.26
-0.26
-0.25
-0.24
-0.23
-0.23
-0.22
-0.22
-0.21
-0.20
-0.20
-0.19
-0.19
-0.19
-0.18
-0.18
-0.17
-0.17
-0.16
-0.16
-0.16
-0.15
-0.15
-0.14
-0.14
-0.13
-0.13
-0.13
-0.13
-0.13
-0.13
-0.13
-0.11
-0.08
-0.04
-0.03
-0.07
-0.18
-0.36
-0.55
-0.73
-0.84
-0.87
-0.82
-0.78
-0.78
-0.88
-1.05
-1.27
-1.45
-1.54
-1.51
-1.41
-1.34
-1.39
-1.64
-2.07
-2.56
-2.97
-3.13
-3.01
-2.72
-2.49
-2.63
-3.28
-4.42
-5.75
-6.89
-7.45
-7.32
-6.77
-6.31
-6.57
-7.89
-10.21
-12.96
-15.32
-16.59
-16.56
-15.64
-14.77
-15.00
-16.94
-20.47
-24.70
-28.35
-30.51
-30.80
-29.73
-28.38
-27.76
-28.66
-31.54
-36.65
-43.74
-51.46
-57.01
-56.54
-46.67
-26.29
2.14
33.14
60.26
78.72
87.30
88.14
85.13
81.58
78.93
76.82
74.37
71.29
68.27
66.42
66.24
67.17
67.79
66.69
63.07
56.92
49.14
40.95
33.24
26.26
19.62
12.72
5.19
-3.01
-10.90
-17.49
-22.07
-24.45
-25.08
-24.73
-24.20
-23.85
-23.52
-22.71
-20.86
-17.72
-13.53
-8.78
-4.17
-0.27
2.77
5.13
7.58
11.41
18.20
29.18
43.86
59.30
70.34
71.44
59.23
34.69
3.46
-26.17
-46.70
-54.64
-51.39
-42.19
-32.74
-26.94
-25.67
-27.86
-32.18
-37.65
-42.94
-45.26
-40.54
-25.22
0.61
31.83
59.42
74.48
72.71
56.61
33.99
13.54
0.80
-4.20
-5.45
-7.59
-12.85
-20.18
-26.85
-29.58
-29.40
-28.67
-30.11
-35.30
-43.58
-52.53
-58.90
-60.37
-56.51
-49.34
-41.75
-37.00
-36.96
-41.47
-48.63
-55.86
-60.95
-62.65
-60.59
-54.79
-46.08
-36.02
-27.31
-23.25
-26.59
-37.92
-54.38
-70.10
-78.01
-73.00
-54.24
-25.75
5.41
32.22
50.36
59.36
61.61
60.42
58.04
55.05
50.99
45.30
38.76
33.04
29.82
29.76
31.96
34.45
35.25
33.14
28.44
22.59
17.43
14.33
13.67
14.75
16.25
16.84
15.73
12.95
9.23
5.57
2.84
1.49
1.41
2.11
2.91
3.19
2.54
0.86
-1.61
-4.37
-6.75
-8.13
-8.17
-6.99
-5.16
-3.70
-3.58
-5.33
-8.74
-12.76
-15.96
-17.11
-15.76
-12.50
-8.91
-6.58
-6.60
-8.82
-11.77
-13.29
-11.10
-3.32
11.05
31.47
55.42
78.32
94.35
98.61
89.16
68.47
42.14
18.02
1.42
-6.73
-9.63
-12.72
-20.32
-34.39
-54.06
-76.21
-96.39
-110.11
-113.66
-104.51
-84.35
-57.50
-29.86
-6.51
9.75
19.25
23.72
25.03
24.12
20.76
14.83
6.74
-1.95
-9.49
-14.80
-18.10
-20.46
-22.92
-26.15
-29.62
-32.10
-32.25
-29.26
-23.02
-14.21
-3.94
6.59
16.30
24.47
30.66
34.75
36.95
37.91
38.58
39.99
42.84
47.05
51.80
55.69
57.41
56.56
53.91
51.16
50.33
52.64
57.92
64.93
72.07
78.04
81.96
83.31
81.43
75.56
65.49
52.39
39.04
28.76
23.52
22.08
20.20
12.93
-1.91
-21.24
-37.04
-39.95
-24.24
8.81
51.03
91.55
121.82
138.66
143.83
141.12
132.82
118.49
96.66
67.61
35.57
7.74
-8.90
-11.58
-3.51
7.31
11.25
2.45
-21.59
-58.60
-102.41
-144.73
-177.23
-193.23
-189.20
-165.41
-125.84
-77.10
-26.19
21.24
61.63
93.22
115.49
128.60
133.22
130.84
123.51
113.63
103.26
93.49
83.75
73.19
61.26
47.86
32.84
15.50
-5.22
-29.64
-56.51
-84.55
-112.19
-138.69
-164.49
-190.38
-215.96
-238.25
-251.67
-250.51
-234.17
-207.08
-177.54
-154.33
-143.26
-145.34
-157.33
-173.43
-188.29
-201.50
-214.91
-230.48
-248.24
-265.86
-280.01
-288.30
-289.51
-268.67
-218.65
-141.62
-49.25
43.63
126.35
194.79
248.65
289.66
319.52
336.86
340.57
331.38
312.41
288.17
262.83
237.91
213.54
189.10
161.81
129.81
93.11
53.89
15.32
-14.77
-34.95
-46.40
-51.52
-54.07
-56.83
-60.85
-65.35
-68.69
-69.57
-68.73
-67.35
-66.88
-69.03
-74.50
-82.61
-91.42
-98.95
-103.81
-106.58
-108.42
-110.65
-114.62
-121.29
-131.14
-143.74
-157.45
-168.73
-173.08
-165.70
-143.89
-109.17
-67.30
-26.41
6.53
27.73
38.85
43.63
46.29
49.55
53.88
58.37
62.04
65.06
67.84
70.71
73.01
73.63
71.67
66.80
59.92
52.93
48.63
48.96
54.71
65.35
79.57
95.85
112.84
129.67
142.82
152.23
158.04
160.24
158.83
154.22
147.35
139.51
132.04
125.74
121.03
117.17
113.24
108.43
102.71
96.74
91.44
87.75
86.57
88.98
95.17
103.87
111.69
113.61
104.69
82.50
49.01
10.50
-24.56
-49.25
-60.94
-61.81
-56.97
-51.65
-48.81
-48.60
-49.51
-50.05
-49.82
-49.68
-50.81
-53.92
-58.85
-64.83
-70.69
-75.63
-79.52
-82.83
-86.44
-91.40
-98.41
-107.46
-118.04
-129.60
-141.00
-153.03
-165.27
-175.48
-179.70
-173.57
-154.79
-124.78
-88.93
-54.79
-29.00
-14.45
-9.83
-11.06
-13.79
-15.21
-14.52
-12.04
-7.95
-1.84
7.26
19.84
35.00
50.67
64.36
73.96
78.58
78.63
75.36
70.35
64.79
59.14
53.19
46.51
38.88
30.55
22.30
15.11
9.85
6.84
5.77
5.87
6.21
6.00
4.92
3.08
0.94
-0.85
-1.80
-1.75
-0.91
0.25
1.19
1.53
1.18
0.32
-0.41
-0.35
0.86
3.20
6.25
9.31
11.70
13.04
13.38
13.63
14.81
17.73
22.63
29.20
36.68
44.25
51.34
57.83
64.54
72.62
83.41
98.40
118.91
145.44
177.18
211.83
242.15
262.18
267.90
258.67
237.25
208.54
177.45
147.24
119.10
92.74
68.29
46.27
27.62
13.03
2.54
-4.44
-8.62
-10.53
-10.72
-9.78
-9.10
-10.72
-16.69
-28.19
-45.09
-65.90
-88.20
-109.23
-126.13
-136.68
-139.76
-135.68
-126.20
-114.15
-102.58
-93.74
-88.52
-86.09
-84.73
-82.61
-78.57
-72.58
-65.60
-59.30
-55.45
-55.47
-59.98
-68.72
-80.51
-93.52
-105.66
-114.82
-119.16
-117.46
-109.43
-95.94
-79.06
-61.60
-46.34
-35.11
-28.20
-24.39
-21.62
-17.92
-12.20
-4.52
4.17
12.60
19.77
25.26
29.29
32.56
35.90
40.00
45.06
50.75
56.38
61.18
64.69
66.91
68.28
69.38
70.66
72.23
73.88
75.16
75.54
74.55
71.78
67.08
60.60
52.94
44.95
37.54
31.27
26.08
21.23
15.50
7.57
-3.65
-18.67
-37.08
-57.37
-77.03
-92.97
-102.53
-104.40
-99.23
-89.27
-77.29
-65.20
-53.28
-40.51
-25.88
-9.79
5.51
16.88
22.03
21.06
16.56
12.35
11.44
14.63
20.56
26.98
32.44
36.94
41.36
46.02
49.60
49.61
43.87
32.10
16.31
-0.36
-15.84
-30.63
-47.61
-70.08
-99.02
-131.65
-161.91
-183.05
-190.61
-184.23
-167.32
-144.98
-121.64
-99.50
-78.79
-58.93
-39.87
-22.64
-8.82
0.47
5.48
7.80
9.60
12.53
17.11
22.63
27.75
31.27
32.66
32.23
30.86
29.50
28.67
28.34
28.13
27.62
26.82
26.19
26.48
28.20
31.26
34.82
37.58
38.26
36.04
30.84
23.25
14.37
5.49
-2.09
-7.24
-9.23
-7.85
-3.59
2.53
9.22
15.42
20.47
24.26
26.95
28.64
29.21
28.38
25.98
22.37
18.40
15.16
13.43
13.20
13.57
13.05
10.26
4.60
-3.55
-12.75
-21.06
-26.50
-27.62
-23.99
-16.34
-6.53
3.00
9.80
12.26
10.08
4.14
-3.81
-11.92
-18.89
-24.31
-28.65
-33.02
-38.63
-46.06
-54.43
-61.26
-62.95
-56.14
-39.36
-14.10
15.45
43.77
66.05
79.63
84.51
82.46
75.87
66.72
56.24
45.14
33.99
23.43
14.04
6.32
0.49
-3.39
-5.42
-5.98
-5.57
-4.80
-4.14
-3.84
-3.90
-4.25
-4.91
-6.08
-7.97
-10.62
-13.85
-17.43
-21.33
-25.72
-30.81
-36.38
-41.61
-45.24
-46.06
-43.45
-37.69
-29.74
-20.83
-12.06
-4.30
1.78
5.61
6.92
5.96
3.71
1.61
1.03
2.60
5.94
9.99
13.48
15.64
16.35
16.05
15.29
14.44
13.63
12.93
12.49
12.61
13.64
15.77
18.86
22.44
25.80
28.21
29.07
28.00
24.84
19.69
12.83
4.80
-3.71
-11.88
-19.00
-24.64
-28.74
-31.62
-33.70
-35.30
-36.24
-35.91
-33.41
-28.14
-20.25
-10.93
-2.09
4.37
7.30
6.83
4.20
1.08
-1.22
-2.22
-2.27
-2.09
-2.17
-2.64
-3.33
-4.08
-4.88
-5.90
-7.31
-9.20
-11.57
-14.45
-17.92
-22.04
-26.78
-31.95
-37.12
-41.76
-45.16
-46.63
-45.66
-42.15
-36.64
-30.32
-24.56
-20.41
-17.99
-16.38
-14.05
-9.62
-2.60
6.40
16.02
24.80
31.79
36.85
40.29
42.54
43.75
43.82
42.66
40.44
37.63
34.90
32.87
31.78
31.37
31.11
30.26
28.32
25.13
20.75
15.27
8.73
1.18
-7.16
-15.53
-22.73
-27.40
-28.51
-26.28
-21.95
-17.34
-13.94
-12.33
-11.86
-11.70
-11.26
-10.66
-11.41
-14.92
-21.66
-30.65
-39.94
-47.11
-51.33
-53.04
-53.52
-55.58
-61.20
-70.59
-82.18
-93.58
-101.89
-106.74
-109.06
-110.21
-113.55
-121.46
-134.32
-150.56
-167.67
-182.18
-194.13
-205.13
-217.24
-235.27
-262.85
-300.67
-346.05
-394.12
-437.82
-474.07
-501.90
-501.98
-462.80
-383.74
-276.35
-158.68
-58.83
21.15
85.23
138.24
184.46
226.17
263.58
297.33
328.57
357.73
385.30
407.45
420.05
421.33
411.25
392.04
367.43
341.02
315.33
293.29
275.60
262.99
256.11
253.94
252.83
248.35
237.59
220.55
201.06
183.07
169.60
155.66
135.98
105.98
65.64
19.88
-24.77
-63.14
-93.97
-116.61
-132.85
-142.67
-146.29
-143.73
-135.87
-125.28
-114.73
-106.76
-101.13
-94.68
-82.17
-61.33
-32.22
3.29
42.23
82.59
124.24
163.15
194.29
222.78
249.60
268.04
272.22
257.38
221.29
165.14
93.47
14.38
-61.88
-128.75
-177.92
-203.43
-205.81
-192.27
-171.18
-147.93
-123.39
-96.43
-66.71
-34.17
0.33
34.82
67.23
96.45
121.81
143.21
159.83
169.44
170.17
160.95
141.93
114.52
81.13
40.89
-4.76
-52.64
-98.31
-136.41
-162.48
-174.16
-172.71
-160.63
-140.83
-115.46
-86.66
-56.77
-28.10
-3.56
14.28
23.80
25.00
18.75
7.28
-7.50
-24.66
-44.11
-66.71
-91.61
-116.02
-135.87
-148.62
-152.26
-145.63
-129.15
-104.34
-73.36
-38.36
-1.23
36.69
71.78
100.12
117.63
121.16
109.89
85.85
53.15
17.16
-14.14
-37.57
-51.73
-56.53
-53.03
-42.65
-27.04
-7.82
13.12
35.43
58.77
83.45
109.48
136.14
162.34
186.72
207.98
222.07
226.92
221.37
206.05
182.68
153.25
120.04
88.79
60.46
35.81
16.32
2.29
-7.19
-14.30
-22.94
-35.70
-54.83
-81.61
-114.43
-148.44
-177.41
-195.44
-199.45
-191.02
-174.06
-157.23
-149.97
-156.71
-173.90
-192.11
-200.89
-193.87
-172.94
-142.62
-109.37
-78.65
-53.24
-33.45
-18.44
-7.05
0.83
4.71
7.54
10.74
16.21
25.93
40.82
59.76
79.61
96.35
107.00
111.12
109.53
104.08
95.96
84.80
69.23
48.40
23.55
-1.58
-21.77
-33.00
-33.24
-22.86
-3.95
20.59
47.70
74.30
97.47
114.89
125.09
128.25
126.13
121.27
115.87
111.02
106.57
101.61
95.08
86.11
74.30
59.77
43.14
25.56
8.46
-6.71
-18.92
-27.82
-33.83
-37.92
-41.28
-44.97
-49.59
-55.16
-61.01
-66.04
-69.14
-69.69
-67.93
-64.88
-61.91
-60.04
-59.36
-58.82
-56.65
-51.14
-41.37
-27.76
-12.12
2.66
13.38
17.35
13.40
2.49
-12.21
-26.11
-34.56
-34.51
-25.73
-10.93
5.24
17.92
23.87
22.36
15.07
5.05
-4.63
-11.90
-15.94
-17.02
-15.83
-13.11
-9.43
-5.37
-1.68
0.75
1.19
-0.51
-3.54
-6.20
-6.49
-2.85
5.29
17.30
31.67
46.50
60.02
70.79
77.75
80.18
77.82
70.94
60.45
47.71
34.05
20.26
6.54
-7.12
-20.17
-31.01
-37.27
-36.85
-29.13
-15.69
0.05
14.29
24.50
30.57
34.60
39.51
47.25
57.61
68.39
76.63
80.37
79.62
76.28
72.96
71.57
72.36
74.05
74.77
73.31
69.87
65.89
63.15
62.51
63.27
63.26
59.91
51.49
38.06
21.63
5.33
-7.99
-17.02
-22.59
-27.22
-34.09
-45.74
-63.39
-86.89
-115.07
-145.88
-176.40
-202.82
-221.00
-227.81
-222.49
-207.55
-188.25
-170.68
-159.18
-154.43
-153.23
-150.08
-139.89
-120.18
-91.94
-58.82
-25.23
5.36
31.24
51.90
66.91
75.00
74.29
63.47
43.27
17.15
-9.55
-31.63
-45.91
-52.24
-52.89
-50.97
-48.86
-47.48
-46.47
-45.23
-43.53
-41.64
-40.04
-39.01
-38.70
-39.23
-40.63
-42.30
-42.64
-39.02
-28.69
-10.47
14.10
40.84
64.42
80.62
88.22
88.78
85.38
80.82
76.15
70.90
64.19
55.86
46.77
38.41
31.46
25.54
19.68
12.92
4.92
-3.91
-12.89
-21.66
-30.08
-38.92
-49.22
-59.80
-68.90
-74.48
-75.08
-70.70
-65.08
-59.81
-55.43
-51.55
-46.98
-39.67
-28.56
-13.80
3.30
20.83
37.41
52.02
64.80
77.19
91.40
109.28
131.72
158.09
186.33
213.42
235.06
246.96
246.10
231.89
205.77
171.36
133.82
99.00
72.14
55.65
49.00
49.10
51.89
52.52
47.05
33.33
11.67
-15.82
-47.23
-81.09
-116.41
-151.29
-183.98
-212.11
-232.81
-243.29
-238.17
-216.06
-180.40
-143.63
-112.76
-90.71
-76.34
-68.77
-67.12
-70.20
-76.68
-84.05
-88.98
-87.77
-79.51
-66.30
-52.11
-40.29
-32.22
-27.58
-24.84
-22.54
-19.48
-15.95
-12.72
-10.13
-7.43
-3.35
2.62
9.97
17.35
23.70
28.19
30.77
32.03
32.78
33.20
32.41
28.97
22.04
12.73
3.96
-0.23
3.62
16.78
37.58
62.22
86.63
108.23
126.50
142.19
156.05
167.94
176.99
182.60
185.28
186.79
189.29
194.00
200.87
209.16
218.69
230.64
247.00
268.94
295.09
320.95
339.98
346.43
337.86
315.98
285.57
251.92
218.48
185.93
152.75
116.06
73.80
25.66
-26.78
-80.40
-131.06
-174.20
-205.57
-222.54
-226.42
-220.85
-210.44
-198.98
-188.39
-178.93
-170.21
-162.22
-155.97
-155.30
-163.23
-180.31
-204.19
-231.00
-257.57
-282.95
-308.50
-336.84
-372.81
-418.54
-471.96
-527.08
-576.42
-613.77
-636.12
-643.91
-621.25
-560.57
-464.10
-344.59
-219.52
-103.33
-3.42
78.85
145.17
197.67
235.74
259.00
268.38
267.48
260.45
250.82
241.09
232.67
225.79
219.02
211.53
203.66
196.91
193.55
195.11
203.32
219.97
245.66
279.22
314.61
342.46
352.11
335.81
292.71
229.76
162.14
97.10
37.20
-17.09
-65.19
-105.20
-133.03
-144.73
-139.11
-117.73
-88.83
-63.35
-50.39
-52.73
-65.35
-78.89
-85.34
-82.29
-73.42
-66.07
-65.60
-71.31
-78.07
-78.98
-69.22
-48.56
-21.06
7.28
31.43
50.33
66.92
83.76
102.96
124.27
143.97
156.45
157.09
145.18
125.19
104.63
89.92
83.68
83.51
83.28
78.16
65.61
47.46
28.53
13.80
5.54
2.78
1.89
-2.77
-16.35
-42.20
-80.45
-128.38
-179.82
-227.44
-264.00
-280.30
-271.84
-240.70
-195.29
-145.82
-99.60
-59.01
-23.08
9.70
39.23
62.85
78.13
84.62
84.71
82.51
81.99
85.24
92.08
100.66
106.85
108.06
103.47
95.09
86.91
82.98
84.84
90.23
93.71
88.72
72.08
44.18
10.18
-22.23
-46.16
-58.69
-61.63
-60.01
-59.25
-62.43
-69.55
-77.99
-84.39
-85.17
-79.11
-67.41
-53.15
-40.53
-33.76
-36.05
-48.11
-67.63
-89.61
-106.52
-111.60
-101.57
-78.52
-48.96
-20.68
0.40
11.21
10.94
0.36
-19.62
-46.79
-76.68
-102.81
-118.49
-119.31
-105.01
-79.41
-48.27
-18.34
5.90
23.45
36.10
46.55
56.45
65.45
71.91
74.22
71.77
65.89
59.41
55.52
56.57
63.01
73.23
84.12
92.01
93.44
86.34
70.35
46.83
18.57
-10.57
-36.30
-54.57
-62.40
-58.75
-44.70
-23.32
1.11
24.03
41.57
51.07
51.66
44.58
33.19
22.54
17.97
23.35
39.58
64.08
91.66
116.41
133.72
141.54
140.32
131.94
118.47
101.42
81.91
61.33
41.67
25.30
14.10
8.58
7.68
9.24
10.96
11.24
9.70
6.91
3.81
1.12
-0.88
-2.14
-2.53
-1.66
0.96
5.56
11.77
18.66
25.06
29.99
33.07
34.61
35.29
35.70
36.01
35.96
35.11
33.14
29.99
25.94
21.48
16.79
11.53
4.86
-4.19
-16.32
-31.80
-50.80
-73.28
-99.16
-128.17
-159.35
-190.60
-218.99
-241.27
-254.96
-259.44
-255.33
-243.72
-225.31
-200.07
-167.56
-127.92
-82.35
-31.90
19.40
66.24
104.04
130.54
146.45
154.36
156.91
156.12
153.15
148.28
142.04
135.44
129.11
123.07
117.46
110.16
98.74
81.40
57.70
29.27
-0.38
-27.70
-50.09
-66.74
-78.51
-86.18
-89.31
-86.12
-74.58
-53.16
-25.03
2.81
22.58
29.56
25.07
15.62
8.86
8.82
13.25
14.66
5.71
-15.51
-43.58
-67.98
-78.42
-69.65
-43.30
-4.89
35.78
67.66
81.72
73.15
42.82
-3.24
-55.48
-103.26
-137.86
-155.26
-156.79
-147.51
-133.47
-118.99
-105.62
-92.84
-79.62
-66.81
-55.08
-45.25
-37.19
-29.92
-22.22
-13.63
-4.94
2.21
6.55
7.80
6.71
5.06
4.76
7.10
12.36
19.91
28.76
37.89
47.05
56.34
66.32
77.32
88.88
99.74
108.44
112.37
110.85
105.29
98.01
91.08
84.80
77.76
68.17
55.38
40.34
25.02
12.35
1.66
-8.99
-21.24
-35.20
-49.40
-61.56
-69.62
-72.01
-67.55
-55.37
-34.91
-6.44
27.72
62.79
92.36
110.27
112.92
100.39
76.27
46.65
18.13
-3.95
-16.69
-19.72
-14.83
-4.97
6.75
17.84
26.99
33.75
37.94
39.32
37.75
33.49
27.34
20.32
12.97
5.14
-3.86
-14.58
-26.67
-38.78
-49.02
-55.85
-58.72
-58.18
-55.45
-51.94
-49.01
-47.89
-49.64
-54.84
-63.12
-72.90
-81.55
-85.95
-83.41
-72.47
-53.42
-28.39
-0.72
25.97
48.88
66.72
79.90
89.87
98.05
104.87
109.40
110.06
105.78
96.95
85.48
74.06
64.95
58.93
55.17
51.70
46.59
38.83
28.63
16.76
4.00
-9.30
-23.07
-37.14
-51.05
-64.00
-75.13
-82.88
-86.67
-87.10
-85.60
-83.55
-81.51
-79.60
-77.88
-76.68
-76.54
-77.86
-80.34
-82.85
-84.89
-85.19
-82.99
-78.36
-71.90
-64.31
-56.18
-47.80
-39.18
-30.19
-20.61
-10.45
0.03
10.36
19.91
28.18
35.06
40.84
46.09
51.43
57.22
63.41
69.73
75.80
81.18
85.14
86.51
83.94
76.19
62.91
44.75
23.16
-0.04
-23.16
-44.85
-63.93
-78.89
-87.84
-88.12
-77.42
-54.76
-21.02
21.12
67.87
113.97
153.71
182.17
197.39
200.47
194.39
182.19
165.82
146.19
123.98
102.69
83.62
68.06
56.64
48.90
43.27
37.64
30.09
19.40
5.51
-10.90
-27.63
-42.23
-52.98
-59.49
-62.72
-64.42
-66.26
-69.10
-72.97
-76.82
-79.47
-80.15
-78.76
-75.71
-71.70
-67.54
-63.95
-61.57
-60.48
-60.20
-59.86
-58.38
-54.95
-49.46
-42.66
-35.96
-30.91
-28.49
-28.73
-30.79
-33.36
-35.15
-35.35
-33.84
-31.14
-28.23
-26.24
-26.26
-29.15
-35.29
-44.21
-54.44
-63.70
-69.56
-70.43
-66.35
-59.15
-51.79
-47.11
-46.56
-49.64
-54.08
-56.68
-54.42
-45.21
-28.35
-4.52
24.36
55.50
85.61
111.63
131.31
143.69
149.16
149.10
145.29
139.35
132.47
125.23
117.74
109.81
101.09
91.35
80.62
69.34
58.22
48.06
39.42
32.50
27.04
22.54
18.43
14.27
9.86
5.15
0.27
-4.62
-9.31
-13.61
-17.37
-20.55
-23.15
-25.27
-26.99
-28.31
-29.20
-29.52
-29.18
-28.12
-26.36
-24.04
-21.35
-18.53
-15.73
-13.07
-10.48
-7.86
-5.11
-2.24
0.57
3.04
4.86
5.83
5.96
5.41
4.41
3.09
1.44
-0.70
-3.49
-6.98
-11.09
-15.59
-20.21
-24.71
-28.87
-32.52
-35.51
-37.64
-38.81
-38.97
-38.24
-36.79
-34.86
-32.64
-30.30
-27.97
-25.79
-23.91
-22.40
-21.22
-20.30
-19.49
-18.66
-17.76
-16.72
-15.45
-13.78
-11.57
-8.73
-5.38
-1.88
1.31
3.69
4.99
5.17
4.43
3.07
1.33
-0.62
-2.68
-4.74
-6.56
-7.85
-8.33
-7.93
-6.86
-5.48
-4.17
-3.09
-2.13
-1.06
0.36
2.19
4.28
6.45
8.49
10.28
11.70
12.65
12.99
12.59
11.40
9.48
6.96
4.03
0.86
-2.34
-5.34
-7.91
-9.96
-11.55
-12.98
-14.59
-16.63
-19.10
-21.79
-24.40
-26.65
-28.40
-29.63
-30.24
-30.08
-28.99
-26.87
-23.83
-20.15
-16.13
-11.98
-7.68
-3.18
1.54
6.25
10.53
13.91
16.07
16.99
16.86
15.99
14.62
12.83
10.56
7.71
4.36
0.72
-2.78
-5.66
-7.46
-7.85
-6.71
-4.20
-0.67
3.31
7.14
10.27
12.34
13.21
13.05
12.18
10.98
9.70
8.27
6.31
3.28
-1.28
-7.37
-14.40
-21.30
-26.87
-30.26
-31.32
-30.63
-29.15
-27.71
-26.66
-25.71
-24.18
-21.36
-16.90
-10.97
-4.29
2.07
7.08
9.95
10.40
8.52
4.61
-0.98
-8.07
-16.86
-28.11
-43.00
-62.64
-87.13
-114.77
-141.65
-162.21
-170.79
-163.54
-140.01
-103.53
-60.20
-16.97
20.22
47.80
64.83
72.32
72.27
66.94
58.64
49.87
43.52
42.37
48.67
63.16
84.21
107.78
128.28
140.38
140.88
129.87
110.13
86.34
63.53
45.65
34.80
30.94
32.41
36.57
40.37
40.31
33.39
17.90
-5.77
-34.85
-64.75
-90.17
-106.60
-108.49
-93.98
-65.61
-29.59
6.96
38.58
62.19
76.30
80.37
74.72
60.65
41.03
19.77
0.02
-16.36
-29.12
-39.17
-47.67
-55.55
-63.49
-71.83
-80.72
-90.21
-99.99
-109.53
-118.04
-123.46
-124.43
-120.62
-112.62
-101.66
-89.06
-75.70
-61.94
-47.57
-32.17
-15.68
1.52
18.63
34.73
49.08
61.33
71.43
79.45
85.47
89.31
90.74
89.59
85.86
79.61
70.92
59.63
45.56
28.80
10.10
-8.84
-25.69
-38.16
-44.65
-44.95
-40.29
-32.85
-24.97
-18.50
-14.32
-12.37
-11.92
-11.51
-9.66
-5.27
2.10
11.94
22.83
32.78
39.83
42.65
41.55
38.05
34.61
33.84
37.75
47.11
61.27
78.43
96.29
113.60
130.16
146.81
165.08
186.36
211.50
240.52
272.80
301.65
320.24
322.12
303.29
264.02
208.84
144.90
79.77
19.72
-31.09
-70.01
-96.40
-111.48
-117.72
-118.40
-116.73
-115.19
-114.94
-115.88
-116.73
-116.24
-114.14
-111.12
-109.14
-109.66
-113.60
-121.25
-132.13
-144.51
-155.51
-161.53
-159.09
-146.68
-126.01
-101.99
-80.71
-66.77
-60.87
-58.57
-54.40
-43.94
-26.74
-6.55
11.07
22.22
26.55
26.99
27.65
31.10
37.26
43.65
46.62
43.16
32.16
14.55
-6.96
-28.69
-47.20
-60.10
-66.64
-67.44
-64.62
-59.25
-51.96
-43.09
-33.02
-22.41
-12.17
-3.23
3.84
9.07
13.17
17.05
21.49
26.79
32.58
37.89
41.54
42.67
41.21
37.95
33.97
30.22
27.02
24.03
20.42
15.38
8.63
0.64
-7.45
-14.45
-19.58
-22.97
-25.26
-27.40
-30.24
-33.83
-37.57
-40.39
-41.40
-40.23
-37.13
-32.75
-27.87
-23.26
-19.14
-15.47
-11.95
-8.10
-3.46
2.29
9.17
16.68
23.93
30.65
37.36
45.72
58.19
77.13
103.87
138.04
177.36
215.04
243.53
256.24
249.84
225.29
187.23
142.15
96.66
56.30
24.54
2.94
-9.44
-15.72
-20.06
-26.70
-38.25
-55.13
-75.60
-96.85
-115.49
-128.89
-135.82
-136.35
-131.40
-122.08
-109.44
-93.14
-74.61
-56.49
-42.42
-35.98
-39.42
-52.75
-73.54
-97.80
-120.97
-139.19
-149.33
-149.08
-136.97
-112.40
-76.09
-30.40
20.69
72.02
117.87
153.18
174.43
180.20
171.42
151.10
123.69
94.23
67.33
46.14
31.80
23.30
18.09
13.34
7.17
-0.64
-9.05
-16.73
-22.95
-27.76
-31.37
-33.53
-33.35
-29.96
-23.36
-14.85
-6.61
-0.60
2.57
3.93
5.32
8.31
12.87
17.43
19.57
16.98
8.46
-5.60
-23.09
-40.67
-54.26
-60.69
-58.22
-46.91
-28.52
-6.07
16.86
36.56
49.61
53.86
48.13
33.45
13.06
-8.41
-26.74
-39.78
-48.35
-55.87
-64.03
-74.21
-85.84
-96.45
-103.15
-104.40
-100.59
-93.30
-86.80
-81.22
-75.30
-67.22
-55.62
-40.29
-22.04
-2.17
19.19
41.72
65.85
91.36
117.40
142.65
165.31
183.54
195.70
200.50
196.88
184.69
164.14
136.22
103.08
67.61
32.71
0.52
-28.03
-53.00
-74.59
-93.11
-108.80
-121.75
-132.38
-141.51
-150.27
-159.59
-169.76
-180.09
-189.49
-196.87
-200.77
-199.03
-188.65
-166.49
-130.62
-81.88
-24.68
34.27
85.17
119.06
131.76
125.74
108.35
87.73
69.21
54.58
43.64
36.31
33.83
37.85
48.55
63.32
77.41
86.06
86.75
80.28
69.98
60.17
54.26
53.57
57.11
62.33
66.41
67.28
64.05
56.64
45.98
32.71
18.24
4.68
-5.42
-9.85
-7.71
-0.02
10.38
19.68
24.90
25.18
21.62
16.36
11.26
6.99
2.87
-2.54
-11.03
-23.60
-39.93
-58.51
-76.97
-92.37
-102.02
-104.17
-96.02
-78.58
-55.66
-32.20
-12.32
2.03
11.20
16.77
20.60
23.92
26.63
27.88
26.36
20.70
9.87
-5.90
-25.03
-44.49
-60.71
-71.11
-74.49
-71.10
-62.04
-48.99
-32.08
-11.43
12.23
37.18
60.55
79.21
90.73
94.14
90.18
81.25
70.50
60.95
54.54
51.41
50.28
49.34
47.45
44.60
41.90
40.59
41.26
43.40
45.60
46.46
45.38
42.68
38.98
34.61
28.91
20.43
7.43
-11.26
-35.59
-63.54
-91.47
-115.65
-133.28
-143.38
-146.71
-144.93
-139.74
-132.11
-124.18
-115.89
-107.07
-98.05
-89.64
-82.62
-77.34
-73.50
-70.29
-66.29
-60.56
-53.09
-44.58
-36.02
-28.26
-21.85
-17.09
-14.08
-12.80
-12.96
-14.27
-16.29
-18.53
-20.50
-21.87
-22.44
-22.05
-20.55
-17.72
-13.60
-8.46
-2.77
2.97
8.49
13.84
19.43
25.81
33.51
42.67
53.03
64.06
75.10
85.55
94.88
102.64
108.42
111.85
112.64
110.65
106.03
99.38
91.53
83.45
76.00
69.69
64.57
60.27
56.10
51.32
45.63
39.10
32.23
25.67
20.06
15.80
13.05
11.74
11.60
12.46
13.85
14.89
14.46
11.51
5.63
-2.42
-10.79
-17.02
-18.36
-12.91
-0.07
19.44
43.87
71.06
98.96
126.03
148.00
161.39
163.80
154.93
136.84
113.20
87.66
62.69
39.11
16.60
-4.81
-24.41
-40.51
-51.01
-54.50
-51.23
-43.31
-34.38
-28.34
-27.53
-32.21
-40.50
-49.44
-55.89
-59.06
-59.30
-57.71
-55.51
-53.44
-52.03
-51.63
-52.56
-55.27
-60.19
-67.20
-75.56
-83.73
-88.90
-88.64
-81.28
-66.92
-47.85
-28.43
-13.57
-7.00
-9.57
-18.78
-30.07
-38.25
-39.53
-32.89
-20.13
-4.78
9.60
20.98
29.18
35.50
41.68
48.82
56.76
64.30
69.92
72.01
70.04
64.49
56.60
47.81
39.16
31.02
23.18
15.38
7.83
1.29
-3.28
-5.37
-5.34
-4.37
-3.95
-5.05
-7.69
-10.98
-13.55
-14.41
-13.37
-11.05
-8.51
-6.73
-6.15
-6.58
-7.30
-7.41
-6.18
-3.32
1.01
6.27
11.88
17.33
22.30
26.71
30.61
34.05
36.99
39.28
40.65
40.73
39.12
35.53
29.91
22.54
14.02
5.21
-3.00
-9.84
-14.79
-17.67
-18.60
-17.95
-16.16
-13.65
-10.68
-7.27
-3.20
1.97
8.71
17.34
27.76
39.29
50.75
60.50
66.84
68.33
64.18
54.59
40.72
24.49
8.10
-6.51
-18.15
-26.64
-32.72
-37.66
-42.73
-48.80
-56.12
-64.32
-72.63
-80.00
-85.42
-88.10
-87.72
-84.53
-79.31
-73.14
-67.10
-61.95
-57.97
-55.01
-52.61
-50.22
-47.41
-44.02
-40.16
-36.25
-32.80
-30.27
-28.91
-28.64
-29.17
-30.07
-30.98
-31.65
-31.95
-31.69
-30.68
-28.62
-25.23
-20.39
-14.22
-7.14
0.28
7.32
13.39
18.03
21.08
22.55
22.62
21.52
19.54
16.92
13.95
10.97
8.36
6.41
5.28
4.91
4.96
4.95
4.35
2.79
0.20
-3.06
-6.30
-8.63
-9.19
-7.45
-3.39
2.50
9.33
16.02
21.65
25.61
27.67
27.88
26.46
23.71
19.97
15.64
11.20
7.14
3.85
1.47
-0.14
-1.36
-2.64
-4.41
-6.91
-10.21
-14.14
-18.34
-22.28
-25.25
-26.55
-25.65
-22.37
-16.98
-10.21
-3.01
3.61
8.86
12.27
13.68
13.22
11.13
7.75
3.47
-1.20
-5.70
-9.48
-12.14
-13.61
-14.20
-14.43
-14.89
-15.98
-17.82
-20.24
-22.80
-24.94
-25.98
-25.32
-22.56
-17.65
-10.96
-3.27
4.52
11.62
17.52
21.99
25.00
26.54
26.66
25.45
23.15
20.22
17.27
14.93
13.57
13.28
13.78
14.52
15.01
14.90
14.12
12.80
11.26
9.85
9.04
9.33
11.25
15.12
20.88
27.92
35.17
41.36
45.32
46.24
43.75
37.84
28.82
17.25
4.03
-9.75
-22.91
-34.52
-44.15
-51.94
-58.49
-64.50
-70.48
-76.56
-82.50
-87.82
-91.99
-94.46
-94.73
-92.41
-87.35
-79.75
-70.25
-59.80
-49.50
-40.31
-32.87
-27.36
-23.67
-21.44
-20.29
-19.88
-19.92
-20.21
-20.57
-20.89
-21.07
-21.04
-20.75
-20.12
-19.09
-17.53
-15.36
-12.46
-8.78
-4.28
1.07
7.33
14.66
23.25
33.27
44.71
57.19
69.92
81.72
91.24
97.32
99.40
97.64
92.92
86.53
79.77
73.65
68.73
65.12
62.66
60.99
59.58
57.75
54.78
50.07
43.43
35.30
26.71
19.12
13.88
11.87
13.15
16.91
21.76
26.20
29.03
29.66
28.17
25.07
21.06
16.71
12.36
8.15
4.09
0.22
-3.38
-6.60
-9.39
-11.83
-14.11
-16.50
-19.38
-23.12
-27.95
-33.91
-40.57
-47.10
-52.34
-55.18
-54.97
-51.71
-46.07
-39.02
-31.54
-24.40
-18.22
-13.54
-10.88
-10.62
-12.70
-16.36
-20.45
-23.65
-25.13
-24.73
-22.85
-20.17
-17.34
-15.01
-13.90
-14.74
-18.07
-23.82
-31.03
-37.97
-42.69
-43.76
-40.83
-34.73
-26.99
-19.37
-13.32
-9.67
-8.49
-9.18
-10.67
-11.80
-11.58
-9.41
-5.35
-0.06
5.42
10.17
13.64
15.90
17.41
18.70
20.43
22.80
25.55
28.01
29.66
30.43
30.94
32.39
36.31
44.79
59.61
81.41
108.88
138.51
165.19
183.76
190.71
182.70
160.24
127.41
90.35
54.94
24.75
0.58
-18.28
-32.70
-43.10
-49.30
-51.55
-50.94
-49.12
-47.60
-47.08
-47.40
-47.69
-47.17
-45.21
-41.82
-37.64
-33.62
-30.56
-28.74
-27.87
-27.29
-26.40
-24.70
-22.16
-19.11
-16.13
-13.70
-12.02
-10.95
-10.14
-9.23
-7.97
-6.31
-4.40
-2.51
-0.85
0.46
1.50
2.40
3.31
4.36
5.58
6.91
8.27
9.59
10.81
11.95
13.05
14.13
15.21
16.29
17.36
18.38
19.29
20.03
20.51
20.61
20.21
19.20
17.52
15.11
11.98
8.18
3.78
-1.03
-6.08
-11.17
-16.09
-20.67
-24.73
-28.19
-30.94
-32.95
-34.19
-34.74
-34.67
-34.11
-33.19
-32.07
-30.96
-29.94
-29.10
-28.46
-28.06
-27.83
-27.66
-27.40
-26.87
-25.95
-24.43
-22.18
-19.15
-15.35
-10.89
-5.92
-0.68
5.03
10.58
15.65
20.10
23.89
27.01
29.54
31.58
33.20
34.46
35.32
35.83
36.00
35.84
35.36
34.53
33.41
32.02
30.39
28.50
26.40
24.04
21.56
19.02
16.54
14.19
11.98
9.89
7.74
5.42
2.82
-0.07
-3.16
-6.23
-9.05
-11.40
-13.22
-14.51
-15.38
-15.84
-15.78
-14.95
-13.01
-9.66
-4.80
1.39
8.50
15.81
22.68
28.60
33.33
36.80
39.11
40.39
40.75
40.25
38.73
35.82
30.86
23.11
12.39
-0.18
-11.93
-19.17
-18.39
-8.06
10.80
34.67
58.59
77.76
88.88
90.36
81.81
65.31
42.88
17.27
-8.29
-31.03
-49.21
-62.79
-73.44
-83.68
-95.45
-109.18
-123.26
-134.82
-141.51
-141.97
-136.04
-124.50
-108.77
-90.30
-70.31
-49.46
-28.08
-7.64
10.30
24.52
34.32
39.42
40.10
37.24
32.47
27.58
22.39
16.32
9.25
1.55
-6.71
-16.02
-27.22
-40.67
-55.90
-73.36
-92.45
-111.17
-127.29
-140.10
-150.90
-161.98
-175.20
-177.40
-161.44
-129.84
-91.80
-55.59
-25.13
-1.29
16.35
28.82
35.96
39.23
39.83
39.72
41.37
46.30
54.09
63.00
71.36
78.37
83.23
86.62
91.51
101.92
120.52
146.62
176.48
204.81
226.70
238.47
237.82
224.56
200.17
166.85
126.29
80.02
29.71
-23.84
-74.44
-115.05
-142.19
-157.08
-163.12
-163.91
-161.70
-157.25
-150.21
-139.96
-127.14
-113.20
-101.15
-90.74
-81.98
-74.84
-69.16
-64.25
-58.95
-52.73
-45.46
-37.10
-27.34
-16.48
-4.98
4.96
11.42
13.06
9.01
-0.75
-15.02
-31.39
-47.50
-61.27
-71.41
-77.30
-79.11
-77.77
-74.47
-70.06
-64.60
-57.53
-48.02
-35.62
-20.44
-3.44
13.80
29.61
42.66
52.23
58.10
60.30
58.86
53.96
46.06
36.02
25.06
14.43
5.15
-1.97
-6.83
-10.08
-12.88
-16.45
-21.63
-28.65
-37.01
-45.47
-51.13
-51.11
-43.66
-28.86
-8.32
15.55
40.18
63.42
83.87
103.16
122.97
143.44
162.67
177.92
187.21
189.98
187.04
180.21
175.35
177.43
188.24
205.66
225.60
244.24
258.82
267.57
269.70
270.04
273.69
283.68
299.99
321.13
345.75
372.60
399.88
396.99
345.52
248.33
129.58
16.73
-74.48
-141.07
-187.01
-217.96
-238.63
-247.42
-242.64
-225.46
-200.93
-175.59
-154.45
-140.12
-133.11
-132.61
-133.10
-130.33
-122.52
-110.68
-96.64
-81.24
-64.47
-46.39
-28.02
-9.03
10.17
27.98
42.06
50.55
52.96
49.87
42.33
31.27
18.28
6.51
-2.16
-7.49
-10.50
-12.70
-15.59
-20.23
-27.11
-35.65
-44.94
-54.38
-63.62
-72.29
-79.62
-84.38
-85.19
-81.16
-72.35
-60.02
-46.60
-34.84
-26.93
-23.97
-25.86
-31.66
-40.09
-50.01
-60.56
-71.28
-81.67
-91.13
-98.91
-104.37
-107.26
-108.00
-107.64
-107.48
-108.71
-111.85
-116.38
-120.75
-122.71
-119.92
-110.72
-94.53
-72.04
-45.13
-16.35
11.66
36.73
57.47
73.25
83.85
89.37
90.08
86.52
79.56
70.42
60.56
51.37
43.82
37.90
32.94
27.87
21.55
13.08
2.03
-11.24
-25.58
-39.15
-50.61
-58.54
-61.71
-59.53
-52.55
-42.44
-31.34
-21.26
-13.67
-10.87
-13.84
-21.95
-33.26
-45.51
-56.88
-66.04
-72.19
-75.01
-77.21
-80.72
-86.11
-92.67
-99.75
-107.59
-116.93
-128.32
-141.62
-159.03
-180.47
-203.48
-223.99
-238.79
-246.99
-249.93
-250.38
-231.34
-187.84
-128.08
-68.54
-21.37
10.48
30.03
41.84
49.82
56.68
58.66
56.54
52.33
48.67
46.99
46.82
46.61
45.03
41.78
35.45
26.69
18.00
13.20
15.24
24.84
40.52
59.47
78.54
93.50
102.05
103.78
100.07
92.67
82.93
71.76
60.00
48.57
37.76
28.16
20.30
14.52
10.63
7.87
5.22
1.76
-3.11
-9.82
-18.05
-26.65
-33.71
-37.04
-34.88
-26.46
-12.40
5.52
24.84
43.23
58.87
70.73
78.42
81.90
81.38
77.25
70.25
61.45
52.13
43.44
36.30
31.02
27.42
24.87
22.54
19.66
15.68
10.40
4.02
-2.80
-9.02
-13.30
-14.24
-10.76
-2.48
10.01
25.20
41.03
55.41
66.73
74.05
77.15
76.24
71.78
64.37
54.74
43.77
32.51
21.92
12.76
5.38
-0.29
-4.69
-8.44
-12.16
-16.34
-21.20
-26.57
-31.84
-35.89
-37.35
-34.91
-27.85
-16.39
-1.72
14.31
29.82
43.42
54.46
62.90
68.93
72.58
73.63
71.79
66.95
59.51
50.30
40.41
30.88
22.36
15.07
8.88
3.40
-1.78
-7.03
-12.56
-18.28
-23.62
-27.52
-28.55
-25.41
-17.42
-4.96
10.54
27.00
42.28
54.78
63.63
68.61
69.87
67.71
62.57
55.06
46.08
36.70
27.93
20.46
14.51
9.89
6.13
2.75
-0.67
-4.40
-8.57
-13.10
-17.57
-21.19
-22.81
-21.26
-15.71
-6.12
6.69
21.24
35.80
49.02
60.07
68.87
75.60
80.40
83.16
83.69
82.06
78.73
74.66
71.05
69.17
69.85
73.18
78.41
84.09
88.38
89.41
85.63
76.16
61.50
43.07
22.90
3.10
-14.51
-28.70
-38.99
-45.61
-49.18
-49.38
-46.04
-39.45
-30.57
-20.64
-10.66
-1.32
7.14
14.78
23.96
36.55
52.93
71.56
89.91
105.68
117.14
123.30
123.58
121.44
120.14
121.43
125.02
129.98
136.10
143.91
154.18
166.84
185.56
212.47
246.54
283.26
316.83
342.68
358.43
363.96
334.59
260.36
150.52
30.56
-74.16
-151.00
-200.23
-228.83
-245.04
-256.81
-265.28
-271.34
-275.83
-280.25
-284.99
-288.00
-285.92
-271.03
-243.62
-208.03
-172.30
-143.82
-126.24
-117.93
-113.57
-109.80
-104.34
-98.44
-92.54
-86.45
-79.31
-70.78
-61.17
-51.42
-42.94
-37.18
-32.77
-28.29
-22.44
-14.76
-6.35
0.70
4.27
3.21
-1.90
-9.58
-17.40
-22.52
-22.76
-17.65
-8.54
1.75
9.63
11.89
6.12
-8.61
-31.03
-58.15
-86.40
-112.82
-135.76
-154.84
-170.15
-181.65
-188.96
-191.39
-188.76
-182.01
-173.14
-164.40
-157.41
-152.49
-149.01
-145.77
-141.35
-133.87
-120.73
-98.88
-65.73
-20.72
33.59
91.48
145.74
190.30
222.42
243.10
255.50
262.37
264.22
259.32
245.38
221.75
190.37
154.89
118.52
82.18
44.40
2.99
-42.65
-90.06
-133.95
-167.89
-186.54
-187.07
-169.73
-137.33
-94.91
-48.97
-6.70
25.59
44.28
49.59
45.10
35.89
26.23
17.77
9.49
-1.21
-16.27
-35.43
-55.91
-73.98
-86.91
-94.07
-96.74
-96.89
-96.45
-96.25
-96.02
-94.95
-93.07
-91.48
-91.35
-92.23
-91.25
-84.71
-69.92
-47.08
-19.79
5.48
21.98
25.80
17.92
8.19
7.89
23.44
51.60
83.11
109.39
126.51
134.95
137.12
134.94
127.70
113.30
91.33
65.87
43.33
30.99
33.69
51.16
77.89
104.73
121.61
122.02
107.21
84.30
61.83
45.80
37.18
32.81
27.31
16.04
-2.61
-26.54
-51.56
-73.29
-88.46
-96.54
-98.83
-97.67
-95.02
-91.54
-86.77
-80.38
-74.28
-69.04
-65.99
-65.62
-66.95
-67.69
-65.00
-56.67
-41.21
-21.20
0.08
19.20
33.95
43.76
49.44
52.56
54.45
55.78
56.34
56.05
54.68
52.45
49.89
47.60
45.97
45.03
44.42
43.48
42.14
40.46
38.91
38.01
38.04
38.88
40.01
40.72
40.39
39.11
37.42
36.25
36.40
38.07
40.80
43.49
44.75
43.56
39.77
33.98
27.29
20.54
14.01
7.12
-1.11
-11.62
-24.96
-41.22
-60.11
-80.85
-101.10
-117.74
-126.54
-123.69
-107.92
-81.67
-50.72
-22.14
-1.29
9.90
13.14
12.18
10.40
9.31
8.59
7.33
5.19
2.92
1.82
2.65
5.20
8.25
10.40
10.54
8.69
5.71
2.94
1.47
1.72
3.29
5.21
6.44
6.29
4.79
2.49
0.26
-1.21
-1.65
-1.30
-0.73
-0.53
-1.11
-2.45
-4.27
-6.09
-7.60
-8.64
-9.37
-10.01
-10.87
-12.14
-13.80
-15.72
-17.72
-19.68
-21.54
-23.36
-25.22
-27.21
-29.37
-31.71
-34.14
-36.63
-39.10
-41.53
-43.84
-45.93
-47.66
-48.77
-49.01
-48.04
-45.60
-41.52
-35.80
-28.69
-20.39
-11.25
-1.64
8.10
17.64
26.66
34.82
41.72
47.00
50.49
52.14
52.22
51.20
49.67
48.11
46.78
45.68
44.62
43.38
41.86
40.16
38.53
37.15
36.13
35.45
35.10
35.11
35.44
35.77
35.27
32.78
27.20
18.19
6.43
-6.54
-19.00
-29.78
-38.50
-45.36
-50.47
-53.48
-53.56
-50.04
-43.10
-34.06
-24.99
-17.87
-13.91
-13.31
-15.49
-19.62
-25.13
-31.80
-39.58
-48.25
-57.00
-64.70
-70.17
-72.56
-71.66
-67.88
-62.03
-54.86
-47.83
-41.78
-37.26
-34.61
-33.82
-34.36
-34.93
-33.45
-27.53
-15.20
4.56
31.28
63.07
97.13
130.15
158.60
179.00
188.19
184.11
166.63
138.01
102.68
66.15
33.54
8.29
-8.40
-17.24
-20.00
-18.54
-14.48
-9.17
-3.86
0.31
2.70
3.70
4.85
8.52
17.02
31.62
51.87
75.80
100.50
123.11
141.41
153.96
160.04
159.39
152.29
139.63
123.08
104.82
87.03
71.34
58.46
48.22
39.86
32.43
25.04
16.91
7.36
-4.13
-17.82
-33.41
-49.85
-65.30
-77.41
-83.96
-83.57
-76.33
-63.94
-49.14
-34.89
-23.41
-15.68
-11.51
-10.17
-11.06
-14.06
-19.37
-27.02
-36.45
-46.33
-55.05
-61.24
-64.34
-64.70
-63.36
-61.62
-60.56
-60.86
-62.62
-65.50
-68.67
-70.85
-70.52
-66.23
-57.06
-43.10
-25.58
-6.71
10.91
24.98
34.00
37.58
36.15
30.69
22.25
11.77
0.10
-11.87
-23.06
-32.32
-38.79
-42.23
-43.25
-43.17
-43.54
-45.68
-50.17
-56.77
-64.34
-71.20
-75.36
-74.95
-68.76
-56.48
-38.98
-18.10
3.82
24.51
42.26
56.13
65.84
71.50
73.37
71.83
67.39
60.82
53.06
45.14
37.96
32.09
27.68
24.48
21.95
19.29
15.60
10.05
2.11
-8.05
-19.30
-29.63
-36.50
-37.73
-32.31
-20.84
-5.42
11.05
25.84
37.09
44.05
46.89
46.15
42.27
35.59
26.42
15.28
3.05
-9.16
-20.30
-29.65
-37.05
-42.88
-47.80
-52.51
-57.59
-63.28
-69.56
-76.13
-82.29
-87.02
-89.01
-86.97
-80.07
-68.31
-52.73
-35.11
-17.64
-2.31
9.48
16.96
20.03
18.98
14.44
7.27
-1.49
-10.72
-19.30
-26.32
-31.31
-34.24
-35.61
-36.24
-36.98
-38.51
-41.14
-44.79
-48.96
-52.80
-55.14
-54.63
-50.12
-40.90
-27.10
-9.71
9.65
29.14
47.20
62.83
75.62
85.55
92.73
97.23
99.13
98.60
96.14
92.61
89.09
86.49
85.21
84.83
84.20
81.80
76.31
67.20
54.93
40.85
26.99
15.49
8.25
6.46
10.35
19.01
30.61
42.75
53.10
59.90
62.36
60.49
54.85
46.12
34.80
21.31
6.18
-9.60
-24.60
-37.19
-45.97
-50.35
-50.79
-48.75
-46.30
-45.43
-47.54
-52.90
-60.52
-68.29
-73.49
-73.64
-67.29
-54.60
-37.35
-18.34
-0.49
14.01
24.13
29.86
31.78
30.45
26.32
19.79
11.51
2.53
-5.83
-12.32
-16.26
-17.70
-17.48
-16.83
-16.99
-18.89
-22.96
-29.23
-37.34
-46.60
-55.93
-63.75
-68.38
-68.33
-63.01
-53.02
-40.10
-26.62
-14.88
-6.42
-1.81
-0.82
-2.74
-6.78
-12.21
-18.40
-24.76
-30.78
-36.03
-40.32
-43.67
-46.33
-48.66
-51.07
-53.91
-57.50
-62.02
-67.40
-73.14
-78.27
-81.40
-81.09
-76.40
-67.24
-54.64
-40.48
-27.01
-16.24
-9.44
-6.97
-8.33
-12.49
-18.09
-23.68
-27.89
-29.59
-28.21
-23.88
-17.53
-10.67
-5.02
-2.13
-3.03
-8.11
-17.06
-28.97
-42.34
-55.17
-65.16
-70.17
-68.69
-60.39
-46.29
-28.52
-9.79
7.34
20.94
29.91
33.94
33.23
28.39
20.29
10.07
-0.99
-11.58
-20.67
-27.70
-32.72
-36.32
-39.30
-42.43
-46.17
-50.56
-55.36
-60.05
-63.90
-65.88
-64.73
-59.08
-47.96
-31.25
-9.97
13.83
37.67
59.32
77.25
90.79
99.80
104.33
104.43
100.24
92.26
81.48
69.26
57.02
45.77
35.87
27.02
18.60
9.93
0.56
-9.69
-20.74
-32.25
-43.49
-53.29
-60.12
-62.39
-58.97
-49.64
-35.26
-17.64
0.99
18.57
33.66
45.52
54.03
59.33
61.74
61.82
60.22
57.75
55.23
53.38
52.65
53.15
54.59
56.36
57.89
58.57
57.89
55.46
51.17
45.33
38.91
33.36
30.41
31.84
38.60
50.30
65.30
81.19
95.69
107.16
114.91
118.89
120.46
120.75
120.39
119.35
117.39
114.52
111.20
108.05
105.46
105.44
109.09
116.21
125.19
133.90
140.68
144.96
147.06
147.72
151.06
160.53
177.85
202.40
231.75
263.00
293.72
322.31
348.06
375.31
407.89
446.90
489.27
528.80
559.06
576.26
580.43
547.83
466.94
340.11
184.93
26.12
-116.06
-231.48
-318.67
-380.71
-422.47
-445.03
-449.98
-440.66
-422.33
-401.11
-381.81
-366.92
-356.73
-350.93
-345.83
-338.09
-326.15
-310.65
-293.69
-277.23
-262.15
-248.27
-233.42
-215.23
-192.35
-164.95
-134.74
-104.49
-76.78
-53.30
-34.67
-20.70
-10.09
-0.94
8.09
17.50
26.61
34.13
38.83
39.80
36.85
29.99
20.22
8.57
-4.02
-17.53
-32.37
-48.98
-67.58
-85.98
-104.31
-122.28
-139.13
-152.65
-160.13
-158.94
-147.81
-128.01
-103.47
-79.95
-62.18
-54.05
-53.67
-57.78
-62.63
-65.00
-62.89
-55.42
-42.76
-23.82
-0.86
23.70
47.07
66.75
81.19
90.07
94.45
96.01
96.63
97.31
98.35
99.02
98.17
95.05
89.69
83.03
76.13
69.89
64.29
58.07
49.71
37.70
20.91
-1.11
-27.76
-56.85
-84.26
-103.55
-109.93
-101.27
-79.73
-51.49
-24.36
-4.57
5.55
7.81
6.16
4.03
2.82
1.80
-0.63
-5.07
-10.50
-14.79
-16.06
-13.71
-8.79
-3.21
0.58
0.35
-5.30
-16.56
-32.15
-49.53
-65.51
-77.13
-82.73
-81.05
-72.15
-57.04
-37.53
-16.07
4.38
20.92
31.51
35.76
35.44
33.57
33.22
36.21
42.78
51.53
60.26
67.00
70.38
69.51
63.76
53.30
39.40
25.39
15.85
14.85
24.03
41.13
60.47
75.06
79.65
72.41
56.25
36.15
16.72
0.44
-12.55
-23.20
-32.28
-39.51
-43.92
-44.67
-41.99
-37.35
-32.99
-31.51
-34.66
-42.81
-54.53
-67.12
-77.39
-83.07
-83.67
-79.91
-73.26
-64.88
-54.93
-42.79
-27.95
-10.80
6.88
22.44
33.52
38.90
39.00
35.47
30.45
25.62
21.73
18.65
15.81
12.72
9.28
5.80
2.79
0.68
-0.50
-1.07
-1.64
-2.84
-5.09
-8.41
-12.47
-16.63
-20.08
-22.00
-21.73
-18.95
-13.86
-7.21
-0.27
5.47
8.63
8.39
4.59
-2.23
-11.16
-21.23
-31.64
-41.71
-50.96
-58.99
-65.45
-70.09
-72.94
-74.34
-74.97
-75.71
-77.22
-79.95
-83.97
-88.89
-93.87
-97.69
-98.90
-95.95
-88.54
-76.60
-60.92
-43.01
-24.84
-8.22
5.55
15.89
22.69
26.06
26.28
23.63
18.54
11.77
4.39
-2.46
-7.87
-11.52
-13.68
-15.02
-16.48
-18.92
-22.98
-28.92
-36.56
-45.20
-53.57
-59.92
-62.32
-59.32
-50.44
-36.46
-19.31
-1.38
15.09
28.62
38.61
45.13
48.46
48.83
46.44
41.60
34.90
27.28
19.82
13.44
8.61
5.27
2.85
0.55
-2.43
-6.61
-12.23
-19.06
-26.44
-33.19
-37.81
-38.70
-34.70
-25.50
-11.90
4.38
21.14
36.37
48.74
57.70
63.28
65.75
65.36
62.34
57.11
50.34
43.03
36.25
30.81
27.04
24.70
23.15
21.64
19.48
16.25
11.73
6.00
-0.47
-6.73
-11.40
-12.92
-10.05
-2.46
9.13
23.07
37.31
50.01
59.94
66.56
69.80
69.87
67.08
61.90
55.02
47.42
40.13
34.02
29.51
26.45
24.30
22.34
19.93
16.68
12.50
7.45
1.76
-4.16
-9.61
-13.54
-14.73
-12.11
-5.26
5.29
18.11
31.25
42.83
51.60
57.05
59.34
58.93
56.28
51.72
45.66
38.70
31.67
25.51
20.96
18.24
17.03
16.53
15.80
14.09
11.06
6.74
1.56
-3.80
-8.39
-11.10
-10.76
-6.54
1.76
13.48
27.12
40.76
52.58
61.38
66.70
68.73
67.99
65.05
60.44
54.65
48.28
42.04
36.65
32.55
29.79
27.96
26.31
24.06
20.63
15.80
9.73
3.00
-3.48
-8.56
-10.99
-9.72
-4.23
5.10
17.05
29.77
41.30
50.13
55.44
57.17
55.70
51.64
45.62
38.24
30.16
22.15
14.97
9.25
5.24
2.81
1.46
0.52
-0.71
-2.78
-6.02
-10.46
-15.76
-21.14
-25.45
-27.35
-25.71
-20.04
-10.79
0.71
12.56
22.93
30.52
34.79
35.86
34.17
30.25
24.55
17.53
9.84
2.27
-4.31
-9.23
-12.26
-13.71
-14.30
-14.88
-16.14
-18.42
-21.76
-25.92
-30.48
-34.74
-37.77
-38.47
-35.87
-29.53
-19.87
-8.18
3.75
14.11
21.68
26.01
27.29
26.12
23.05
18.51
12.80
6.29
-0.54
-7.05
-12.60
-16.75
-19.43
-20.95
-21.93
-23.08
-24.99
-28.01
-32.09
-36.75
-41.16
-44.19
-44.64
-41.54
-34.53
-24.02
-11.24
2.13
14.37
24.17
30.85
34.33
34.93
33.11
29.37
24.22
18.25
12.22
6.91
2.94
0.67
-0.01
0.46
1.36
1.98
1.71
0.28
-2.17
-5.00
-7.14
-7.25
-4.09
3.10
14.24
28.35
43.83
58.96
72.48
83.87
93.29
101.17
107.78
112.98
116.28
117.33
116.30
114.17
112.57
113.42
118.33
128.10
142.40
159.57
176.90
191.12
199.37
200.03
193.24
180.76
165.11
148.50
131.90
114.67
94.89
70.12
38.57
-0.00
-43.74
-88.80
-130.15
-162.87
-183.35
-190.18
-184.03
-166.92
-141.23
-108.99
-72.08
-32.68
6.14
40.69
67.55
84.64
91.95
91.24
85.05
75.49
63.66
49.77
34.07
17.50
2.02
-9.97
-16.27
-15.53
-7.50
7.00
26.21
47.54
67.68
83.05
90.45
87.85
75.06
53.79
27.10
-1.52
-29.07
-53.62
-74.29
-91.04
-104.37
-115.08
-124.21
-132.85
-142.09
-152.59
-164.38
-176.66
-187.98
-196.72
-201.74
-202.81
-200.86
-197.65
-195.10
-194.66
-196.66
-200.19
-203.19
-203.21
-198.18
-187.00
-169.69
-147.16
-120.73
-91.86
-62.01
-32.72
-5.65
17.56
35.58
47.64
53.74
54.57
51.24
45.01
37.07
28.47
20.12
12.94
7.79
5.32
5.66
8.33
12.25
15.99
18.36
18.87
17.94
16.56
15.76
15.97
16.78
17.27
16.61
14.72
12.33
10.64
10.59
12.25
14.78
16.82
17.24
15.75
13.06
10.67
10.31
13.58
21.61
34.84
52.76
73.71
94.93
113.06
124.95
128.78
124.64
114.29
100.29
84.90
69.39
54.13
39.07
24.33
10.56
-1.34
-10.70
-17.57
-22.76
-27.51
-32.95
-39.76
-48.20
-58.08
-68.90
-80.14
-91.40
-102.52
-113.54
-124.64
-136.17
-149.14
-164.27
-181.50
-199.59
-216.22
-228.59
-234.23
-231.46
-220.10
-202.29
-180.53
-156.94
-132.84
-109.11
-86.81
-67.30
-51.42
-39.98
-34.89
-36.98
-45.70
-59.14
-74.56
-89.59
-102.77
-113.10
-121.20
-130.50
-143.67
-161.51
-182.66
-204.47
-224.77
-242.59
-257.02
-250.75
-211.65
-136.27
-33.95
77.07
178.67
259.26
310.95
340.64
356.23
361.76
359.68
351.28
337.59
320.70
301.82
281.70
261.71
242.03
220.76
196.19
167.49
135.48
102.58
71.84
46.00
27.30
15.58
8.21
2.21
-4.73
-13.32
-22.78
-31.58
-38.16
-41.13
-40.40
-37.25
-33.23
-29.78
-27.70
-27.12
-27.85
-29.55
-31.65
-33.87
-35.99
-37.52
-37.70
-35.65
-30.66
-22.55
-11.72
0.94
14.18
26.83
38.02
47.18
53.94
58.00
59.08
57.04
51.97
44.35
34.92
24.58
14.09
3.91
-5.81
-15.18
-24.37
-33.53
-42.83
-52.35
-62.15
-71.92
-80.91
-87.86
-91.31
-90.16
-84.18
-74.29
-62.25
-50.19
-39.86
-32.21
-27.31
-24.62
-23.43
-23.17
-23.56
-24.45
-25.71
-27.09
-28.26
-28.86
-28.76
-28.07
-27.14
-26.43
-26.38
-27.30
-29.34
-32.53
-36.70
-41.38
-45.67
-48.30
-47.92
-43.50
-34.89
-22.93
-9.30
3.92
14.88
22.37
25.91
25.65
22.15
16.09
8.35
-0.10
-8.18
-14.88
-19.42
-21.55
-21.60
-20.40
-19.08
-18.69
-20.00
-23.30
-28.38
-34.63
-41.09
-46.63
-49.98
-50.08
-46.21
-38.31
-27.12
-14.05
-0.84
10.82
19.71
25.26
27.39
26.37
22.58
16.44
8.43
-0.80
-10.46
-19.73
-27.90
-34.56
-39.61
-43.28
-45.92
-47.94
-49.78
-51.87
-54.52
-57.79
-61.19
-63.71
-63.96
-60.64
-53.05
-41.50
-27.21
-12.05
2.12
13.88
22.47
27.74
29.93
29.47
26.89
22.83
18.04
13.33
9.35
6.47
4.62
3.33
1.96
-0.09
-3.15
-7.23
-12.07
-17.20
-22.02
-25.76
-27.49
-26.24
-21.32
-12.67
-1.10
11.77
24.02
33.98
40.76
44.38
45.62
45.45
44.69
43.77
42.79
41.69
40.31
38.57
36.34
33.50
29.99
25.87
21.37
16.80
12.45
8.46
4.79
1.39
-1.63
-3.75
-4.16
-1.96
3.43
11.98
22.96
35.16
47.26
58.19
67.28
74.22
78.84
81.00
80.59
77.65
72.56
66.09
59.20
52.86
47.67
43.86
41.22
39.27
37.38
34.84
30.95
25.16
17.34
8.03
-1.41
-9.01
-12.67
-10.79
-2.91
10.12
26.30
43.08
57.91
68.91
75.12
76.56
74.10
69.12
63.18
57.66
53.57
51.35
50.86
51.45
52.20
52.15
50.58
47.32
42.71
37.43
32.23
27.60
23.76
20.87
19.30
19.88
23.76
31.95
44.76
61.41
80.11
98.50
114.39
126.32
133.73
136.96
136.86
134.67
131.92
130.27
131.10
134.90
140.53
145.12
144.80
136.11
117.55
90.37
58.15
25.38
-4.14
-28.35
-46.98
-60.66
-70.08
-75.51
-77.04
-75.05
-70.60
-65.21
-60.26
-56.35
-53.07
-49.21
-43.46
-35.07
-24.19
-11.80
0.79
12.40
22.41
30.70
37.24
41.72
43.30
40.92
33.79
22.00
6.64
-10.34
-26.70
-40.49
-50.46
-56.32
-58.77
-59.51
-60.98
-65.83
-76.11
-92.38
-113.26
-135.58
-155.32
-168.97
-174.52
-171.98
-163.05
-150.29
-136.28
-123.05
-111.82
-103.06
-96.64
-91.95
-88.03
-83.76
-78.21
-70.85
-61.80
-51.63
-41.12
-30.72
-20.37
-9.45
2.85
17.04
33.05
50.01
66.55
81.16
92.58
100.12
103.68
103.65
100.75
95.78
89.57
82.81
76.04
69.59
63.56
57.81
52.02
45.77
38.67
30.43
20.99
10.47
-0.75
-12.12
-22.79
-31.69
-37.62
-39.56
-36.98
-30.13
-20.14
-8.65
2.60
12.24
19.59
24.53
27.23
27.86
26.47
23.09
17.96
11.64
4.90
-1.46
-6.99
-11.71
-16.03
-20.53
-25.66
-31.60
-38.24
-45.31
-52.49
-59.39
-65.50
-70.06
-72.12
-70.76
-65.27
-55.48
-41.77
-25.03
-6.47
12.49
30.36
45.62
56.85
62.90
63.19
57.88
47.99
35.23
21.60
8.93
-1.52
-9.29
-14.64
-18.30
-21.08
-23.62
-26.27
-29.15
-32.25
-35.42
-38.24
-39.94
-39.50
-35.91
-28.63
-17.90
-4.74
9.27
22.47
33.58
41.87
47.10
49.39
49.01
46.36
41.89
36.16
29.77
23.29
17.25
12.14
8.44
6.49
6.35
7.60
9.22
9.80
8.06
3.37
-3.77
-11.74
-18.28
-21.28
-19.59
-13.40
-4.22
5.75
14.31
19.89
21.83
20.29
15.98
9.77
2.60
-4.69
-11.30
-16.50
-19.76
-20.87
-20.13
-18.32
-16.50
-15.76
-16.92
-20.35
-25.96
-33.35
-41.91
-50.74
-58.67
-64.19
-65.72
-62.10
-53.06
-39.55
-23.59
-7.62
6.22
16.69
23.63
27.69
29.83
30.86
31.23
31.03
30.16
28.49
25.87
22.28
17.78
12.51
6.72
0.71
-5.22
-10.79
-15.80
-20.12
-23.69
-26.36
-27.91
-27.90
-25.79
-21.19
-14.05
-4.95
4.97
14.28
21.68
26.35
28.17
27.60
25.40
22.33
18.98
15.70
12.66
9.96
7.69
6.03
5.12
5.04
5.66
6.55
7.10
6.59
4.47
0.52
-4.99
-11.31
-17.31
-21.62
-22.98
-20.50
-14.02
-4.29
7.18
18.42
27.58
33.47
35.78
35.07
32.34
28.67
24.76
20.89
16.98
12.81
8.29
3.50
-1.29
-5.77
-9.68
-12.93
-15.58
-17.79
-19.74
-21.49
-22.94
-23.73
-23.27
-20.92
-16.25
-9.26
-0.56
8.80
17.59
24.79
29.90
32.90
34.06
33.69
31.93
28.80
24.33
18.71
12.40
6.01
0.20
-4.55
-7.97
-10.03
-10.94
-11.12
-11.16
-11.76
-13.54
-16.80
-21.25
-25.95
-29.41
-30.05
-26.72
-19.22
-8.48
3.64
14.95
23.59
28.54
29.81
28.20
24.81
20.64
16.24
11.80
7.28
2.67
-1.85
-6.00
-9.48
-12.16
-14.10
-15.52
-16.74
-18.14
-20.04
-22.75
-26.39
-30.70
-34.90
-37.77
-37.90
-34.31
-26.86
-16.48
-4.93
5.80
14.12
19.29
21.42
21.12
19.12
15.99
12.05
7.57
2.92
-1.43
-4.91
-7.17
-8.16
-8.20
-7.83
-7.69
-8.22
-9.67
-12.01
-15.03
-18.28
-21.08
-22.54
-21.73
-17.96
-11.10
-1.72
8.98
19.54
28.68
35.64
40.24
42.64
43.11
41.81
38.81
34.25
28.47
22.00
15.48
9.54
4.61
0.84
-1.88
-3.96
-5.84
-8.00
-10.76
-14.18
-17.90
-21.14
-22.87
-22.08
-18.10
-10.72
-0.52
11.32
23.29
34.07
42.72
48.93
52.75
54.48
54.77
54.13
52.83
50.98
48.78
46.53
44.60
43.13
42.10
41.91
42.54
43.47
43.88
43.13
41.10
38.44
36.23
36.06
40.67
51.91
69.85
92.64
117.10
139.82
158.26
171.16
179.14
185.40
192.95
203.06
214.81
225.89
233.59
236.21
233.22
215.26
178.62
126.16
66.66
10.67
-34.37
-66.36
-84.84
-94.88
-101.14
-105.97
-111.15
-118.91
-131.44
-148.72
-168.37
-186.06
-196.94
-197.11
-184.55
-160.46
-129.92
-100.08
-74.62
-57.49
-51.21
-55.61
-67.59
-86.45
-108.04
-128.23
-144.10
-154.80
-157.23
-152.00
-141.74
-129.50
-117.47
-105.93
-94.54
-82.71
-70.00
-56.75
-43.94
-32.07
-21.09
-10.67
-0.21
10.04
19.15
25.84
28.45
25.33
15.79
0.10
-20.65
-44.23
-68.01
-89.17
-105.11
-114.43
-116.89
-113.15
-105.06
-95.66
-88.51
-86.98
-92.89
-105.68
-123.04
-140.99
-155.00
-161.76
-160.39
-152.51
-141.21
-129.61
-119.69
-112.64
-107.88
-103.29
-96.19
-84.31
-66.39
-42.36
-13.34
22.53
62.14
99.21
127.27
143.21
148.57
147.62
144.49
141.15
137.28
129.90
116.59
97.61
75.72
55.11
39.89
32.85
34.90
46.83
66.10
88.26
109.31
126.61
139.15
146.93
150.33
150.08
147.31
144.74
142.42
139.97
136.38
130.13
119.84
105.01
86.00
63.63
38.24
9.79
-20.04
-48.58
-72.69
-89.56
-97.67
-97.15
-89.69
-77.99
-64.83
-52.14
-41.01
-31.85
-24.84
-20.27
-18.38
-19.04
-21.32
-23.49
-23.80
-21.14
-15.68
-9.00
-3.40
-0.59
-0.71
-2.23
-2.87
-1.90
0.02
1.40
0.79
-2.29
-7.16
-12.49
-17.16
-20.93
-25.80
-33.76
-45.46
-60.14
-76.10
-91.63
-105.68
-117.83
-121.09
-111.25
-87.36
-53.06
-15.86
15.58
33.87
34.93
19.79
-4.87
-30.69
-51.89
-64.62
-69.27
-69.75
-70.81
-74.94
-80.83
-79.86
-67.86
-44.38
-13.13
19.33
47.18
67.90
82.62
94.35
105.73
116.03
123.22
125.48
122.31
115.09
106.71
100.19
97.49
99.03
102.58
105.38
105.33
101.54
94.61
86.25
78.61
72.48
67.92
63.33
57.23
48.95
38.53
27.18
16.75
8.79
3.87
1.67
0.35
-1.64
-5.04
-10.23
-16.43
-22.21
-26.36
-28.65
-29.60
-31.11
-34.74
-41.45
-52.52
-67.83
-86.02
-105.44
-125.54
-140.85
-149.81
-152.84
-151.94
-151.09
-152.47
-155.40
-156.79
-152.86
-140.79
-120.98
-96.21
-62.99
-25.41
8.71
33.00
46.16
50.80
50.56
47.27
41.88
34.99
26.41
17.19
9.26
4.24
2.32
2.48
2.71
1.51
-1.65
-7.18
-14.28
-21.20
-26.25
-28.68
-28.73
-27.20
-24.61
-21.53
-17.32
-10.84
-0.72
13.71
31.98
52.55
73.42
92.82
109.49
122.13
129.45
130.30
123.96
110.62
91.54
68.81
44.52
20.00
-4.50
-29.02
-52.93
-74.55
-91.73
-103.16
-109.12
-111.34
-110.79
-108.01
-102.41
-92.75
-78.02
-58.35
-35.46
-11.84
10.62
31.23
50.47
69.30
88.06
106.14
122.06
133.02
135.59
127.05
106.38
75.37
38.22
0.17
-33.72
-59.24
-74.48
-79.62
-76.07
-66.35
-53.40
-40.28
-31.28
-28.17
-27.03
-20.31
-1.91
31.14
73.64
117.67
156.68
188.19
208.46
218.39
219.85
213.59
199.20
175.94
145.03
109.90
75.29
45.74
24.59
11.73
4.09
-2.54
-11.82
-25.21
-42.11
-60.63
-78.50
-93.33
-104.18
-111.52
-116.44
-119.80
-121.31
-119.92
-114.76
-106.14
-95.63
-86.17
-80.83
-81.31
-87.24
-96.26
-105.31
-111.91
-114.90
-114.27
-110.80
-105.41
-98.82
-91.48
-83.74
-76.03
-68.96
-63.28
-59.75
-59.13
-62.09
-68.92
-79.22
-91.57
-103.78
-113.39
-118.38
-117.67
-111.37
-100.59
-87.10
-72.90
-59.80
-49.29
-42.34
-39.29
-39.71
-42.55
-46.53
-50.48
-53.56
-54.85
-53.43
-48.41
-39.24
-26.12
-10.21
6.46
21.47
32.72
39.98
44.32
47.79
52.71
61.29
75.17
95.15
120.71
149.83
180.80
211.12
237.79
257.97
269.97
274.14
272.70
268.68
264.53
263.78
267.91
276.05
285.35
292.47
295.04
292.37
284.83
273.28
262.03
255.10
255.10
262.37
275.39
292.00
310.28
328.49
325.34
287.60
214.13
118.23
19.70
-65.94
-131.79
-177.70
-207.31
-225.63
-234.40
-235.22
-230.15
-222.13
-213.51
-206.39
-200.81
-195.89
-191.09
-184.41
-175.36
-165.09
-155.98
-150.92
-151.07
-155.02
-159.96
-162.97
-158.76
-144.09
-118.86
-84.83
-48.96
-19.79
-3.25
-0.77
-10.22
-27.40
-48.54
-70.89
-92.15
-110.60
-124.08
-130.52
-129.15
-121.13
-109.06
-96.02
-86.44
-80.88
-79.07
-79.45
-79.45
-76.37
-68.40
-55.51
-38.87
-20.82
-3.23
12.53
26.53
39.69
52.35
64.47
75.39
85.02
93.42
101.27
108.52
114.20
116.23
112.21
102.68
86.09
65.96
46.97
33.25
26.30
24.83
25.92
26.35
24.19
18.82
10.61
-0.15
-12.63
-25.40
-36.16
-42.10
-41.40
-33.74
-21.28
-7.00
4.21
9.18
7.54
1.28
-6.84
-15.22
-23.89
-34.01
-46.55
-61.66
-77.73
-91.70
-100.01
-97.94
-85.08
-63.49
-36.89
-9.47
14.91
33.40
44.23
47.07
43.71
36.67
30.19
28.92
35.91
50.91
70.08
86.50
93.93
89.47
74.07
51.97
28.34
7.05
-9.95
-22.24
-29.70
-32.04
-29.38
-23.35
-16.98
-14.01
-17.77
-28.67
-44.32
-60.16
-71.19
-74.18
-69.00
-58.17
-45.34
-33.39
-23.08
-13.27
-1.99
11.81
27.24
41.26
49.98
50.39
41.67
25.74
6.38
-12.16
-26.74
-35.94
-40.11
-40.60
-38.83
-35.67
-31.46
-26.40
-20.32
-13.93
-8.16
-3.90
-1.84
-2.46
-6.00
-12.35
-20.81
-29.98
-37.92
-42.46
-41.91
-35.65
-24.42
-10.10
4.90
18.43
29.03
36.08
39.67
40.36
38.88
35.95
32.28
28.57
25.52
23.77
23.71
25.39
28.42
31.98
35.14
37.05
37.22
35.53
31.96
26.52
19.36
11.08
2.94
-3.29
-5.97
-4.45
0.35
6.20
10.37
10.91
7.23
0.22
-8.47
-17.26
-24.98
-30.95
-34.44
-34.44
-29.71
-19.40
-3.48
16.84
39.32
61.29
80.08
93.76
101.47
103.47
100.60
94.22
85.76
76.57
67.85
60.11
53.24
46.40
38.42
27.49
12.12
-8.67
-34.95
-65.56
-99.10
-133.86
-168.18
-199.69
-226.12
-244.81
-253.77
-252.35
-241.31
-223.81
-203.90
-185.43
-166.30
-144.33
-117.57
-86.49
-55.30
-25.46
2.43
29.41
55.51
81.93
109.18
136.99
163.10
184.31
198.32
203.42
199.58
187.46
170.26
151.95
136.95
128.38
123.09
118.93
113.49
112.77
117.03
125.36
132.15
134.20
129.70
119.05
104.90
90.34
78.43
70.40
67.37
69.47
75.47
78.47
71.94
51.93
18.29
-24.66
-70.97
-113.85
-147.96
-170.83
-183.25
-187.58
-186.50
-182.65
-177.58
-172.53
-169.74
-168.38
-167.51
-166.49
-164.41
-160.39
-154.24
-145.59
-134.49
-121.06
-105.32
-87.86
-69.67
-51.49
-33.69
-16.57
0.08
16.61
33.48
51.32
70.33
90.58
112.25
135.81
157.50
173.92
182.40
182.04
173.93
159.71
140.97
119.18
99.73
83.49
71.74
65.47
64.53
67.48
71.97
76.05
77.05
74.77
70.00
65.20
62.80
63.99
68.27
73.53
76.68
74.58
65.19
47.42
22.45
-7.16
-38.42
-68.65
-95.75
-118.26
-135.06
-145.14
-148.36
-145.20
-137.41
-128.21
-121.23
-119.16
-122.61
-129.75
-136.91
-140.37
-137.61
-128.15
-114.11
-98.72
-85.12
-75.51
-70.81
-70.81
-74.55
-80.43
-86.09
-89.81
-89.82
-84.96
-75.05
-60.78
-43.25
-23.33
-0.96
25.39
56.64
91.97
128.01
160.10
184.58
200.26
207.95
209.15
209.91
210.02
208.06
203.13
195.28
185.23
173.60
160.36
141.55
115.33
80.52
38.47
-7.74
-54.75
-100.37
-144.36
-187.87
-231.96
-275.57
-316.46
-350.73
-374.60
-385.91
-384.95
-374.11
-356.62
-335.16
-310.59
-282.94
-251.46
-215.60
-175.66
-132.77
-88.61
-45.08
-4.02
33.13
64.76
89.53
106.49
115.38
116.93
112.83
105.46
97.34
90.58
86.31
84.64
84.78
85.46
85.33
83.36
78.98
72.29
64.12
55.98
49.93
48.13
52.20
62.75
78.99
98.87
119.76
139.11
155.07
166.68
173.65
176.03
174.00
167.85
158.20
146.17
133.31
121.26
111.29
103.95
99.00
95.55
92.48
88.76
83.74
77.27
69.80
62.43
56.76
54.66
57.75
66.83
81.52
100.30
120.91
141.11
159.28
174.54
186.50
194.75
198.50
196.62
188.29
173.66
154.28
132.85
112.40
95.26
82.15
72.07
62.82
52.02
38.11
20.80
0.97
-19.88
-40.00
-57.67
-71.31
-79.90
-83.53
-83.87
-84.04
-87.41
-95.84
-108.18
-119.98
-125.04
-118.15
-97.80
-67.32
-34.02
-6.60
7.89
6.26
-10.20
-36.73
-67.16
-95.90
-119.34
-136.30
-147.32
-153.82
-157.41
-159.86
-163.30
-170.33
-183.37
-203.38
-228.64
-254.34
-273.75
-280.82
-272.53
-250.44
-219.86
-187.58
-159.19
-137.30
-121.42
-109.17
-98.14
-87.03
-75.89
-65.40
-56.06
-47.61
-39.06
-29.18
-17.18
-3.04
12.48
28.14
42.68
55.15
64.98
71.85
75.52
75.87
73.13
68.19
62.82
59.51
60.75
68.37
82.75
102.77
126.12
150.08
172.22
190.89
205.28
215.23
220.90
222.55
220.48
215.16
207.17
197.09
185.33
171.98
156.94
140.05
121.40
101.33
80.44
59.32
38.43
18.00
-1.72
-20.14
-36.29
-49.09
-57.91
-62.88
-65.03
-65.76
-66.20
-66.56
-66.00
-63.43
-58.55
-52.56
-47.69
-46.11
-48.72
-54.62
-61.57
-66.88
-69.10
-69.00
-69.35
-73.48
-83.56
-99.75
-120.38
-142.76
-163.85
-181.48
-195.19
-205.81
-214.43
-221.25
-225.50
-225.80
-220.47
-206.89
-181.81
-142.35
-87.46
-19.15
56.82
131.35
193.98
232.62
240.83
222.90
191.99
161.98
140.38
126.94
117.42
107.00
93.72
78.64
63.53
48.86
33.45
15.84
-2.96
-20.07
-31.98
-36.04
-31.35
-19.25
-2.86
14.08
28.80
40.39
49.45
57.16
64.50
71.92
79.17
85.29
89.01
89.35
85.98
79.01
68.58
54.74
37.79
18.46
-2.06
-22.46
-41.56
-58.62
-73.43
-86.20
-97.17
-106.52
-114.38
-120.97
-126.61
-131.40
-134.89
-135.95
-132.95
-124.24
-108.80
-86.73
-59.49
-29.57
0.12
27.06
49.66
67.39
80.40
89.05
93.64
94.53
92.40
88.44
84.11
80.65
78.49
77.20
75.82
73.53
70.00
65.34
59.70
52.88
44.20
32.74
17.80
-0.69
-21.91
-44.21
-65.44
-83.23
-95.58
-101.35
-100.66
-95.13
-87.54
-80.87
-77.21
-76.86
-77.96
-77.30
-71.46
-58.21
-37.42
-11.14
17.07
43.31
64.31
78.12
84.19
82.98
75.49
62.84
46.05
26.08
3.94
-19.28
-42.44
-64.39
-84.07
-100.61
-113.39
-121.84
-125.41
-123.59
-116.48
-105.01
-91.11
-77.30
-65.97
-58.57
-54.89
-53.12
-50.48
-44.49
-33.79
-18.52
-0.07
19.57
38.32
54.64
67.26
76.27
82.11
85.31
86.43
86.17
85.25
84.03
82.48
80.40
77.74
74.58
71.23
68.10
65.64
64.10
63.19
60.59
54.53
44.95
33.66
23.33
15.55
10.11
6.28
2.01
-3.62
-9.87
-14.68
-15.67
-11.27
-1.74
11.79
27.28
41.96
53.47
58.68
56.76
50.36
44.74
44.26
49.86
58.75
66.24
68.78
65.52
58.60
51.53
46.95
45.07
44.15
42.32
37.65
30.23
21.71
14.44
10.20
9.29
10.32
11.50
11.70
10.94
10.43
11.59
15.20
20.67
27.67
34.26
38.65
40.06
38.76
35.76
31.92
27.58
22.51
16.36
8.85
0.48
-7.55
-14.04
-18.00
-19.06
-17.50
-14.12
-9.99
-6.21
-3.56
-2.27
-2.49
-3.98
-6.26
-8.72
-10.75
-11.95
-12.33
-12.10
-11.61
-11.56
-12.33
-13.82
-15.74
-18.04
-21.09
-25.62
-32.17
-40.43
-49.86
-58.29
-62.15
-58.02
-44.52
-23.43
0.63
21.71
34.68
34.88
21.86
-0.61
-26.62
-51.19
-71.99
-89.11
-103.74
-116.81
-131.32
-147.76
-163.88
-176.35
-183.38
-185.72
-185.95
-187.28
-192.94
-209.61
-240.20
-281.82
-326.09
-362.69
-383.28
-384.04
-366.67
-311.48
-218.40
-106.20
-1.51
79.68
136.67
176.43
205.63
227.84
244.29
249.85
244.69
231.81
215.73
199.84
185.76
173.89
164.69
159.02
154.23
150.94
149.98
152.84
160.49
172.85
188.13
203.88
216.22
217.83
203.89
175.80
139.10
99.91
62.41
29.39
2.33
-16.80
-28.69
-34.47
-34.27
-27.43
-13.64
5.37
23.53
33.27
30.41
11.76
-22.81
-69.05
-120.50
-171.35
-218.65
-264.56
-311.53
-356.40
-395.05
-422.77
-433.95
-424.83
-395.76
-337.58
-254.07
-177.06
-118.80
-74.08
-36.86
-0.24
40.04
83.53
125.68
158.39
176.61
183.27
182.32
176.19
166.48
153.43
137.21
119.32
101.52
87.39
82.33
87.44
99.30
113.74
127.59
139.59
149.87
158.19
165.04
171.76
178.42
184.42
190.17
196.22
202.41
207.24
208.45
204.88
195.71
179.78
155.87
123.61
83.15
35.16
-18.89
-76.20
-127.99
-165.76
-185.38
-188.56
-180.53
-171.84
-168.90
-175.90
-194.28
-221.39
-254.01
-283.11
-297.58
-286.06
-235.97
-147.12
-34.63
75.73
170.99
245.33
293.72
313.56
306.13
275.70
228.21
170.61
106.36
42.96
-14.61
-64.42
-106.63
-140.77
-168.88
-191.50
-207.82
-216.34
-214.87
-204.33
-184.51
-158.76
-131.44
-104.64
-82.00
-65.18
-52.23
-38.14
-19.89
1.58
21.30
33.87
36.53
30.21
20.97
17.47
27.43
53.16
92.33
136.79
177.09
205.37
215.94
207.67
183.39
148.75
110.23
74.09
45.34
24.85
16.23
19.58
32.15
48.85
64.00
72.95
73.73
67.35
57.51
51.03
49.31
51.55
54.72
54.99
49.55
37.86
21.60
3.98
-11.16
-21.59
-25.73
-23.42
-15.89
-5.82
2.81
5.21
-2.61
-21.65
-49.22
-78.15
-99.78
-106.98
-96.78
-71.26
-36.56
-0.31
30.78
52.32
63.10
63.25
53.72
36.32
14.16
-8.63
-27.14
-37.10
-36.09
-24.14
-5.24
13.52
24.23
20.75
0.32
-34.73
-78.59
-123.76
-157.18
-168.21
-153.66
-120.12
-79.49
-43.29
-17.75
-5.37
-5.31
-13.43
-23.84
-30.34
-29.11
-21.04
-15.29
-18.12
-33.14
-58.52
-86.73
-108.51
-116.94
-110.08
-85.46
-49.98
-11.35
25.16
57.91
87.46
113.77
134.91
148.10
151.75
144.12
126.54
101.93
73.11
41.61
6.84
-32.83
-75.54
-116.48
-149.43
-167.12
-165.27
-145.20
-113.38
-78.78
-48.99
-27.59
-14.43
-8.10
-7.65
-12.26
-21.64
-34.32
-46.59
-53.34
-50.23
-36.57
-16.12
4.83
20.10
26.30
24.20
17.92
12.66
12.30
17.76
27.40
38.66
48.53
55.34
58.70
58.92
56.52
51.97
45.74
38.41
30.68
23.05
15.62
8.00
-0.43
-10.22
-21.51
-34.08
-47.47
-61.05
-73.96
-84.95
-92.49
-95.02
-91.45
-81.68
-66.73
-48.63
-29.82
-12.59
1.50
11.82
18.51
22.22
23.58
23.05
20.71
16.52
10.56
3.36
-4.28
-11.51
-17.78
-22.98
-27.35
-31.27
-34.97
-38.44
-41.18
-42.35
-40.97
-36.16
-27.24
-14.03
3.09
23.05
44.23
65.00
83.82
99.29
110.33
116.22
116.83
112.70
105.00
95.14
85.21
76.85
70.72
66.21
61.97
56.80
50.32
43.14
36.03
30.94
29.00
29.64
30.67
29.47
24.75
17.39
10.01
4.92
5.72
14.19
29.33
47.51
63.95
74.88
78.55
75.49
67.11
59.73
61.31
79.03
116.50
172.31
240.60
312.69
380.12
420.13
418.13
373.23
300.57
222.25
154.24
100.95
58.80
29.82
10.31
2.52
9.85
32.61
65.69
100.11
127.00
136.56
125.64
95.34
53.58
9.70
-29.36
-61.74
-90.31
-119.88
-154.04
-192.50
-232.74
-268.84
-295.73
-311.71
-318.99
-321.88
-324.01
-326.65
-328.38
-327.43
-321.37
-308.84
-289.90
-265.71
-237.99
-208.32
-178.11
-148.27
-119.93
-93.63
-69.63
-48.08
-29.28
-13.66
-1.57
6.91
12.13
14.77
15.74
15.81
15.36
14.29
12.18
8.69
3.79
-2.28
-8.72
-14.09
-16.47
-13.74
-4.20
12.66
35.70
62.07
87.22
106.55
116.71
116.34
106.45
89.47
68.00
43.80
17.75
-9.99
-38.17
-63.98
-84.07
-95.99
-99.93
-99.05
-98.05
-95.98
-90.47
-77.60
-54.28
-20.70
19.63
61.01
97.81
126.15
144.59
152.87
151.88
144.60
133.33
121.22
111.93
108.49
111.67
119.52
127.55
131.08
127.02
114.62
95.57
72.33
48.24
26.03
7.37
-7.34
-18.33
-26.26
-32.35
-37.81
-43.67
-50.26
-57.18
-63.19
-66.63
-65.84
-59.78
-48.59
-33.45
-16.36
0.43
14.89
25.64
32.09
34.21
32.33
26.79
17.96
6.38
-7.14
-21.56
-35.78
-48.78
-60.00
-69.42
-77.49
-84.87
-92.16
-99.75
-107.78
-116.12
-124.32
-131.50
-136.31
-137.08
-132.27
-120.94
-103.28
-80.69
-55.48
-30.25
-7.27
12.00
26.95
37.66
44.59
48.39
49.75
49.46
48.34
47.12
46.29
45.92
45.64
44.81
42.77
39.04
33.43
26.04
17.16
7.34
-2.53
-11.17
-17.06
-18.76
-15.40
-7.15
4.75
18.23
30.98
40.97
46.91
48.28
45.24
38.37
28.49
16.63
3.97
-8.26
-18.94
-27.37
-33.42
-37.54
-40.58
-43.42
-46.68
-50.64
-55.27
-60.38
-65.64
-70.49
-73.97
-74.81
-71.61
-63.38
-50.02
-32.52
-12.80
6.84
24.30
38.24
48.11
54.07
56.60
56.28
53.62
49.10
43.34
37.07
31.08
26.09
22.50
20.32
19.11
18.18
16.79
14.31
10.33
4.70
-2.38
-10.26
-17.83
-23.50
-25.54
-22.55
-13.91
-0.12
17.25
35.95
53.61
68.30
78.87
84.95
86.80
85.00
80.26
73.29
64.82
55.61
46.42
37.94
30.64
24.65
19.81
15.74
11.99
8.13
3.77
-1.46
-7.87
-15.47
-23.77
-31.52
-36.87
-37.87
-33.06
-22.18
-6.34
12.23
30.79
46.85
58.73
65.72
67.91
65.94
60.67
53.01
43.88
34.11
24.42
15.33
7.09
-0.26
-6.86
-12.88
-18.46
-23.77
-29.01
-34.54
-40.76
-48.00
-56.11
-64.20
-70.62
-73.25
-70.23
-60.63
-44.94
-24.96
-3.38
17.09
34.28
46.95
54.67
57.63
56.25
51.17
43.12
33.10
22.26
11.75
2.51
-4.97
-10.72
-15.17
-19.02
-23.04
-27.90
-34.15
-42.07
-51.60
-62.11
-72.34
-80.51
-84.73
-83.52
-76.39
-64.01
-48.11
-30.94
-14.72
-1.19
8.61
14.28
16.02
14.42
10.37
4.92
-0.81
-5.82
-9.40
-11.19
-11.24
-9.94
-7.88
-5.65
-3.70
-2.21
-1.17
-0.49
0.07
0.85
2.50
5.91
12.08
21.74
35.03
51.33
69.29
87.22
103.38
116.31
124.99
128.84
127.73
121.98
112.25
99.50
84.85
69.39
54.07
39.58
26.36
14.49
3.84
-5.87
-14.93
-23.50
-31.58
-39.11
-45.98
-52.05
-56.94
-60.01
-60.27
-56.63
-48.37
-35.61
-19.44
-1.81
15.04
29.12
39.20
44.93
46.70
45.33
41.64
36.33
29.79
22.29
14.05
5.46
-2.87
-10.21
-15.86
-19.48
-21.28
-22.06
-23.05
-25.59
-30.58
-38.18
-47.47
-56.64
-63.35
-65.50
-61.91
-52.74
-39.50
-24.50
-10.20
1.53
9.70
14.10
15.02
12.85
7.95
0.75
-8.10
-17.68
-26.90
-34.79
-40.73
-44.65
-46.89
-48.12
-49.03
-50.21
-52.06
-54.82
-58.55
-63.05
-67.73
-71.54
-73.06
-70.76
-63.49
-50.92
-33.80
-13.93
6.33
24.57
38.96
48.55
53.30
53.85
51.15
46.24
40.04
33.38
26.98
21.42
17.13
14.24
12.59
11.81
11.40
10.88
9.76
7.61
4.02
-1.30
-8.28
-16.29
-24.11
-30.09
-32.66
-30.86
-24.75
-15.46
-4.85
5.04
12.64
17.09
18.38
17.00
13.67
9.09
3.83
-1.60
-6.78
-11.27
-14.75
-17.08
-18.36
-18.87
-19.04
-19.31
-20.11
-21.79
-24.66
-28.82
-34.12
-39.94
-45.14
-48.22
-47.67
-42.45
-32.45
-18.63
-2.81
12.82
26.30
36.30
42.33
44.58
43.66
40.31
35.25
29.17
22.78
16.91
12.45
10.20
10.67
13.85
19.16
25.58
31.89
36.92
39.79
39.99
37.48
32.81
27.16
22.17
19.64
20.98
26.65
35.93
47.07
57.83
66.14
70.66
70.91
67.08
59.75
49.64
37.47
23.97
9.99
-3.62
-16.08
-26.88
-35.87
-43.31
-49.70
-55.68
-61.84
-68.59
-76.10
-84.27
-92.63
-100.28
-105.94
-108.14
-105.64
-97.86
-85.22
-69.22
-52.01
-35.85
-22.54
-13.04
-7.49
-5.53
-6.53
-9.84
-14.75
-20.50
-26.21
-31.07
-34.51
-36.40
-37.04
-37.08
-37.27
-38.27
-40.56
-44.32
-49.48
-55.52
-61.40
-65.55
-66.10
-61.44
-50.75
-34.42
-14.04
7.98
29.11
47.30
61.40
71.12
76.72
78.73
77.64
73.93
68.05
60.62
52.33
43.90
35.93
28.74
22.41
16.80
11.65
6.68
1.63
-3.78
-9.70
-15.98
-22.00
-26.59
-28.27
-25.61
-17.92
-5.49
10.26
27.18
43.04
56.03
65.15
70.23
71.66
70.13
66.33
60.88
54.28
47.02
39.54
32.27
25.60
19.72
14.64
10.09
5.59
0.58
-5.46
-12.89
-21.71
-31.49
-41.19
-49.22
-53.75
-53.16
-46.66
-34.67
-18.80
-1.39
15.14
28.91
38.86
44.69
46.56
44.87
40.15
33.11
24.69
15.94
7.84
1.10
-4.05
-7.75
-10.42
-12.55
-14.64
-17.08
-20.27
-24.48
-29.69
-35.37
-40.30
-42.73
-40.82
-33.32
-20.09
-2.28
17.92
37.92
55.40
68.85
77.63
81.88
82.14
79.12
73.53
66.00
57.23
47.88
38.67
30.13
22.62
16.10
10.24
4.46
-1.88
-9.31
-18.20
-28.72
-40.73
-53.62
-66.16
-76.44
-82.31
-81.91
-74.38
-60.27
-41.45
-20.56
-0.22
17.62
31.89
42.24
48.78
51.81
51.80
49.43
45.61
41.39
37.65
34.91
33.22
32.17
31.13
29.38
26.34
21.58
14.92
6.40
-3.52
-13.96
-23.53
-30.55
-33.42
-31.08
-23.49
-11.68
2.42
16.58
28.83
37.85
43.08
44.58
42.73
38.10
31.38
23.36
14.95
7.06
0.43
-4.55
-7.90
-10.06
-11.68
-13.48
-16.07
-19.83
-25.00
-31.57
-39.25
-47.31
-54.45
-59.00
-59.21
-53.88
-42.89
-27.33
-9.25
8.90
24.94
37.41
45.61
49.54
49.57
46.31
40.57
33.26
25.35
17.72
11.01
5.48
1.03
-2.76
-6.31
-10.06
-14.24
-19.04
-24.61
-31.13
-38.72
-47.11
-55.48
-62.30
-65.64
-63.77
-55.72
-41.87
-23.89
-4.31
14.20
29.47
40.27
46.28
47.88
45.82
41.01
34.36
26.76
19.02
11.86
5.68
0.67
-3.28
-6.48
-9.37
-12.37
-15.90
-20.31
-25.93
-32.89
-40.96
-49.29
-56.35
-60.16
-58.80
-51.17
-37.47
-19.32
0.69
19.75
35.62
47.07
53.92
56.67
56.09
52.93
47.82
41.43
34.47
27.70
21.80
17.18
13.83
11.39
9.25
6.80
3.51
-0.98
-6.91
-14.27
-22.76
-31.51
-39.07
-43.59
-43.30
-37.21
-25.53
-9.81
7.62
24.28
38.28
48.56
54.89
57.54
57.00
53.76
48.25
41.07
32.96
24.81
17.43
11.30
6.51
2.70
-0.71
-4.45
-9.03
-14.61
-21.13
-28.45
-36.41
-44.58
-52.09
-57.51
-59.22
-55.59
-45.53
-29.16
-8.11
14.74
36.19
53.49
65.16
70.70
71.01
68.22
64.34
60.34
55.88
50.15
42.90
35.00
27.35
21.03
16.75
13.81
9.89
1.91
-12.58
-34.61
-64.01
-100.55
-142.64
-185.74
-222.72
-245.10
-245.16
-218.29
-164.92
-87.04
3.21
87.02
148.08
180.12
188.07
182.23
171.89
162.33
155.02
150.31
146.49
143.98
144.02
146.95
151.52
155.68
157.84
157.22
152.16
140.57
123.00
101.14
76.71
50.96
24.78
-0.87
-24.79
-47.39
-68.33
-85.68
-98.06
-106.81
-117.05
-135.87
-168.74
-216.22
-274.79
-335.96
-388.93
-425.16
-441.20
-438.31
-419.76
-388.03
-332.06
-249.32
-148.42
-46.83
37.62
95.48
128.05
143.58
152.38
162.11
174.73
189.07
203.56
216.88
227.56
234.09
235.21
231.17
222.52
208.34
185.51
153.04
112.01
65.28
17.15
-27.90
-65.95
-96.21
-116.20
-125.46
-124.87
-116.28
-101.75
-82.82
-66.18
-52.80
-44.00
-41.43
-46.11
-56.92
-68.36
-75.68
-75.74
-68.04
-53.78
-36.23
-18.84
-4.41
5.94
12.37
15.31
15.43
13.25
9.86
5.85
1.93
-1.55
-4.30
-6.20
-7.59
-8.86
-10.39
-12.22
-14.68
-18.13
-22.96
-29.31
-36.75
-44.43
-50.80
-54.01
-52.22
-44.55
-31.21
-13.66
5.92
25.10
41.73
54.40
62.48
66.12
65.94
62.83
57.81
51.93
46.05
40.80
36.51
33.20
30.66
28.55
26.45
23.92
20.56
15.99
9.90
2.09
-7.26
-17.43
-27.00
-34.09
-36.76
-33.65
-24.45
-10.15
7.21
25.10
41.10
53.40
61.03
63.85
62.37
57.52
50.48
42.41
34.29
26.74
20.04
14.19
9.04
4.40
0.09
-4.02
-8.09
-12.30
-16.97
-22.40
-28.88
-36.38
-44.27
-51.31
-55.69
-55.54
-49.53
-37.50
-20.57
-0.91
18.81
36.23
49.68
58.43
62.58
62.67
59.56
54.14
47.33
39.95
32.71
26.11
20.40
15.56
11.37
7.50
3.60
-0.62
-5.35
-10.82
-17.29
-24.98
-33.86
-43.33
-52.04
-58.08
-59.47
-54.81
-43.87
-27.81
-8.88
10.22
26.98
39.66
47.46
50.40
49.10
44.53
37.78
29.92
21.88
14.38
7.86
2.51
-1.76
-5.23
-8.23
-11.12
-14.17
-17.64
-21.85
-27.17
-33.90
-41.94
-50.49
-57.92
-62.02
-60.68
-52.64
-38.11
-18.81
2.49
22.79
39.69
51.84
58.97
61.59
60.53
56.67
50.74
43.45
35.50
27.60
20.45
14.49
9.87
6.31
3.30
0.22
-3.43
-8.03
-13.85
-21.15
-30.02
-40.17
-50.54
-59.26
-63.95
-62.54
-54.03
-39.09
-19.91
0.45
19.06
33.81
43.80
49.12
50.39
48.36
43.73
37.19
29.53
21.57
14.12
7.77
2.75
-1.10
-4.21
-7.10
-10.28
-14.12
-18.90
-24.88
-32.25
-40.89
-50.13
-58.52
-64.02
-64.49
-58.44
-45.69
-27.57
-6.66
13.97
31.63
44.59
52.29
55.06
53.77
49.41
42.93
35.15
26.82
18.61
11.09
4.61
-0.72
-5.10
-8.91
-12.63
-16.75
-21.63
-27.61
-34.90
-43.47
-52.81
-61.72
-68.32
-70.41
-66.19
-54.99
-37.67
-16.50
5.47
25.34
41.10
51.87
57.77
59.42
57.59
52.97
46.24
38.21
29.79
21.85
15.05
9.66
5.52
2.20
-0.90
-4.35
-8.67
-14.38
-21.85
-31.18
-41.94
-52.91
-62.14
-67.31
-66.39
-58.38
-43.66
-24.06
-2.35
18.53
36.19
49.17
57.06
60.24
59.46
55.63
49.57
42.06
33.82
25.60
18.10
11.81
6.92
3.18
-0.00
-3.44
-7.84
-13.75
-21.41
-30.75
-41.28
-52.01
-61.39
-67.42
-68.13
-62.16
-49.40
-31.16
-9.95
11.26
29.84
44.05
53.20
57.50
57.63
54.44
48.74
41.33
33.00
24.57
16.70
9.92
4.40
0.00
-3.66
-7.13
-11.00
-15.89
-22.32
-30.52
-40.23
-50.49
-59.52
-65.08
-65.03
-58.06
-44.24
-25.12
-3.31
18.31
37.23
51.86
61.57
66.48
67.10
64.14
58.38
50.74
42.23
33.80
26.22
19.94
15.03
11.17
7.79
4.21
-0.21
-5.95
-13.36
-22.45
-32.77
-43.22
-52.05
-57.11
-56.39
-48.73
-34.35
-14.90
6.93
28.20
46.44
60.18
68.91
72.86
72.56
68.73
62.13
53.65
44.28
35.05
26.75
19.83
14.25
9.59
5.28
0.79
-4.25
-10.09
-16.98
-25.20
-34.86
-45.54
-55.98
-64.10
-67.50
-64.27
-53.78
-37.00
-16.32
5.22
24.77
40.34
50.94
56.48
57.45
54.59
48.74
40.86
31.94
22.99
14.87
8.17
3.06
-0.69
-3.61
-6.38
-9.65
-14.01
-19.89
-27.56
-36.95
-47.44
-57.64
-65.47
-68.63
-65.24
-54.66
-37.83
-17.13
4.38
23.79
39.10
49.48
55.07
56.55
54.66
50.09
43.52
35.76
27.74
20.44
14.61
10.57
8.06
6.42
4.74
2.21
-1.84
-7.78
-15.76
-25.52
-36.25
-46.51
-54.24
-57.28
-53.90
-43.52
-27.07
-6.81
14.27
33.31
48.28
58.25
63.27
63.94
61.06
55.37
47.59
38.53
29.09
20.19
12.59
6.65
2.24
-1.11
-4.11
-7.41
-11.58
-17.09
-24.26
-33.21
-43.50
-54.00
-62.76
-67.42
-65.86
-57.06
-41.52
-21.24
0.82
21.67
39.02
51.71
59.53
62.90
62.39
58.58
52.05
43.60
34.24
25.06
17.02
10.61
5.77
1.97
-1.58
-5.63
-10.74
-17.29
-25.47
-35.29
-46.41
-57.84
-67.89
-74.37
-75.12
-68.78
-55.30
-36.13
-13.84
8.64
28.68
44.50
55.28
60.97
62.04
59.29
53.60
46.02
37.55
29.13
21.48
14.97
9.63
5.14
1.07
-3.02
-7.46
-12.50
-18.40
-25.51
-34.19
-44.44
-55.54
-65.77
-72.65
-73.60
-66.90
-52.47
-32.03
-8.63
14.32
33.98
48.75
58.16
62.60
62.82
59.54
53.53
45.58
36.65
27.66
19.48
12.60
7.12
2.79
-0.85
-4.27
-7.91
-12.10
-17.25
-23.77
-32.02
-42.06
-53.25
-64.08
-72.24
-75.20
-71.01
-59.09
-40.52
-17.85
5.61
26.78
43.51
54.81
60.71
61.86
59.17
53.57
45.96
37.23
28.26
19.85
12.57
6.67
2.06
-1.66
-5.07
-8.71
-13.05
-18.47
-25.26
-33.64
-43.54
-54.31
-64.56
-72.12
-74.65
-70.29
-58.47
-40.30
-18.31
4.28
24.47
40.16
50.50
55.67
56.43
53.71
48.39
41.27
33.09
24.64
16.65
9.71
4.08
-0.34
-4.02
-7.57
-11.58
-16.54
-22.74
-30.42
-39.61
-50.00
-60.69
-70.03
-75.82
-75.91
-68.95
-55.00
-35.69
-13.78
7.56
25.70
38.99
46.90
49.67
47.96
42.50
34.06
23.47
11.77
0.13
-10.25
-18.40
-23.71
-26.05
-25.74
-23.48
-20.22
-17.14
-15.48
-16.31
-20.27
-27.14
-35.70
-43.78
-48.81
-48.53
-41.73
-28.71
-11.18
8.23
26.77
42.24
53.38
59.85
61.89
60.07
55.08
47.71
39.00
30.21
22.75
17.84
16.12
17.38
20.63
24.31
26.83
26.86
23.66
17.01
7.12
-5.39
-19.41
-33.21
-44.45
-50.61
-49.59
-40.51
-24.17
-2.94
19.88
40.98
57.84
69.24
75.11
76.19
73.56
68.23
61.09
52.82
44.02
35.21
26.78
19.03
12.09
5.94
0.47
-4.61
-9.71
-15.38
-22.16
-30.52
-40.45
-51.31
-61.72
-69.67
-73.02
-70.17
-60.64
-45.32
-26.19
-5.63
14.32
32.30
47.68
60.07
68.81
72.91
71.40
64.10
52.18
38.17
25.23
16.03
11.61
11.04
11.92
11.22
6.49
-3.37
-18.01
-35.86
-54.30
-69.93
-79.07
-79.01
-69.30
-52.69
-34.51
-20.70
-15.15
-17.85
-24.92
-30.54
-30.02
-21.94
-8.65
5.28
15.38
19.44
18.23
14.81
12.91
15.03
21.42
30.18
38.71
45.31
50.58
56.97
67.08
81.58
98.16
112.17
118.81
115.47
102.88
84.57
64.93
47.45
33.89
24.81
20.48
21.46
28.30
40.76
57.28
75.13
91.24
103.16
109.79
111.34
108.98
104.25
98.63
93.25
88.54
84.06
78.52
70.32
58.34
42.73
25.25
8.88
-3.32
-9.34
-8.99
-3.85
3.41
9.97
13.56
13.06
8.70
2.05
-4.41
-7.97
-6.63
-0.11
9.73
19.78
27.15
30.55
30.59
29.19
28.20
28.38
29.06
28.72
26.48
22.94
19.94
19.30
21.79
26.65
32.34
37.56
41.32
43.93
46.69
50.95
57.13
64.38
71.01
75.28
76.08
71.07
59.25
41.56
20.47
-1.51
-23.10
-44.29
-65.77
-88.13
-115.46
-149.97
-190.09
-230.94
-267.20
-295.69
-315.84
-328.68
-335.76
-344.80
-360.97
-383.81
-407.69
-426.19
-436.13
-438.22
-435.85
-433.54
-444.25
-477.48
-534.36
-607.10
-683.91
-754.33
-811.21
-850.87
-819.95
-693.06
-485.53
-247.31
-28.92
143.62
267.76
352.49
408.87
445.68
460.37
451.11
421.92
382.92
345.43
316.51
298.06
288.72
286.19
282.00
269.02
246.82
219.64
192.95
169.94
151.56
137.88
128.90
120.54
109.61
95.85
81.89
71.76
68.13
71.64
81.11
94.13
105.81
112.27
112.64
106.21
94.78
80.49
65.18
50.00
35.37
20.57
4.98
-11.02
-26.10
-38.18
-45.67
-48.34
-47.58
-46.10
-47.06
-52.83
-63.81
-78.15
-91.85
-100.47
-100.64
-91.29
-73.74
-50.89
-25.90
-1.08
22.45
44.51
64.77
82.16
94.78
100.72
99.13
90.94
78.74
65.67
54.23
45.22
37.65
29.75
20.18
8.91
-2.80
-13.27
-21.47
-27.68
-33.48
-40.80
-50.80
-62.97
-74.94
-83.17
-83.94
-74.71
-55.10
-27.33
4.33
34.80
59.94
77.81
89.04
96.02
101.32
106.21
110.08
111.18
107.98
100.51
90.60
80.92
73.49
68.48
64.25
58.33
48.92
35.85
20.57
5.13
-9.01
-21.60
-33.43
-45.29
-56.96
-66.85
-72.60
-72.38
-65.98
-55.25
-43.36
-33.45
-27.31
-24.82
-24.26
-23.35
-20.24
-14.07
-5.01
6.20
18.68
31.84
45.30
58.73
71.57
82.98
92.06
98.19
101.33
102.02
101.02
98.74
94.90
88.86
80.32
70.20
60.92
55.71
57.16
65.69
78.85
91.97
99.94
99.28
89.48
73.06
54.30
37.50
25.54
19.23
17.76
19.42
22.39
25.19
26.79
26.54
24.19
19.87
14.01
7.22
0.01
-7.44
-15.35
-24.22
-34.59
-46.53
-59.30
-71.13
-79.48
-81.55
-75.29
-60.21
-37.86
-11.49
14.83
37.37
53.44
61.76
62.23
55.52
42.76
25.29
4.79
-16.82
-37.44
-55.00
-67.88
-75.26
-77.41
-75.81
-72.87
-71.31
-73.43
-80.41
-91.89
-105.98
-119.70
-129.72
-133.19
-128.43
-115.19
-94.68
-69.11
-41.17
-13.55
11.37
31.75
46.29
54.43
56.39
53.28
46.82
38.92
31.21
24.60
19.27
14.87
10.87
6.84
2.55
-2.13
-7.38
-13.67
-21.67
-32.05
-45.02
-59.86
-74.71
-86.75
-92.80
-90.30
-78.17
-57.36
-30.61
-1.79
25.30
47.77
64.24
74.70
79.96
81.05
78.81
73.85
66.75
58.40
49.86
42.17
35.97
31.20
27.20
23.00
17.77
11.08
2.87
-6.73
-17.65
-29.69
-42.35
-54.38
-63.67
-67.70
-64.25
-52.29
-32.58
-7.56
19.28
44.38
64.92
79.30
87.13
88.90
85.63
78.56
69.06
58.50
48.21
39.28
32.39
27.73
24.93
23.17
21.42
18.66
14.07
7.14
-2.33
-14.16
-27.74
-41.90
-54.74
-63.82
-66.64
-61.36
-47.53
-26.44
-0.91
25.45
49.26
68.11
80.88
87.58
88.93
85.95
79.72
71.32
61.86
52.38
43.70
36.32
30.25
25.21
20.71
16.27
11.49
6.03
-0.45
-8.34
-18.01
-29.53
-42.36
-55.12
-65.60
-71.25
-69.85
-60.28
-43.00
-20.00
5.73
30.95
52.92
69.77
80.59
85.30
84.51
79.30
71.13
61.58
52.10
43.70
36.86
31.57
27.45
23.93
20.42
16.44
11.67
5.93
-0.88
-8.86
-18.16
-28.78
-40.28
-51.46
-60.29
-64.33
-61.49
-50.82
-33.03
-10.32
14.21
37.43
56.88
71.06
79.40
82.10
79.91
74.03
65.91
56.99
48.43
40.84
34.29
28.42
22.83
17.29
11.79
6.48
1.42
-3.55
-8.91
-15.37
-23.62
-34.07
-46.50
-59.75
-71.68
-79.54
-80.69
-73.45
-57.85
-35.84
-10.70
13.80
34.53
49.60
58.48
61.70
60.27
55.29
47.85
39.02
29.89
21.54
14.73
9.76
6.34
3.79
1.36
-1.51
-5.04
-9.26
-14.23
-20.27
-27.88
-37.43
-48.67
-60.37
-70.33
-75.83
-74.56
-65.37
-48.84
-27.18
-3.56
18.72
37.14
50.34
58.09
60.97
59.87
55.73
49.45
41.90
33.93
26.35
19.71
14.23
9.74
5.80
1.96
-2.15
-6.68
-11.70
-17.37
-24.05
-32.24
-42.20
-53.56
-64.97
-74.22
-78.69
-76.24
-66.00
-48.74
-26.78
-3.27
18.66
36.64
49.41
56.78
59.18
57.40
52.35
44.99
36.40
27.67
19.78
13.36
8.59
5.12
2.38
-0.29
-3.37
-7.11
-11.55
-16.76
-22.96
-30.46
-39.53
-49.93
-60.71
-70.07
-75.68
-75.31
-67.65
-52.87
-32.64
-9.76
12.67
31.97
46.42
55.37
59.02
58.14
53.78
47.15
39.41
31.66
24.68
18.88
14.24
10.41
6.93
3.48
-0.08
-3.72
-7.40
-11.29
-15.85
-21.71
-29.49
-39.32
-50.56
-61.66
-70.34
-74.18
-71.28
-60.94
-43.94
-22.45
0.64
22.33
40.28
53.07
60.28
62.19
59.62
53.71
45.77
37.13
28.92
21.85
16.04
11.20
6.81
2.43
-2.11
-6.74
-11.32
-15.83
-20.49
-25.78
-32.24
-40.26
-49.72
-59.90
-69.33
-76.06
-78.04
-73.72
-62.64
-45.67
-24.96
-3.38
16.21
31.63
41.76
46.50
46.55
42.98
36.92
29.46
21.55
14.02
7.49
2.26
-1.73
-4.81
-7.48
-10.17
-13.19
-16.67
-20.76
-25.72
-32.00
-40.02
-49.80
-60.66
-70.89
-78.16
-79.97
-74.56
-61.60
-42.43
-19.78
3.03
22.94
37.84
46.84
50.15
48.72
43.88
37.02
29.42
22.10
15.72
10.53
6.46
3.21
0.40
-2.33
-5.29
-8.78
-13.02
-18.26
-24.71
-32.52
-41.66
-51.71
-61.68
-69.88
-74.16
-72.51
-63.75
-48.16
-27.58
-5.05
16.17
33.47
45.47
52.02
53.86
52.00
47.46
41.06
33.60
25.90
18.76
12.77
8.12
4.54
1.47
-1.71
-5.45
-9.94
-15.23
-21.38
-28.64
-37.35
-47.63
-58.97
-69.98
-78.48
-82.02
-78.64
-67.63
-49.88
-27.72
-4.20
17.66
35.58
48.33
55.64
57.96
56.21
51.56
45.22
38.28
31.53
25.42
20.09
15.51
11.61
8.28
5.33
2.45
-0.78
-4.81
-10.04
-16.77
-25.19
-35.27
-46.50
-57.65
-66.68
-71.14
-68.85
-58.74
-41.44
-19.12
5.03
27.76
46.54
59.94
67.58
69.90
67.77
62.35
54.90
46.68
38.80
32.04
26.70
22.63
19.35
16.25
12.83
8.81
4.12
-1.20
-7.15
-13.95
-22.00
-31.65
-42.85
-54.74
-65.47
-72.50
-73.32
-66.32
-51.52
-30.73
-7.07
15.94
35.38
49.53
57.90
60.99
59.73
55.23
48.56
40.77
32.84
25.51
19.19
13.85
9.11
4.51
-0.26
-5.27
-10.37
-15.46
-20.67
-26.51
-33.73
-42.90
-54.05
-66.18
-77.32
-84.84
-86.21
-79.74
-65.29
-44.42
-19.96
4.67
26.31
42.77
53.07
57.39
56.69
52.33
45.69
38.01
30.28
23.23
17.28
12.58
8.95
6.01
3.25
0.18
-3.55
-8.21
-14.00
-21.21
-30.09
-40.67
-52.41
-63.95
-73.12
-77.41
-74.69
-63.99
-46.02
-23.06
1.59
24.61
43.40
56.57
63.96
66.26
64.56
60.05
53.74
46.56
39.25
32.46
26.62
21.90
18.20
15.14
12.21
8.87
4.70
-0.57
-7.13
-15.16
-24.84
-36.14
-48.44
-60.31
-69.51
-73.50
-70.22
-58.89
-40.39
-17.11
7.72
30.84
49.72
62.91
70.09
71.81
69.19
63.59
56.34
48.59
41.16
34.56
29.00
24.45
20.71
17.48
14.38
11.01
7.05
2.23
-3.64
-10.73
-19.23
-29.26
-40.56
-52.24
-62.51
-68.99
-69.23
-61.66
-46.25
-24.73
-0.17
23.97
44.73
60.34
70.23
74.75
74.71
71.11
64.94
57.30
49.27
41.82
35.54
30.56
26.60
23.13
19.64
15.79
11.43
6.56
1.14
-4.97
-12.16
-20.85
-31.32
-43.26
-55.45
-65.79
-71.67
-70.78
-61.96
-45.72
-24.20
-0.54
21.95
40.65
54.06
61.76
64.20
62.35
57.37
50.43
42.56
34.62
27.25
20.87
15.63
11.46
8.00
4.78
1.27
-2.86
-7.72
-13.33
-19.76
-27.28
-36.23
-46.66
-57.85
-68.05
-74.76
-75.46
-68.55
-54.01
-33.57
-10.17
12.93
32.94
48.10
57.73
62.03
61.71
57.79
51.35
43.52
35.30
27.51
20.72
15.18
10.81
7.27
4.08
0.67
-3.38
-8.35
-14.41
-21.69
-30.36
-40.48
-51.63
-62.64
-71.48
-75.69
-73.14
-62.89
-45.71
-24.00
-1.06
19.86
36.43
47.56
53.25
54.22
51.46
46.04
38.99
31.34
24.02
17.73
12.81
9.24
6.62
4.37
1.92
-1.18
-5.22
-10.33
-16.63
-24.28
-33.40
-43.86
-54.93
-65.09
-72.13
-73.73
-68.25
-55.51
-36.99
-15.44
5.86
24.10
37.53
45.64
48.79
47.89
43.93
37.91
30.72
23.23
16.16
10.06
5.19
1.44
-1.50
-4.10
-6.86
-10.13
-14.22
-19.36
-25.79
-33.80
-43.46
-54.36
-65.25
-74.08
-78.34
-75.84
-65.54
-48.12
-25.85
-2.01
20.09
37.95
50.31
57.10
59.03
57.14
52.51
46.13
38.90
31.64
25.03
19.51
15.18
11.82
9.00
6.23
3.12
-0.59
-5.08
-10.54
-17.32
-25.77
-36.00
-47.52
-58.91
-67.95
-72.08
-69.24
-58.62
-41.11
-19.08
4.33
26.07
43.88
56.61
64.03
66.54
64.89
60.02
53.01
44.97
36.96
29.80
23.90
19.30
15.73
12.73
9.82
6.54
2.53
-2.48
-8.70
-16.29
-25.41
-36.04
-47.73
-59.31
-68.87
-74.03
-72.69
-63.76
-47.66
-26.31
-2.61
20.30
39.84
54.37
63.23
66.61
65.30
60.44
53.38
45.43
37.69
30.92
25.42
21.07
17.48
14.15
10.66
6.77
2.42
-2.35
-7.58
-13.54
-20.65
-29.34
-39.70
-51.06
-61.93
-70.07
-73.15
-69.41
-58.35
-40.99
-19.70
2.46
22.49
38.14
48.31
52.98
52.94
49.35
43.45
36.35
28.95
21.96
15.86
10.93
7.14
4.20
1.64
-1.10
-4.46
-8.67
-13.77
-19.79
-26.88
-35.29
-45.15
-55.99
-66.49
-74.55
-77.79
-74.29
-63.41
-46.09
-24.60
-1.94
19.01
36.03
47.92
54.42
56.01
53.64
48.51
41.81
34.60
27.67
21.52
16.39
12.25
8.90
6.00
3.15
-0.03
-3.85
-8.58
-14.47
-21.82
-30.84
-41.39
-52.73
-63.20
-70.49
-72.23
-66.78
-53.94
-35.11
-12.94
9.45
29.27
44.66
54.79
59.73
60.13
57.00
51.46
44.65
37.60
31.04
25.38
20.67
16.73
13.31
10.14
6.99
3.62
-0.24
-4.85
-10.53
-17.59
-26.28
-36.58
-47.93
-58.96
-67.60
-71.46
-68.62
-58.30
-41.33
-19.91
3.04
24.60
42.62
55.88
63.99
67.16
66.00
61.40
54.52
46.67
39.09
32.74
28.11
25.16
23.41
22.06
20.22
17.11
12.24
5.54
-2.68
-11.94
-21.77
-31.91
-42.32
-52.80
-62.67
-70.53
-74.51
-72.88
-64.73
-50.52
-32.05
-11.98
7.05
23.02
34.81
42.20
45.47
45.24
42.34
37.69
32.36
27.26
22.99
19.71
17.18
15.01
12.85
10.49
7.82
4.74
1.05
-3.60
-9.61
-17.28
-26.74
-37.65
-49.12
-59.54
-66.79
-68.72
-63.85
-51.95
-34.24
-13.13
8.48
27.97
43.52
54.26
60.01
61.14
58.31
52.51
44.97
37.04
29.91
24.27
20.23
17.34
14.92
12.34
9.28
5.73
1.84
-2.26
-6.67
-11.81
-18.30
-26.74
-37.28
-49.25
-60.97
-69.99
-73.73
-70.35
-59.43
-42.21
-21.27
0.28
19.66
34.95
45.31
50.70
51.62
48.81
43.15
35.72
27.66
20.08
13.88
9.46
6.72
5.09
3.76
1.96
-0.80
-4.62
-9.34
-14.79
-21.01
-28.35
-37.16
-47.33
-57.84
-66.67
-71.19
-69.13
-59.48
-42.98
-22.03
0.16
20.59
37.17
49.01
56.16
59.13
58.55
55.06
49.43
42.56
35.46
28.92
23.38
18.91
15.29
12.26
9.58
7.04
4.29
0.84
-3.87
-10.31
-18.64
-28.59
-39.36
-49.62
-57.59
-61.24
-58.80
-49.31
-33.21
-12.55
9.57
29.97
46.38
57.77
64.10
65.70
62.76
55.33
43.80
29.62
15.46
4.57
-0.53
1.09
8.46
19.46
32.06
45.11
58.73
73.45
89.22
104.37
115.99
121.11
118.30
108.46
94.19
78.95
65.67
56.03
49.64
44.90
40.11
34.26
27.23
18.62
8.56
-2.30
-12.22
-20.35
-26.63
-32.01
-37.91
-45.94
-58.47
-76.22
-97.62
-118.13
-134.21
-144.09
-148.56
-150.23
-152.65
-160.31
-174.94
-194.40
-212.07
-222.58
-223.26
-215.26
-202.15
-178.47
-143.52
-100.29
-63.91
-36.66
-17.77
-3.70
5.63
9.88
9.66
5.33
-1.37
-8.04
-11.23
-10.43
-6.92
-2.84
0.65
3.51
5.28
6.06
6.31
7.55
9.52
11.19
11.14
8.76
4.04
-3.26
-12.73
-23.16
-31.78
-36.34
-35.13
-27.50
-13.79
4.52
24.73
44.00
60.09
72.05
79.37
82.04
80.29
74.81
66.52
56.46
45.78
35.57
26.74
19.60
13.95
9.25
4.94
0.56
-4.14
-9.40
-15.52
-22.89
-31.95
-42.77
-54.75
-66.34
-75.22
-78.81
-75.04
-63.10
-43.71
-19.12
7.57
33.14
55.00
71.52
82.19
87.30
87.69
84.39
78.49
70.98
62.81
54.73
47.29
40.70
34.88
29.49
24.16
18.53
12.43
5.77
-1.57
-9.75
-18.97
-29.14
-39.58
-48.80
-54.78
-55.41
-49.27
-36.23
-17.61
4.16
26.20
45.92
61.63
72.63
79.03
81.45
80.72
77.68
73.18
68.00
62.87
58.33
54.63
51.80
49.63
47.82
46.04
43.87
40.81
36.19
29.27
19.44
6.67
-8.18
-23.26
-35.95
-43.59
-44.24
-37.26
-23.64
-5.65
13.80
31.86
46.39
56.21
61.08
61.49
58.45
53.18
46.94
40.85
35.68
31.80
29.17
27.39
25.90
24.16
21.84
18.87
15.37
11.49
7.19
2.14
-4.18
-12.02
-20.94
-29.63
-36.08
-38.21
-34.63
-25.26
-11.35
4.84
20.77
34.28
43.96
49.30
50.52
48.29
43.57
37.34
30.50
23.74
17.53
12.09
7.48
3.55
0.07
-3.27
-6.79
-10.76
-15.34
-20.69
-27.00
-34.42
-42.92
-52.03
-60.61
-66.93
-69.02
-65.28
-55.16
-39.38
-19.91
0.60
19.45
34.59
44.92
50.30
51.37
49.12
44.63
38.87
32.66
26.62
21.25
16.80
13.30
10.50
7.94
5.10
1.59
-2.72
-7.84
-13.71
-20.42
-28.13
-36.87
-46.14
-54.71
-60.67
-61.97
-57.13
-45.88
-29.45
-10.20
9.02
25.72
38.28
46.11
49.43
48.94
45.55
40.17
33.68
26.90
20.51
14.92
10.26
6.36
2.80
-0.87
-4.99
-9.70
-14.94
-20.59
-26.66
-33.35
-40.88
-49.17
-57.47
-64.29
-67.65
-65.77
-57.73
-43.91
-25.97
-6.29
12.70
29.07
41.73
50.29
54.89
55.96
54.08
49.97
44.50
38.53
32.79
27.75
23.51
19.83
16.30
12.47
8.02
2.83
-3.08
-9.71
-17.14
-25.53
-34.94
-44.99
-54.63
-62.21
-65.76
-63.71
-55.43
-41.54
-23.82
-4.70
13.37
28.53
39.67
46.48
49.22
48.54
45.27
40.31
34.54
28.71
23.34
18.69
14.74
11.28
8.03
4.73
1.19
-2.65
-6.85
-11.50
-16.84
-23.18
-30.79
-39.54
-48.68
-56.73
-61.72
-61.74
-55.61
-43.34
-26.24
-6.51
13.30
31.00
45.12
54.97
60.57
62.28
60.77
56.77
51.12
44.67
38.13
32.05
26.70
22.12
18.15
14.56
11.04
7.35
3.28
-1.38
-6.84
-13.37
-21.18
-30.28
-40.23
-49.92
-57.71
-61.69
-60.32
-52.96
-40.19
-23.68
-5.67
11.63
26.51
37.96
45.49
48.94
48.38
44.06
36.60
26.98
16.42
6.13
-2.94
-10.25
-15.71
-19.52
-22.12
-24.02
-25.72
-27.69
-30.32
-33.97
-38.88
-45.14
-52.45
-59.97
-66.29
-69.52
-67.91
-60.38
-46.97
-28.98
-8.59
11.75
29.97
44.69
55.29
61.72
64.26
63.40
59.82
54.34
47.86
41.21
35.00
29.52
24.81
20.66
16.82
12.96
8.83
4.20
-1.06
-7.02
-13.79
-21.47
-30.14
-39.66
-49.36
-57.96
-63.70
-64.82
-60.17
-49.68
-34.55
-16.85
0.97
16.84
29.37
38.03
42.90
44.46
43.33
40.15
35.65
30.55
25.54
21.16
17.68
15.08
13.09
11.29
9.29
6.80
3.63
-0.36
-5.29
-11.31
-18.51
-26.73
-35.38
-43.31
-48.95
-50.66
-47.25
-38.47
-25.19
-9.22
7.26
22.21
34.19
42.46
46.94
47.97
46.15
42.29
37.20
31.70
26.40
21.61
17.41
13.68
10.26
7.01
3.81
0.52
-3.04
-7.08
-11.84
-17.56
-24.43
-32.44
-41.20
-49.70
-56.45
-59.75
-58.19
-51.25
-39.49
-24.43
-8.15
7.33
20.45
30.33
36.70
39.73
39.88
37.80
34.21
29.79
25.12
20.54
16.22
12.15
8.32
4.66
1.15
-2.26
-5.61
-8.99
-12.58
-16.63
-21.52
-27.54
-34.79
-42.83
-50.63
-56.64
-59.21
-57.07
-49.79
-37.95
-22.99
-6.86
8.53
21.60
31.36
37.43
39.98
39.54
36.85
32.72
27.91
23.04
18.56
14.70
11.49
8.69
5.98
3.08
-0.23
-3.93
-7.94
-12.22
-16.88
-22.19
-28.47
-35.73
-43.46
-50.54
-55.43
-56.62
-53.11
-44.78
-32.42
-17.60
-2.11
12.32
24.33
33.12
38.37
40.22
39.19
36.05
31.62
26.69
21.80
17.29
13.27
9.75
6.66
3.84
1.11
-1.81
-5.09
-8.85
-13.16
-18.05
-23.67
-30.18
-37.56
-45.35
-52.51
-57.47
-58.62
-54.84
-45.97
-32.98
-17.70
-2.27
11.41
22.02
29.00
32.39
32.66
30.46
26.56
21.71
16.59
11.76
7.57
4.11
1.29
-1.13
-3.42
-5.82
-8.47
-11.40
-14.68
-18.40
-22.80
-28.18
-34.74
-42.37
-50.40
-57.62
-62.41
-63.22
-59.02
-49.77
-36.42
-20.79
-4.94
9.18
20.24
27.59
31.25
31.70
29.65
25.97
21.48
16.87
12.65
9.01
5.88
3.04
0.24
-2.67
-5.69
-8.75
-11.83
-15.00
-18.52
-22.80
-28.24
-34.96
-42.61
-50.20
-56.17
-58.79
-56.59
-48.97
-36.42
-20.46
-3.19
13.30
27.35
37.99
44.89
48.18
48.29
45.86
41.63
36.41
30.97
25.93
21.70
18.42
15.99
14.08
12.32
10.27
7.64
4.19
-0.21
-5.70
-12.44
-20.40
-29.13
-37.58
-44.11
-46.82
-44.27
-35.94
-22.63
-6.19
10.97
26.63
39.25
48.13
53.28
55.13
54.19
51.01
46.15
40.24
33.94
27.88
22.50
17.92
13.97
10.33
6.62
2.59
-1.91
-6.95
-12.65
-19.22
-26.85
-35.47
-44.52
-52.79
-58.60
-60.22
-56.40
-46.92
-32.69
-15.56
2.18
18.41
31.63
41.05
46.51
48.34
47.13
43.62
38.64
33.03
27.54
22.69
18.72
15.55
12.88
10.36
7.67
4.61
1.08
-3.03
-7.87
-13.69
-20.74
-29.07
-38.25
-47.15
-54.08
-57.15
-54.85
-46.61
-33.10
-16.04
2.23
19.43
33.76
44.19
50.38
52.54
51.26
47.36
41.79
35.49
29.30
23.78
19.17
15.46
12.41
9.74
7.14
4.40
1.34
-2.23
-6.52
-11.79
-18.28
-26.08
-34.88
-43.79
-51.32
-55.70
-55.32
-49.30
-37.91
-22.51
-5.19
11.78
26.53
37.94
45.56
49.50
50.13
47.99
43.72
38.13
32.11
26.48
21.78
18.14
15.33
12.89
10.35
7.47
4.16
0.47
-3.67
-8.51
-14.43
-21.78
-30.56
-40.23
-49.50
-56.63
-59.76
-57.49
-49.35
-36.05
-19.29
-1.35
15.46
29.37
39.32
45.02
46.75
45.22
41.30
35.95
30.06
24.31
19.14
14.68
10.86
7.53
4.53
1.72
-1.05
-3.94
-7.14
-10.89
-15.43
-21.07
-27.97
-36.05
-44.71
-52.72
-58.36
-59.81
-55.80
-46.06
-31.55
-14.21
3.53
19.41
31.83
39.98
43.85
43.97
41.13
36.30
30.43
24.34
18.71
13.88
9.92
6.63
3.68
0.78
-2.27
-5.53
-9.01
-12.73
-16.83
-21.58
-27.32
-34.25
-42.23
-50.61
-58.06
-62.85
-63.26
-58.09
-47.23
-31.69
-13.47
5.01
21.55
34.57
43.35
47.91
48.78
46.71
42.55
37.12
31.18
25.44
20.45
16.51
13.60
11.43
9.48
7.28
4.49
0.96
-3.32
-8.39
-14.41
-21.56
-29.81
-38.61
-46.76
-52.46
-53.83
-49.46
-39.05
-23.57
-5.08
13.87
30.89
44.25
53.13
57.52
57.95
55.21
50.21
43.80
36.82
29.99
23.83
18.67
14.54
11.22
8.30
5.35
1.97
-2.08
-6.92
-12.66
-19.47
-27.51
-36.69
-46.35
-55.08
-60.94
-61.94
-56.73
-45.21
-28.62
-9.22
10.41
27.96
41.90
51.48
56.64
57.73
55.39
50.48
43.99
36.89
30.01
23.87
18.62
14.17
10.25
6.55
2.80
-1.25
-5.72
-10.77
-16.57
-23.35
-31.30
-40.40
-50.11
-59.19
-65.77
-67.76
-63.56
-52.65
-35.91
-15.41
6.20
26.34
43.06
55.23
62.53
65.19
63.83
59.31
52.67
44.99
37.24
30.20
24.28
19.53
15.72
12.39
9.06
5.37
1.15
-3.70
-9.19
-15.51
-22.98
-31.87
-42.10
-52.91
-62.69
-69.27
-70.51
-65.01
-52.65
-34.68
-13.36
8.70
29.09
46.06
58.53
66.09
68.85
67.38
62.61
55.80
48.22
40.93
34.57
29.27
24.85
20.90
17.07
13.13
8.94
4.42
-0.52
-6.05
-12.46
-20.03
-28.97
-39.14
-49.84
-59.71
-66.85
-69.31
-65.61
-55.33
-39.32
-19.51
1.60
21.56
38.44
51.02
58.83
61.91
60.74
56.19
49.37
41.59
34.05
27.61
22.60
18.85
15.82
12.91
9.62
5.70
1.12
-4.01
-9.57
-15.57
-22.18
-29.69
-38.29
-47.84
-57.55
-65.94
-71.10
-71.21
-65.11
-52.79
-35.49
-15.36
5.06
23.43
38.00
47.82
52.67
53.00
49.75
44.06
37.15
30.09
23.63
18.24
14.00
10.76
8.15
5.69
2.94
-0.46
-4.67
-9.66
-15.37
-21.77
-29.00
-37.19
-46.22
-55.34
-63.13
-67.64
-66.97
-59.93
-46.56
-28.24
-7.37
13.34
31.51
45.58
54.90
59.60
60.28
57.76
52.96
46.80
40.18
33.87
28.41
24.00
20.52
17.59
14.75
11.61
7.91
3.57
-1.44
-7.19
-13.88
-21.77
-30.89
-40.77
-50.17
-57.18
-59.64
-55.90
-45.42
-29.12
-9.14
11.74
30.89
46.41
57.32
63.44
65.18
63.18
58.24
51.26
43.18
34.95
27.34
20.86
15.62
11.44
7.94
4.66
1.20
-2.70
-7.25
-12.60
-18.98
-26.65
-35.71
-45.83
-56.02
-64.57
-69.36
-68.48
-60.92
-46.98
-28.33
-7.50
12.77
30.23
43.47
51.94
55.77
55.51
51.97
46.07
38.88
31.36
24.34
18.27
13.33
9.32
5.92
2.74
-0.55
-4.15
-8.22
-12.91
-18.47
-25.22
-33.45
-43.10
-53.51
-63.25
-70.35
-72.69
-68.76
-58.12
-41.72
-21.63
-0.53
19.01
35.01
46.41
52.97
55.09
53.58
49.41
43.62
37.15
30.78
25.03
20.09
15.90
12.23
8.77
5.26
1.52
-2.57
-7.10
-12.18
-18.01
-24.91
-33.13
-42.67
-52.89
-62.35
-68.99
-70.59
-65.57
-53.67
-36.13
-15.37
5.70
24.51
39.36
49.51
54.97
56.20
53.92
48.97
42.37
35.19
28.38
22.53
17.84
14.08
10.80
7.58
4.16
0.45
-3.53
-7.77
-12.41
-17.76
-24.24
-32.24
-41.83
-52.44
-62.74
-70.71
-74.13
-71.25
-61.43
-45.54
-25.69
-4.72
14.68
30.53
41.85
48.48
50.82
49.47
45.11
38.59
30.95
23.32
16.71
11.71
8.32
5.97
3.87
1.33
-1.98
-6.02
-10.56
-15.44
-20.79
-27.03
-34.61
-43.57
-53.19
-61.94
-67.69
-68.36
-62.59
-50.26
-32.62
-11.93
9.17
28.25
43.60
54.33
60.30
61.94
60.04
55.63
49.77
43.42
37.32
31.88
27.25
23.34
19.93
16.73
13.44
9.80
5.61
0.76
-4.88
-11.52
-19.38
-28.48
-38.30
-47.53
-54.22
-56.23
-52.04
-41.33
-25.24
-6.06
13.53
31.11
45.04
54.54
59.49
60.28
57.57
52.28
45.47
38.19
31.27
25.15
19.93
15.39
11.22
7.18
3.09
-1.15
-5.66
-10.57
-16.14
-22.68
-30.47
-39.55
-49.41
-58.77
-65.72
-68.16
-64.41
-54.00
-37.84
-18.10
2.45
21.23
36.43
47.18
53.43
55.57
54.23
50.17
44.25
37.44
30.66
24.67
19.79
15.99
12.96
10.25
7.51
4.49
1.01
-3.12
-8.16
-14.43
-22.21
-31.45
-41.59
-51.37
-58.98
-62.41
-60.09
-51.42
-37.11
-18.97
0.56
19.05
34.58
46.03
53.00
55.63
54.50
50.46
44.52
37.71
30.87
24.59
19.13
14.53
10.69
7.42
4.50
1.61
-1.57
-5.35
-10.03
-15.78
-22.80
-31.12
-40.47
-50.04
-58.35
-63.47
-63.54
-57.41
-45.14
-28.13
-8.76
10.33
26.89
39.52
47.71
51.66
52.01
49.53
45.04
39.37
33.25
27.32
22.03
17.61
13.97
10.87
7.88
4.60
0.77
-3.71
-8.81
-14.48
-20.85
-28.12
-36.47
-45.64
-54.73
-62.13
-65.92
-64.50
-57.20
-44.53
-28.08
-10.06
7.35
22.36
33.81
41.19
44.52
44.28
41.28
36.51
30.95
25.42
20.46
16.30
12.95
10.25
7.92
5.62
3.05
-0.00
-3.62
-7.85
-12.74
-18.48
-25.30
-33.21
-41.72
-49.61
-55.13
-56.45
-52.32
-42.58
-28.32
-11.54
5.43
20.55
32.48
40.61
44.95
45.89
44.03
40.10
34.88
29.14
23.60
18.75
14.87
11.96
9.76
7.89
5.91
3.45
0.29
-3.65
-8.44
-14.13
-20.78
-28.26
-36.01
-42.93
-47.48
-48.13
-43.87
-34.62
-21.38
-5.94
9.61
23.37
34.02
40.92
44.07
43.90
41.14
36.59
31.06
