1530295632.00
64.000000
-0.00
-0.00
-0.00
-0.00
-0.00
-0.00
-0.00
-0.00
-0.00
-0.00
0.00
0.01
0.01
-0.00
-0.03
-0.05
-0.05
0.00
0.13
0.36
0.66
1.01
1.37
1.72
2.06
2.40
2.79
3.24
3.80
4.43
5.08
5.70
6.27
6.81
7.36
8.01
8.82
9.88
11.11
12.42
13.68
14.84
15.92
17.06
18.46
20.24
22.67
25.54
28.64
31.66
34.46
37.09
39.86
43.21
47.45
52.99
59.50
66.49
73.38
79.83
85.90
92.06
98.99
107.25
117.40
129.01
141.34
153.54
165.04
175.82
186.41
198.07
209.52
223.09
239.53
259.10
280.67
301.29
316.49
321.40
312.47
288.79
252.88
208.82
161.18
113.33
66.76
21.50
-22.93
-66.57
-108.79
-148.22
-184.08
-216.23
-245.03
-270.90
-293.99
-314.23
-331.58
-346.62
-360.47
-374.68
-389.93
-405.25
-417.89
-423.94
-420.29
-405.89
-382.14
-351.93
-318.54
-284.39
-250.84
-218.69
-188.87
-162.50
-140.37
-122.19
-106.39
-90.92
-74.36
-56.83
-39.96
-25.88
-15.94
-9.77
-5.47
-0.67
6.10
14.60
23.15
29.74
33.35
34.49
34.95
36.58
40.10
44.65
48.27
49.17
46.98
42.99
39.53
38.57
40.53
44.08
46.84
46.84
43.73
38.95
34.89
33.46
34.92
37.74
39.49
38.27
33.97
28.28
23.75
22.28
23.94
26.97
28.78
27.53
23.29
17.97
14.26
13.98
16.97
21.22
23.92
23.20
19.17
13.81
9.79
8.91
11.02
14.27
16.28
15.65
12.81
9.69
8.49
10.24
14.08
17.77
18.98
16.75
12.03
7.21
4.67
5.48
8.78
12.34
13.90
12.45
8.80
5.04
3.23
4.23
7.14
9.86
10.35
7.95
3.71
-0.15
-1.65
-0.21
2.94
5.52
5.56
2.65
-1.81
-5.45
-6.35
-4.25
-0.74
1.70
1.15
-2.56
-7.74
-11.82
-12.85
-10.64
-6.85
-3.95
-3.77
-6.45
-10.34
-13.06
-12.96
-10.07
-6.04
-3.14
-2.88
-5.06
-7.97
-9.46
-8.28
-4.90
-1.23
0.47
-1.01
-5.11
-9.76
-12.56
-12.10
-8.78
-4.57
-1.82
-1.91
-4.47
-7.60
-9.08
-7.69
-3.93
0.30
2.87
2.78
0.74
-1.21
-1.02
2.10
7.10
11.71
13.75
12.47
9.04
5.86
5.20
7.89
12.86
17.79
20.47
20.09
17.70
15.54
15.61
18.51
23.03
26.92
28.29
26.74
23.69
21.44
21.86
25.19
29.87
33.47
34.09
31.50
27.26
23.77
22.86
24.74
27.91
30.06
29.49
26.09
21.41
17.76
16.79
18.49
21.21
22.60
21.10
16.83
11.61
7.88
7.26
9.58
12.95
14.92
13.90
10.09
5.38
2.16
1.86
4.20
7.27
8.82
7.55
3.94
-0.09
-2.35
-1.71
1.19
4.36
5.67
4.18
0.72
-2.61
-3.75
-1.91
1.84
5.25
6.17
3.91
-0.38
-4.32
-5.79
-4.09
-0.36
3.12
4.31
2.59
-0.93
-4.08
-4.99
-3.12
0.36
3.36
4.07
2.09
-1.33
-4.08
-4.38
-1.90
1.94
4.89
5.10
2.32
-1.94
-5.27
-5.81
-3.30
0.68
3.76
4.12
1.59
-2.25
-5.13
-5.39
-2.97
0.55
3.05
3.08
0.79
-2.19
-3.82
-2.85
0.37
4.05
6.03
5.11
1.71
-2.27
-4.61
-4.11
-1.21
2.19
3.94
2.95
-0.18
-3.50
-4.95
-3.58
-0.17
3.20
4.45
2.75
-0.99
-4.60
-5.95
-4.24
-0.45
3.19
4.57
2.97
-0.56
-3.78
-4.69
-2.67
1.13
4.42
5.21
3.02
-0.88
-4.17
-4.92
-2.70
1.11
4.17
4.57
1.99
-2.11
-5.39
-5.96
-3.53
0.47
3.75
4.49
2.43
-1.03
-3.67
-3.85
-1.44
2.09
4.54
4.36
1.53
-2.32
-4.96
-4.84
-2.04
1.77
4.36
4.26
1.66
-1.71
-3.65
-2.86
0.28
3.90
5.82
4.80
1.33
-2.66
-4.94
-4.35
-1.39
2.03
3.81
2.88
-0.15
-3.38
-4.75
-3.37
0.01
3.34
4.59
2.91
-0.81
-4.43
-5.85
-4.22
-0.49
3.19
4.69
3.17
-0.42
-3.96
-5.34
-3.72
-0.05
3.55
5.03
3.62
0.31
-2.78
-3.67
-1.70
1.98
5.17
5.86
3.56
-0.47
-3.92
-4.86
-2.88
0.66
3.49
3.85
1.54
-1.92
-4.29
-3.97
-1.00
2.91
5.42
4.97
1.71
-2.54
-5.36
-5.14
-2.09
1.93
4.45
3.94
0.66
-3.48
-6.04
-5.58
-2.46
1.35
3.55
2.85
-0.21
-3.64
-5.23
-3.88
-0.30
3.43
5.11
3.74
0.13
-3.60
-5.26
-3.90
-0.37
3.23
4.78
3.39
-0.02
-3.37
-4.59
-2.94
0.58
3.85
4.87
3.04
-0.54
-3.66
-4.37
-2.15
1.71
4.89
5.41
2.83
-1.44
-4.91
-5.54
-2.90
1.49
5.08
5.81
3.32
-0.82
-4.11
-4.59
-2.02
1.95
4.86
4.93
2.09
-1.93
-4.72
-4.61
-1.70
2.26
4.91
4.71
1.84
-1.92
-4.31
-3.91
-1.00
2.60
4.64
3.82
0.53
-3.33
-5.53
-4.80
-1.63
2.04
4.05
3.25
0.18
-3.22
-4.87
-3.79
-0.66
2.55
3.83
2.36
-1.00
-4.16
-5.07
-2.97
1.11
4.95
6.38
4.60
0.64
-3.22
-4.79
-3.27
0.26
3.53
4.43
2.32
-1.61
-5.00
-5.79
-3.45
0.69
4.22
5.12
2.91
-1.01
-4.28
-4.95
-2.62
1.27
4.38
4.86
2.46
-1.31
-4.16
-4.34
-1.72
2.06
4.70
4.55
1.62
-2.39
-5.19
-5.18
-2.44
1.32
3.85
3.68
0.99
-2.52
-4.68
-4.15
-1.21
2.39
4.52
3.94
1.02
-2.44
-4.31
-3.44
-0.25
3.40
5.42
4.66
1.58
-1.98
-3.94
-3.20
-0.26
3.08
4.84
4.03
1.22
-1.79
-3.08
-1.82
1.21
4.07
4.82
2.72
-1.26
-4.95
-6.20
-4.24
-0.09
3.97
5.70
4.23
0.54
-3.14
-4.63
-3.11
0.40
3.67
4.65
2.66
-1.14
-4.50
-5.42
-3.33
0.51
3.78
4.52
2.24
-1.68
-4.90
-5.45
-2.92
1.22
4.59
5.24
2.83
-1.15
-4.31
-4.78
-2.28
1.66
4.69
5.02
2.44
-1.55
-4.66
-5.19
-2.96
0.55
3.22
3.49
1.28
-1.94
-4.12
-3.85
-1.22
2.22
4.38
3.95
1.13
-2.37
-4.41
-3.71
-0.59
3.13
5.28
4.63
1.60
-1.93
-3.81
-2.99
-0.06
2.99
4.07
2.33
-1.38
-4.87
-6.06
-4.15
-0.18
3.57
4.96
3.23
-0.54
-4.09
-5.31
-3.53
0.12
3.38
4.23
2.13
-1.69
-4.88
-5.45
-2.92
1.33
4.90
5.69
3.22
-1.10
-4.79
-5.73
-3.41
0.77
4.37
5.33
3.21
-0.63
-3.77
-4.30
-1.95
1.85
4.72
4.90
2.27
-1.57
-4.28
-4.18
-1.29
2.69
5.37
5.12
2.01
-2.14
-4.92
-4.72
-1.67
2.39
5.06
4.78
1.76
-2.12
-4.49
-3.92
-0.77
2.98
4.95
3.85
0.22
-3.85
-5.95
-4.85
-1.19
2.88
5.00
3.94
0.39
-3.52
-5.49
-4.38
-0.92
2.79
4.54
3.38
0.14
-3.03
-4.01
-2.01
1.98
5.66
6.83
4.70
0.38
-3.75
-5.40
-3.72
0.14
3.79
4.95
2.86
-1.27
-4.96
-6.00
-3.74
0.51
4.23
5.23
2.96
-1.15
-4.59
-5.26
-2.75
1.36
4.53
4.76
1.85
-2.46
-5.57
-5.50
-2.21
2.47
5.85
6.01
2.93
-1.52
-4.69
-4.78
-1.81
2.34
5.15
4.94
1.89
-2.08
-4.54
-3.96
-0.70
3.30
5.62
4.83
1.38
-2.78
-5.23
-4.64
-1.45
2.33
4.37
3.39
-0.10
-3.99
-5.93
-4.67
-0.84
3.36
5.47
4.22
0.35
-3.91
-6.00
-4.70
-0.75
3.53
5.64
4.38
0.59
-3.40
-5.11
-3.40
0.83
5.22
7.24
5.73
1.51
-3.07
-5.48
-4.51
-0.89
3.12
5.15
4.16
0.97
-2.21
-3.24
-1.39
2.23
5.32
5.81
3.22
-1.08
-4.61
-5.32
-2.83
1.28
4.46
4.68
1.67
-2.90
-6.45
-6.95
-4.19
0.20
3.64
4.22
1.73
-2.22
-5.14
-5.25
-2.46
1.57
4.42
4.40
1.56
-2.39
-5.06
-4.88
-2.00
1.77
4.05
3.37
0.07
-3.90
-6.10
-5.10
-1.33
3.15
5.85
5.28
1.86
-2.33
-4.85
-4.28
-1.05
2.85
5.06
4.32
1.17
-2.43
-4.24
-3.17
0.06
3.40
4.69
2.98
-0.83
-4.57
-6.02
-4.30
-0.41
3.37
4.82
3.05
-0.88
-4.63
-5.93
-3.93
0.30
4.40
6.07
4.41
0.47
-3.49
-5.20
-3.79
-0.22
3.30
4.65
3.06
-0.44
-3.68
-4.63
-2.65
1.09
4.33
5.10
2.86
-1.08
-4.42
-5.18
-2.91
1.01
4.22
4.79
2.34
-1.66
-4.88
-5.41
-2.95
1.04
4.21
4.76
2.46
-1.20
-3.92
-3.96
-1.22
2.73
5.56
5.58
2.79
-1.16
-3.92
-3.83
-0.94
3.03
5.67
5.36
2.21
-1.96
-4.72
-4.47
-1.36
2.75
5.41
5.02
1.78
-2.39
-5.04
-4.62
-1.37
2.75
5.29
4.77
1.50
-2.54
-5.01
-4.51
-1.52
2.02
3.85
2.77
-0.55
-4.09
-5.57
-3.96
-0.11
3.76
5.30
3.46
-0.84
-5.25
-7.31
-5.88
-1.81
2.55
4.75
3.63
-0.01
-3.91
-5.68
-4.24
-0.42
3.52
5.29
3.90
0.21
-3.51
-5.03
-3.43
0.34
4.02
5.45
3.81
0.16
-3.26
-4.36
-2.49
1.17
4.32
4.95
2.59
-1.38
-4.61
-5.15
-2.67
1.29
4.31
4.50
1.70
-2.41
-5.37
-5.37
-2.37
1.88
4.89
4.94
2.06
-1.99
-4.77
-4.61
-1.60
2.51
5.31
5.19
2.28
-1.69
-4.31
-4.00
-0.94
3.08
5.63
5.17
1.93
-2.20
-4.72
-4.11
-0.68
3.53
5.97
5.10
1.29
-3.33
-6.16
-5.69
-2.30
1.87
4.31
3.62
0.33
-3.43
-5.28
-4.04
-0.46
3.28
4.89
3.41
-0.23
-3.80
-5.16
-3.50
0.10
3.44
4.48
2.58
-1.11
-4.38
-5.24
-3.13
0.82
4.40
5.66
4.00
0.50
-2.70
-3.68
-1.86
1.69
4.81
5.63
3.63
-0.02
-3.13
-3.85
-1.77
1.81
4.67
4.99
2.46
-1.46
-4.53
-5.01
-2.72
0.83
3.41
3.38
0.71
-3.02
-5.55
-5.32
-2.33
1.73
4.58
4.62
1.90
-1.98
-4.76
-4.85
-2.30
1.33
3.82
3.67
1.03
-2.45
-4.55
-3.83
-0.53
3.54
6.03
5.45
2.01
-2.37
-5.25
-5.04
-1.89
2.31
5.11
4.91
1.86
-2.21
-4.94
-4.83
-2.09
1.51
3.79
3.46
0.91
-2.09
-3.48
-2.20
1.10
4.46
5.79
4.12
0.28
-3.63
-5.41
-4.08
-0.49
3.19
4.79
3.36
-0.19
-3.70
-5.02
-3.36
0.28
3.66
4.74
2.86
-0.84
-4.06
-4.78
-2.49
1.50
4.80
5.40
2.86
-1.36
-4.76
-5.31
-2.63
1.73
5.23
5.79
3.08
-1.32
-4.86
-5.55
-3.08
0.96
4.15
4.57
2.04
-1.86
-4.78
-4.98
-2.39
1.33
3.86
3.59
0.60
-3.37
-5.98
-5.63
-2.49
1.72
4.62
4.66
1.98
-1.72
-4.18
-3.91
-1.10
2.57
4.93
4.60
1.84
-1.65
-3.72
-3.10
-0.13
3.38
5.26
4.31
1.01
-2.69
-4.57
-3.50
-0.15
3.40
4.88
3.26
-0.63
-4.57
-6.26
-4.71
-0.87
2.98
4.54
2.87
-1.08
-4.99
-6.57
-4.88
-0.84
3.31
5.33
4.26
1.00
-2.32
-3.61
-2.02
1.48
4.72
5.65
3.56
-0.41
-3.97
-5.01
-2.93
1.03
4.47
5.28
2.94
-1.17
-4.59
-5.22
-2.65
1.62
5.03
5.48
2.61
-1.98
-5.69
-6.43
-3.86
0.46
4.00
4.81
2.61
-1.06
-3.80
-3.86
-1.13
2.72
5.31
5.00
1.88
-2.22
-4.88
-4.49
-1.27
2.86
5.40
4.80
1.37
-2.89
-5.45
-4.85
-1.51
2.47
4.64
3.66
0.17
-3.67
-5.46
-4.01
-0.09
4.02
5.90
4.37
0.28
-4.07
-6.19
-4.92
-1.03
3.21
5.39
4.37
0.95
-2.62
-4.07
-2.43
1.33
4.87
5.92
3.71
-0.54
-4.34
-5.41
-3.06
1.31
5.07
5.95
3.31
-1.32
-5.33
-6.42
-4.05
0.32
4.13
5.22
3.08
-0.89
-4.24
-4.95
-2.70
1.07
3.93
4.04
1.24
-2.85
-5.72
-5.57
-2.39
2.03
5.12
5.04
1.85
-2.52
-5.46
-5.18
-1.79
2.72
5.75
5.57
2.32
-2.09
-5.11
-5.07
-2.16
1.79
4.35
4.02
1.09
-2.54
-4.54
-3.55
-0.06
3.88
5.91
4.74
0.98
-3.22
-5.45
-4.50
-1.03
2.76
4.55
3.28
-0.25
-3.80
-5.16
-3.37
0.58
4.43
5.94
4.26
0.41
-3.32
-4.72
-2.95
0.92
4.63
6.02
4.31
0.56
-2.99
-4.27
-2.58
0.93
4.04
4.75
2.54
-1.31
-4.47
-5.02
-2.62
1.29
4.30
4.51
1.67
-2.66
-5.98
-6.39
-3.62
0.71
4.12
4.70
2.20
-1.79
-4.86
-5.18
-2.59
1.34
4.23
4.41
1.82
-1.85
-4.29
-3.95
-1.00
2.74
4.93
4.14
0.71
-3.39
-5.75
-4.98
-1.48
2.72
5.18
4.51
1.18
-2.77
-4.94
-3.99
-0.50
3.48
5.58
4.59
1.16
-2.64
-4.50
-3.36
0.11
3.80
5.52
4.29
0.91
-2.58
-4.10
-2.79
0.46
3.62
4.74
3.09
-0.35
-3.56
-4.63
-2.99
0.34
3.29
4.01
1.99
-1.62
-4.71
-5.45
-3.36
0.32
3.40
4.01
1.74
-2.09
-5.19
-5.63
-3.09
1.04
4.35
4.92
2.47
-1.47
-4.49
-4.77
-2.14
1.77
4.58
4.64
1.93
-1.84
-4.37
-4.10
-1.17
2.68
5.10
4.60
1.39
-2.68
-5.22
-4.72
-1.46
2.61
5.04
4.34
0.90
-3.25
-5.60
-4.71
-1.08
3.18
5.58
4.77
1.34
-2.59
-4.60
-3.43
0.28
4.36
6.43
5.26
1.54
-2.55
-4.65
-3.60
-0.15
3.50
5.05
3.47
-0.33
-4.15
-5.76
-4.24
-0.55
3.13
4.68
3.32
0.04
-3.01
-3.88
-2.00
1.48
4.38
4.81
2.34
-1.68
-4.97
-5.62
-3.31
0.55
3.62
4.10
1.74
-1.99
-4.82
-5.05
-2.58
1.09
3.77
3.90
1.49
-1.89
-4.10
-3.69
-0.78
2.97
5.31
4.79
1.57
-2.61
-5.44
-5.40
-2.61
1.20
3.77
3.66
1.08
-2.25
-4.13
-3.27
-0.04
3.69
5.68
4.66
1.15
-2.82
-4.93
-3.90
-0.34
3.64
5.65
4.48
0.76
-3.32
-5.39
-4.24
-0.60
3.37
5.33
4.19
0.73
-2.93
-4.61
-3.38
-0.07
3.27
4.60
3.13
-0.19
-3.28
-4.20
-2.34
1.17
4.14
4.66
2.30
-1.56
-4.55
-4.75
-1.88
2.49
5.81
6.10
3.16
-1.31
-4.74
-5.20
-2.55
1.56
4.69
5.09
2.64
-1.10
-3.90
-4.15
-1.78
1.72
4.23
4.24
1.75
-1.75
-4.18
-4.09
-1.56
1.87
4.07
3.60
0.59
-3.34
-6.02
-6.05
-3.58
-0.28
1.79
1.41
-1.07
-3.96
-5.29
-4.06
-0.79
2.69
4.42
3.43
0.35
-3.01
-4.66
-3.66
-0.64
2.60
4.17
3.22
0.45
-2.34
-3.33
-1.80
1.46
4.54
5.62
4.00
0.58
-2.64
-3.80
-2.22
1.12
4.20
5.14
3.36
-0.08
-3.12
-3.90
-1.95
1.62
4.70
5.49
3.53
-0.00
-3.03
-3.82
-1.99
1.27
3.89
4.20
1.88
-1.76
-4.62
-5.00
-2.65
1.05
3.91
4.22
1.83
-1.77
-4.32
-4.21
-1.43
2.35
4.86
4.59
1.67
-2.18
-4.73
-4.55
-1.85
1.68
3.91
3.56
0.94
-2.22
-3.92
-3.02
-0.02
3.25
4.69
3.26
-0.41
-4.26
-6.07
-4.72
-0.97
3.01
4.92
3.66
0.06
-3.70
-5.40
-4.06
-0.63
2.76
4.03
2.45
-0.95
-4.02
-4.83
-2.86
0.78
3.97
4.84
2.91
-0.69
-3.92
-4.98
-3.41
-0.27
2.42
2.96
0.92
-2.53
-5.36
-5.84
-3.52
0.35
3.65
4.60
2.82
-0.45
-3.08
-3.42
-1.25
2.08
4.48
4.44
1.98
-1.36
-3.50
-3.06
-0.28
3.21
5.31
4.74
1.79
-1.81
-4.00
-3.52
-0.66
2.94
5.24
4.98
2.43
-0.80
-2.68
-2.03
0.88
4.33
6.26
5.49
2.46
-1.02
-2.80
-1.76
1.46
4.91
6.46
5.18
1.92
-1.24
-2.29
-0.47
3.21
6.65
7.94
6.47
3.23
0.17
-0.97
0.29
2.98
5.25
5.49
3.31
-0.24
-3.25
-4.08
-2.33
0.85
3.32
3.24
0.11
-4.90
-9.60
-11.99
-11.44
-8.90
-6.32
-5.38
-6.56
-8.87
-10.57
-10.26
-7.74
-4.18
-1.36
-0.61
-2.03
-4.45
-6.08
-5.61
-3.03
0.40
2.85
3.05
1.06
-1.72
-3.39
-2.71
0.14
3.67
5.96
5.78
3.35
0.20
-1.77
-1.38
1.09
4.11
5.82
5.12
2.40
-0.70
-2.28
-1.34
1.52
4.44
5.42
3.60
-0.14
-3.63
-4.73
-2.69
1.37
5.06
6.21
4.14
0.12
-3.45
-4.45
-2.30
1.67
5.13
6.03
3.87
-0.06
-3.47
-4.38
-2.35
1.35
4.43
4.99
2.64
-1.22
-4.29
-4.70
-2.21
1.69
4.64
4.85
2.24
-1.57
-4.22
-4.02
-1.01
3.12
6.00
6.02
3.31
-0.45
-2.96
-2.72
0.08
3.70
5.89
5.27
2.19
-1.47
-3.45
-2.45
1.01
4.95
7.08
6.21
2.98
-0.63
-2.40
-1.30
1.99
5.46
7.01
5.68
2.16
-1.60
-3.59
-2.90
-0.19
2.68
3.79
2.27
-1.20
-4.82
-6.68
-5.93
-3.24
-0.35
0.94
-0.15
-2.97
-5.84
-7.13
-6.19
-3.80
-1.62
-1.20
-3.05
-6.24
-9.07
-9.95
-8.43
-5.43
-2.71
-1.80
-3.11
-5.68
-7.72
-7.73
-5.32
-1.55
1.75
3.03
1.94
-0.45
-2.30
-2.14
0.33
3.97
6.95
7.81
6.36
3.74
1.75
1.70
3.63
6.35
8.14
7.88
5.74
3.12
1.76
2.63
5.27
7.96
8.74
6.60
2.14
-2.65
-5.55
-5.37
-2.59
0.83
2.63
1.63
-1.64
-5.21
-6.88
-5.57
-2.01
1.67
3.23
1.68
-2.03
-5.57
-6.65
-4.37
0.08
4.15
5.47
3.31
-0.98
-4.75
-5.71
-3.30
0.97
4.48
5.14
2.62
-1.42
-4.44
-4.47
-1.42
2.98
6.12
6.11
2.87
-1.77
-5.21
-5.50
-2.50
2.02
5.45
5.84
3.04
-1.22
-4.41
-4.70
-2.07
1.72
4.24
3.89
0.90
-2.83
-4.89
-3.89
-0.35
3.61
5.52
4.09
-0.03
-4.57
-6.97
-5.85
-1.85
2.80
5.49
4.80
1.23
-3.07
-5.58
-4.90
-1.57
2.35
4.51
3.70
0.57
-2.83
-4.32
-2.95
0.38
3.55
4.49
2.51
-1.25
-4.49
-5.14
-2.61
1.82
5.67
6.72
4.27
-0.42
-4.82
-6.60
-4.91
-0.93
2.92
4.38
2.73
-0.84
-3.97
-4.62
-2.31
1.56
4.63
5.01
2.46
-1.45
-4.34
-4.39
-1.54
2.52
5.34
5.17
1.99
-2.43
-5.60
-5.68
-2.65
1.70
4.81
4.88
1.95
-2.12
-4.74
-4.23
-0.82
3.43
5.90
5.04
1.32
-3.05
-5.45
-4.44
-0.68
3.52
5.62
4.37
0.52
-3.61
-5.59
-4.29
-0.50
3.51
5.44
4.24
0.75
-2.87
-4.41
-2.97
0.51
3.82
4.77
2.60
-1.62
-5.53
-6.86
-4.82
-0.59
3.40
4.91
3.21
-0.47
-3.71
-4.41
-2.05
1.98
5.24
5.76
3.23
-0.83
-3.94
-4.18
-1.40
2.77
5.78
5.75
2.55
-2.08
-5.60
-6.03
-3.21
1.19
4.60
5.08
2.44
-1.67
-4.74
-4.93
-2.14
1.90
4.67
4.42
1.25
-2.96
-5.64
-5.15
-1.79
2.37
4.73
3.82
0.15
-4.01
-6.08
-4.71
-0.69
3.60
5.61
4.17
0.21
-3.79
-5.42
-3.72
0.23
3.95
5.19
3.20
-0.82
-4.41
-5.40
-3.19
0.95
4.63
5.78
3.86
0.13
-3.14
-4.01
-2.02
1.59
4.60
5.20
2.97
-0.78
-3.87
-4.47
-2.26
1.42
4.33
4.64
2.04
-2.07
-5.34
-5.88
-3.32
0.89
4.33
5.01
2.58
-1.51
-4.75
-5.20
-2.54
1.62
4.73
4.90
2.00
-2.22
-5.13
-4.93
-1.68
2.66
5.42
4.88
1.28
-3.25
-6.02
-5.37
-1.68
2.92
5.82
5.46
2.23
-1.84
-4.32
-3.85
-0.90
2.61
4.46
3.53
0.44
-2.86
-4.24
-2.78
0.74
4.22
5.50
3.65
-0.40
-4.41
-6.08
-4.42
-0.41
3.59
5.19
3.44
-0.63
-4.54
-5.88
-3.73
0.72
4.85
6.25
4.12
-0.24
-4.13
-5.21
-2.82
1.56
5.26
6.01
3.33
-1.20
-4.95
-5.71
-3.12
1.27
4.84
5.48
2.83
-1.50
-4.97
-5.50
-2.77
1.65
5.15
5.65
2.76
-1.92
-5.78
-6.67
-4.14
0.29
4.12
5.33
3.65
0.53
-1.73
-1.57
0.91
4.05
5.73
4.81
1.87
-1.09
-1.99
0.00
3.84
7.32
8.45
6.76
3.67
1.62
2.48
6.32
11.24
14.39
13.78
9.52
4.02
0.64
1.84
7.69
15.58
21.59
22.50
17.51
8.67
-0.10
-4.93
-3.74
2.96
12.51
21.23
25.64
23.47
14.13
-1.09
-19.19
-36.17
-47.98
-51.84
-47.09
-35.46
-20.30
-5.39
6.27
13.05
14.70
11.96
6.24
-0.65
-6.76
-10.46
-10.98
-8.85
-5.64
-3.14
-2.42
-3.41
-4.96
-5.82
-5.48
-4.46
-3.89
-4.52
-6.12
-7.44
-7.05
-4.40
-0.36
3.12
4.12
1.98
-2.17
-5.93
-6.98
-4.50
0.34
4.91
6.68
4.63
-0.09
-4.80
-6.87
-5.14
-0.63
4.09
6.42
5.23
1.44
-2.56
-4.34
-2.87
0.89
4.61
6.03
4.26
0.36
-3.36
-4.67
-2.79
1.16
4.82
5.99
3.97
-0.05
-3.67
-4.74
-2.63
1.35
4.76
5.46
2.93
-1.42
-5.07
-5.88
-3.37
0.97
4.57
5.30
2.77
-1.47
-4.84
-5.29
-2.51
1.88
5.28
5.70
2.87
-1.53
-4.94
-5.43
-2.81
1.24
4.28
4.53
2.00
-1.62
-3.93
-3.38
-0.15
3.87
6.23
5.37
1.55
-3.24
-6.41
-6.27
-2.98
1.52
4.66
4.70
1.76
-2.29
-4.96
-4.62
-1.49
2.47
4.72
3.75
-0.07
-4.58
-7.19
-6.34
-2.55
1.96
4.50
3.62
-0.08
-4.26
-6.24
-4.66
-0.35
4.20
6.30
4.73
0.49
-3.80
-5.51
-3.58
0.79
4.94
6.36
4.22
-0.16
-4.09
-5.21
-2.88
1.49
5.27
6.23
3.85
-0.42
-4.04
-4.89
-2.53
1.57
4.92
5.44
2.73
-1.71
-5.37
-6.17
-3.70
0.51
3.91
4.50
1.99
-2.01
-4.92
-4.82
-1.59
2.92
6.04
5.88
2.48
-2.17
-5.32
-5.13
-1.82
2.57
5.37
4.93
1.59
-2.50
-4.84
-3.96
-0.41
3.67
5.81
4.69
0.94
-3.28
-5.50
-4.42
-0.62
3.78
6.31
5.63
2.24
-1.83
-4.18
-3.48
-0.20
3.63
5.64
4.54
0.89
-3.23
-5.44
-4.49
-1.06
2.68
4.29
2.60
-1.60
-5.94
-7.90
-6.28
-1.98
2.54
4.70
3.37
-0.47
-4.31
-5.64
-3.45
1.07
5.28
6.63
4.21
-0.69
-5.31
-7.05
-5.01
-0.53
3.66
5.05
2.89
-1.43
-5.24
-6.22
-3.80
0.52
4.08
4.77
2.26
-1.79
-4.78
-4.74
-1.59
2.85
5.96
5.89
2.71
-1.67
-4.62
-4.37
-1.08
3.21
5.83
5.10
1.36
-3.21
-5.83
-4.86
-0.73
4.24
7.19
6.47
2.58
-2.14
-4.92
-4.22
-0.64
3.47
5.44
3.94
-0.19
-4.54
-6.46
-4.80
-0.54
3.76
5.52
3.71
-0.52
-4.53
-5.77
-3.38
1.33
5.59
6.83
4.28
-0.62
-5.02
-6.38
-3.97
0.74
4.90
6.06
3.61
-0.81
-4.33
-4.52
-0.90
4.70
9.14
9.70
5.69
-1.16
-7.64
-10.78
-9.49
-5.02
-0.13
2.50
1.86
-0.98
-3.63
-3.98
-1.51
2.35
5.12
4.84
1.34
-3.56
-7.11
-7.20
-3.67
1.60
5.74
6.59
3.90
-0.54
-4.02
-4.45
-1.68
2.51
5.54
5.55
2.53
-1.69
-4.61
-4.49
-1.50
2.52
5.09
4.65
1.49
-2.45
-4.70
-3.77
-0.08
4.31
6.87
6.14
2.52
-1.92
-4.70
-4.36
-1.36
2.32
4.30
3.33
-0.01
-3.68
-5.43
-4.15
-0.58
3.16
4.82
3.35
-0.43
-4.30
-5.98
-4.42
-0.50
3.51
5.29
3.83
0.03
-3.81
-5.36
-3.64
0.38
4.37
6.03
4.44
0.66
-2.96
-4.19
-2.24
1.75
5.35
6.35
4.05
-0.34
-4.33
-5.69
-3.73
0.32
4.00
5.07
2.86
-1.37
-5.11
-6.12
-3.78
0.57
4.32
5.22
2.66
-1.86
-5.66
-6.40
-3.59
1.15
5.01
5.65
2.62
-2.35
-6.38
-7.16
-4.29
0.48
4.32
5.03
2.33
-1.99
-5.21
-5.28
-2.14
2.30
5.30
5.01
1.60
-2.79
-5.37
-4.41
-0.39
4.33
6.84
5.56
1.14
-3.84
-6.45
-5.16
-0.80
3.99
6.32
4.82
0.46
-4.05
-5.93
-3.99
0.66
5.25
7.07
5.07
0.47
-3.96
-5.60
-3.56
0.85
4.87
6.02
3.55
-1.10
-5.17
-6.27
-3.77
0.81
4.78
5.81
3.39
-0.97
-4.66
-5.51
-3.12
0.95
4.15
4.51
1.75
-2.46
-5.58
-5.71
-2.68
1.82
5.23
5.68
3.03
-1.07
-4.14
-4.38
-1.72
2.13
4.79
4.59
1.60
-2.40
-4.99
-4.54
-1.23
3.06
5.82
5.44
2.11
-2.26
-5.11
-4.82
-1.58
2.66
5.37
4.92
1.57
-2.73
-5.44
-5.00
-1.74
2.33
4.72
3.97
0.51
-3.57
-5.80
-4.80
-1.12
3.09
5.36
4.41
0.89
-3.02
-4.95
-3.70
-0.09
3.69
5.32
3.80
0.04
-3.68
-5.12
-3.38
0.49
4.16
5.38
3.38
-0.66
-4.34
-5.39
-3.13
1.15
4.92
5.91
3.48
-0.93
-4.69
-5.50
-2.80
1.89
5.83
6.64
3.75
-1.29
-5.69
-7.05
-4.71
-0.15
3.92
5.16
2.94
-1.29
-4.92
-5.71
-3.20
1.12
4.64
5.22
2.47
-2.00
-5.56
-6.11
-3.34
1.07
4.51
4.99
2.31
-1.78
-4.71
-4.58
-1.37
3.03
5.99
5.68
2.16
-2.60
-5.90
-5.89
-2.69
1.73
4.75
4.66
1.72
-2.10
-4.27
-3.31
0.32
4.46
6.60
5.41
1.58
-2.62
-4.69
-3.47
0.19
3.89
5.17
3.05
-1.35
-5.47
-6.85
-4.59
0.06
4.42
6.00
3.96
-0.36
-4.31
-5.44
-3.03
1.50
5.46
6.44
3.80
-0.97
-5.11
-6.22
-3.70
0.93
4.89
5.77
3.00
-1.80
-5.81
-6.61
-3.69
1.29
5.42
6.26
3.29
-1.78
-6.04
-7.07
-4.36
0.41
4.36
5.15
2.33
-2.31
-5.93
-6.22
-2.87
2.28
6.30
6.87
3.69
-1.36
-5.37
-6.02
-3.03
1.79
5.55
6.07
3.11
-1.48
-4.90
-5.07
-1.88
2.76
6.07
6.03
2.59
-2.30
-5.84
-6.05
-2.96
1.52
4.71
4.76
1.73
-2.48
-5.33
-5.14
-2.08
1.96
4.59
4.35
1.57
-1.86
-3.68
-2.66
0.60
4.06
5.47
3.77
-0.20
-4.18
-5.82
-4.10
0.00
4.05
5.64
3.80
-0.39
-4.45
-5.95
-4.00
0.27
4.35
5.85
3.87
-0.47
-4.70
-6.48
-4.93
-1.11
2.59
3.94
2.14
-1.63
-4.99
-5.74
-3.21
1.29
5.27
6.50
4.35
0.14
-3.62
-4.74
-2.64
1.36
4.84
5.75
3.62
-0.19
-3.37
-4.03
-1.86
1.69
4.34
4.35
1.65
-2.17
-4.75
-4.40
-1.20
3.02
5.78
5.38
1.99
-2.46
-5.38
-5.04
-1.63
2.89
5.86
5.54
2.09
-2.54
-5.76
-5.87
-3.00
0.96
3.59
3.36
0.56
-2.94
-4.80
-3.72
-0.21
3.67
5.53
4.19
0.38
-3.61
-5.33
-3.58
0.77
5.30
7.39
5.75
1.17
-3.92
-6.86
-6.23
-2.66
1.65
4.22
3.81
0.99
-2.18
-3.52
-2.08
1.29
4.41
5.12
2.69
-1.68
-5.52
-6.52
-3.98
0.74
4.95
6.20
3.68
-1.26
-5.90
-7.72
-5.82
-1.45
2.84
4.73
3.46
0.24
-2.60
-3.07
-0.76
2.91
5.54
5.29
2.03
-2.48
-5.65
-5.59
-2.28
2.38
5.67
5.65
2.33
-2.35
-5.61
-5.51
-2.09
2.68
6.04
6.08
2.84
-1.75
-5.01
-5.11
-2.15
1.93
4.53
3.99
0.59
-3.61
-5.99
-4.96
-1.00
3.64
6.25
5.33
1.40
-3.18
-5.71
-4.72
-0.84
3.60
5.98
4.97
1.33
-2.64
-4.43
-2.96
0.85
4.59
5.87
3.83
-0.36
-4.19
-5.27
-2.87
1.67
5.64
6.63
3.96
-0.89
-5.14
-6.35
-3.86
0.77
4.68
5.42
2.40
-2.72
-7.01
-7.97
-5.04
0.13
4.57
5.76
3.10
-1.81
-6.08
-7.25
-4.66
0.18
4.52
6.03
4.10
0.17
-3.18
-3.84
-1.41
2.51
5.40
5.30
2.11
-2.37
-5.48
-5.30
-1.86
2.87
6.15
6.07
2.71
-1.95
-5.20
-5.19
-2.02
2.33
5.19
4.83
1.49
-2.80
-5.44
-4.80
-1.22
3.16
5.66
4.66
0.61
-4.25
-7.17
-6.49
-2.63
2.17
5.14
4.63
1.09
-3.22
-5.64
-4.63
-0.75
3.68
6.03
4.89
0.95
-3.44
-5.68
-4.50
-0.66
3.50
5.47
4.10
0.30
-3.57
-5.10
-3.32
0.69
4.46
5.66
3.48
-0.80
-4.60
-5.58
-3.09
1.42
5.22
5.96
3.07
-1.83
-5.90
-6.73
-3.79
1.26
5.50
6.46
3.55
-1.59
-6.03
-7.30
-4.77
0.01
4.28
5.69
3.69
-0.24
-3.53
-4.14
-1.73
2.11
4.95
4.98
2.18
-1.62
-3.93
-3.11
0.57
4.99
7.45
6.25
1.79
-3.63
-7.08
-6.72
-2.81
2.40
5.97
5.98
2.51
-2.38
-5.92
-6.22
-3.32
0.88
3.81
3.83
1.13
-2.38
-4.27
-3.16
0.43
4.31
6.00
4.30
0.11
-4.06
-5.61
-3.46
1.27
5.86
7.60
5.35
0.23
-5.05
-7.75
-6.68
-2.80
1.42
3.54
2.52
-0.66
-3.73
-4.52
-2.33
1.66
5.06
5.71
3.06
-1.51
-5.41
-6.36
-3.78
0.87
4.93
6.07
3.69
-0.78
-4.70
-5.84
-3.62
0.49
3.91
4.57
2.15
-1.71
-4.44
-4.09
-0.63
4.04
7.17
6.78
2.88
-2.51
-6.54
-7.12
-4.15
0.48
4.07
4.71
2.39
-1.10
-3.28
-2.58
0.72
4.59
6.51
5.04
0.73
-4.10
-6.78
-5.80
-1.77
2.95
5.65
4.79
0.94
-3.63
-6.33
-5.71
-2.33
1.65
3.82
2.99
-0.14
-3.41
-4.49
-2.40
1.95
6.16
7.73
5.60
0.78
-4.14
-6.51
-5.12
-0.94
3.45
5.43
3.82
-0.35
-4.51
-6.14
-4.24
0.01
4.05
5.47
3.52
-0.49
-4.00
-4.78
-2.33
1.84
5.10
5.29
2.09
-2.77
-6.51
-6.94
-3.77
1.24
5.26
6.08
3.38
-1.15
-4.76
-5.37
-2.73
1.46
4.61
4.85
2.11
-1.82
-4.44
-4.05
-0.79
3.37
5.88
5.11
1.39
-3.15
-5.86
-5.09
-1.26
3.44
6.27
5.57
1.70
-3.16
-6.29
-6.04
-2.73
1.56
4.30
4.01
1.13
-2.32
-3.97
-2.61
1.14
5.07
6.74
4.98
0.57
-4.06
-6.36
-5.04
-0.91
3.62
5.90
4.63
0.55
-3.97
-6.36
-5.37
-1.76
2.18
4.13
3.11
0.04
-2.83
-3.43
-1.12
2.81
5.94
6.18
3.06
-1.94
-6.18
-7.44
-5.14
-0.69
3.36
4.83
3.14
-0.43
-3.53
-4.21
-2.05
1.56
4.31
4.39
1.63
-2.35
-5.11
-4.85
-1.52
3.11
6.46
6.60
3.38
-1.45
-5.26
-6.07
-3.68
0.26
3.29
3.59
1.15
-2.27
-4.26
-3.25
0.48
4.88
7.33
6.23
1.97
-3.22
-6.59
-6.43
-3.16
1.07
3.65
3.12
0.03
-3.45
-4.87
-3.01
1.32
5.75
7.77
6.15
1.68
-3.26
-6.10
-5.54
-2.29
1.45
3.28
2.08
-1.30
-4.60
-5.50
-3.13
1.40
5.53
6.90
4.71
0.30
-3.68
-4.87
-2.57
1.79
5.55
6.39
3.71
-1.03
-5.21
-6.57
-4.53
-0.50
2.96
3.72
1.33
-2.69
-5.80
-5.96
-2.92
1.59
4.94
5.15
2.16
-2.17
-5.17
-4.98
-1.67
2.87
6.01
6.04
3.07
-1.06
-3.85
-3.67
-0.61
3.56
6.45
6.44
3.56
-0.54
-3.55
-3.83
-1.39
2.18
4.55
4.11
0.89
-3.34
-6.16
-5.84
-2.56
1.71
4.35
3.65
0.01
-4.35
-6.65
-5.34
-1.07
3.64
5.95
4.49
0.17
-4.35
-6.28
-4.44
0.11
4.69
6.66
4.98
0.73
-3.50
-5.24
-3.52
0.60
4.66
6.25
4.42
0.22
-3.90
-5.57
-3.81
0.31
4.31
5.77
3.74
-0.62
-4.76
-6.26
-4.28
-0.10
3.65
4.54
1.89
-2.80
-6.81
-7.70
-4.95
-0.18
3.80
4.71
2.20
-1.99
-5.05
-4.93
-1.55
3.18
6.46
6.46
3.32
-0.97
-3.71
-3.29
0.03
4.19
6.65
5.86
2.19
-2.34
-5.15
-4.67
-1.14
3.41
6.38
6.01
2.43
-2.42
-5.93
-6.22
-3.38
0.67
3.31
2.81
-0.56
-4.69
-6.92
-5.73
-1.68
2.90
5.32
4.26
0.55
-3.34
-4.82
-2.82
1.62
5.91
7.53
5.52
1.02
-3.43
-5.39
-3.89
0.00
3.86
5.32
3.43
-0.76
-4.85
-6.50
-4.79
-0.82
2.95
4.17
2.05
-2.13
-5.79
-6.60
-3.91
0.82
4.96
6.27
4.20
0.25
-3.00
-3.44
-0.68
3.74
7.25
7.73
4.80
-0.01
-4.13
-5.43
-3.47
0.29
3.34
3.72
1.14
-2.73
-5.42
-5.05
-1.63
2.94
5.98
5.59
1.84
-3.28
-6.95
-7.25
-4.18
0.37
3.75
4.16
1.67
-1.89
-4.12
-3.46
-0.24
3.55
5.45
4.08
0.05
-4.39
-6.61
-5.23
-0.94
3.87
6.52
5.65
1.97
-2.12
-4.11
-2.76
1.04
4.89
6.28
4.18
-0.37
-4.89
-6.86
-5.30
-1.26
2.79
4.47
2.93
-0.75
-4.11
-4.94
-2.50
1.89
5.75
6.78
4.27
-0.44
-4.84
-6.55
-4.81
-0.81
2.98
4.32
2.50
-1.23
-4.41
-4.92
-2.23
2.18
5.75
6.36
3.68
-0.67
-4.06
-4.48
-1.73
2.45
5.44
5.30
1.94
-2.80
-6.28
-6.57
-3.60
0.80
3.97
4.04
1.03
-3.16
-5.90
-5.37
-1.70
3.13
6.48
6.61
3.70
-0.32
-2.99
-2.76
0.03
3.46
5.18
3.89
0.11
-4.11
-6.33
-5.26
-1.48
2.83
5.17
4.20
0.55
-3.55
-5.61
-4.33
-0.42
3.87
6.07
4.95
1.22
-2.91
-5.08
-4.15
-0.89
2.56
3.95
2.32
-1.41
-5.02
-6.28
-4.34
-0.24
3.66
5.13
3.42
-0.33
-3.71
-4.56
-2.25
1.96
5.61
6.55
4.17
-0.23
-4.20
-5.56
-3.67
0.21
3.66
4.56
2.37
-1.58
-4.78
-5.21
-2.44
1.97
5.43
5.85
2.91
-1.72
-5.39
-5.99
-3.25
1.14
4.53
4.89
2.06
-2.24
-5.33
-5.32
-2.12
2.41
5.66
5.81
2.94
-1.06
-3.68
-3.25
-0.07
3.86
6.02
4.85
0.76
-4.20
-7.39
-7.23
-4.00
0.32
3.26
3.30
0.75
-2.44
-4.00
-2.63
1.06
4.94
6.61
4.87
0.53
-4.10
-6.45
-5.32
-1.48
2.73
4.85
3.74
0.25
-3.32
-4.66
-2.78
1.31
5.26
6.73
4.86
0.74
-3.20
-4.65
-2.83
1.11
4.75
5.83
3.64
-0.61
-4.48
-5.74
-3.75
0.19
3.65
4.49
2.27
-1.56
-4.53
-4.62
-1.57
2.98
6.45
6.77
3.66
-1.24
-5.33
-6.47
-4.29
-0.32
2.98
3.63
1.38
-2.25
-4.82
-4.58
-1.46
2.79
5.62
5.21
1.62
-3.20
-6.55
-6.49
-3.09
1.66
4.99
5.02
1.89
-2.37
-5.02
-4.31
-0.46
4.36
7.40
6.88
3.04
-1.97
-5.44
-5.60
-2.72
1.17
3.47
2.65
-0.85
-4.87
-6.81
-5.27
-0.91
3.90
6.49
5.51
1.71
-2.49
-4.47
-3.01
1.00
5.10
6.74
4.80
0.23
-4.49
-6.83
-5.64
-1.83
2.17
3.90
2.27
-1.72
-5.62
-6.98
-4.84
-0.38
3.82
5.31
3.38
-0.60
-3.99
-4.51
-1.74
2.71
6.11
6.38
3.33
-1.24
-4.62
-4.81
-1.69
2.92
6.40
6.80
3.97
-0.43
-3.86
-4.44
-1.91
2.19
5.42
5.86
3.18
-1.14
-4.69
-5.51
-3.21
0.75
3.92
4.28
1.48
-2.90
-6.29
-6.58
-3.46
1.37
5.15
5.70
2.73
-1.96
-5.57
-5.91
-2.80
1.83
5.14
5.11
1.78
-2.71
-5.50
-4.76
-0.88
3.76
6.29
5.09
0.88
-3.77
-6.01
-4.50
-0.17
4.31
6.22
4.43
0.06
-4.25
-5.91
-3.93
0.57
5.00
6.88
5.20
0.95
-3.43
-5.56
-4.35
-0.67
3.18
4.82
3.16
-0.93
-5.12
-6.97
-5.33
-1.14
3.10
4.84
3.01
-1.30
-5.46
-6.86
-4.63
-0.10
4.00
5.19
2.90
-1.26
-4.49
-4.55
-1.21
3.63
7.09
7.08
3.58
-1.43
-5.07
-5.34
-2.19
2.45
5.86
6.12
3.13
-1.36
-4.76
-5.18
-2.42
1.87
5.21
5.65
2.94
-1.34
-4.74
-5.29
-2.78
1.18
4.09
4.05
1.01
-3.21
-5.99
-5.55
-2.04
2.49
5.37
4.91
1.53
-2.63
-4.89
-3.80
0.11
4.58
7.03
6.08
2.32
-2.02
-4.48
-3.74
-0.37
3.50
5.49
4.31
0.53
-3.73
-6.05
-5.10
-1.42
2.82
5.12
4.09
0.35
-3.82
-5.88
-4.50
-0.48
3.75
5.55
3.75
-0.64
-4.99
-6.66
-4.60
-0.05
4.25
5.66
3.31
-1.42
-5.68
-6.94
-4.48
0.17
4.20
5.21
2.68
-1.75
-5.31
-5.76
-2.82
1.72
5.08
5.18
1.93
-2.72
-5.98
-5.90
-2.57
1.98
4.98
4.64
1.22
-3.13
-5.68
-4.75
-0.74
4.15
7.15
6.62
2.92
-1.77
-4.79
-4.52
-1.28
2.90
5.47
4.89
1.49
-2.72
-5.27
-4.65
-1.24
2.95
5.47
4.83
1.45
-2.61
-4.92
-4.04
-0.43
3.80
6.15
5.20
1.42
-3.06
-5.69
-4.99
-1.40
3.01
5.70
5.13
1.69
-2.62
-5.27
-4.74
-1.37
2.86
5.49
5.02
1.81
-2.19
-4.59
-3.97
-0.79
2.98
5.03
4.13
0.87
-2.69
-4.31
-2.96
0.58
4.16
5.60
4.01
0.38
-3.07
-4.23
-2.40
1.27
4.47
5.15
2.78
-1.25
-4.53
-5.01
-2.29
2.08
5.51
5.89
2.88
-1.84
-5.55
-6.09
-3.13
1.54
5.11
5.34
1.97
-3.14
-7.07
-7.56
-4.30
0.80
4.80
5.36
2.18
-2.89
-6.89
-7.52
-4.46
0.49
4.42
5.07
2.12
-2.62
-6.26
-6.57
-3.25
1.88
5.93
6.64
3.70
-1.08
-4.86
-5.42
-2.50
2.09
5.54
5.75
2.55
-2.21
-5.81
-6.30
-3.70
0.14
2.69
2.31
-0.65
-4.16
-5.74
-4.06
0.21
4.78
7.12
5.99
2.21
-1.88
-3.80
-2.43
1.33
5.17
6.75
5.09
1.19
-2.68
-4.30
-2.85
0.60
3.82
4.74
2.73
-1.02
-4.21
-4.83
-2.40
1.77
5.26
6.02
3.56
-0.78
-4.54
-5.60
-3.37
0.88
4.69
5.88
3.74
-0.53
-4.51
-5.92
-3.96
0.19
4.04
5.22
2.89
-1.67
-5.83
-7.11
-4.73
-0.07
4.14
5.45
3.26
-0.92
-4.35
-4.81
-1.89
2.75
6.39
6.89
3.92
-0.84
-4.77
-5.73
-3.38
0.73
4.03
4.48
1.78
-2.45
-5.56
-5.58
-2.29
2.47
5.92
5.99
2.55
-2.44
-6.14
-6.41
-3.22
1.48
4.86
4.94
1.74
-2.75
-5.78
-5.59
-2.35
1.88
4.48
3.85
0.43
-3.57
-5.55
-4.04
0.30
5.11
7.65
6.42
2.03
-3.15
-6.33
-5.92
-2.41
1.89
4.30
3.30
-0.53
-4.84
-6.94
-5.46
-1.15
3.51
5.90
4.79
1.15
-2.53
-3.76
-1.63
2.69
6.63
7.79
5.34
0.52
-4.08
-6.05
-4.51
-0.61
3.16
4.47
2.49
-1.58
-5.23
-6.17
-3.73
0.71
4.52
5.45
3.01
-1.25
-4.64
-5.00
-2.00
2.72
6.49
7.23
4.64
0.29
-3.29
-4.14
-1.89
2.01
5.20
5.79
3.36
-0.76
-4.26
-5.18
-3.04
0.85
4.16
4.86
2.47
-1.63
-5.03
-5.67
-3.17
0.90
3.99
4.02
0.79
-3.88
-7.20
-7.05
-3.35
1.88
5.64
5.77
2.20
-2.93
-6.56
-6.54
-2.88
2.22
5.73
5.58
1.94
-2.93
-6.06
-5.57
-1.83
2.83
5.53
4.62
0.74
-3.59
-5.54
-3.69
1.04
5.87
7.88
5.77
0.62
-4.66
-7.10
-5.40
-0.69
4.18
6.35
4.63
0.20
-4.13
-5.66
-3.38
1.35
5.70
6.99
4.38
-0.65
-5.15
-6.48
-3.81
1.28
5.80
7.10
4.39
-0.78
-5.41
-6.90
-4.44
0.40
4.70
5.88
3.23
-1.71
-6.00
-7.11
-4.34
0.66
4.95
5.98
3.14
-1.85
-5.98
-6.74
-3.61
1.59
5.78
6.53
3.42
-1.62
-5.58
-6.09
-2.90
2.00
5.60
5.66
2.08
-3.03
-6.62
-6.57
-2.90
2.15
5.52
5.18
1.34
-3.62
-6.63
-5.74
-1.35
4.01
7.20
6.33
1.93
-3.45
-6.70
-6.01
-1.93
3.05
5.99
5.30
1.61
-2.64
-4.75
-3.37
0.64
4.82
6.57
4.76
0.41
-3.92
-5.65
-3.77
0.64
4.99
6.76
5.00
0.83
-3.22
-4.76
-2.87
1.28
5.20
6.56
4.50
0.19
-3.89
-5.42
-3.52
0.65
4.63
6.03
3.94
-0.55
-4.91
-6.70
-4.97
-0.82
3.18
4.55
2.38
-2.13
-6.29
-7.55
-5.05
-0.13
4.39
5.89
3.51
-1.31
-5.66
-6.94
-4.38
0.47
4.71
5.84
3.25
-1.39
-5.19
-5.76
-2.76
1.99
5.56
5.76
2.47
-2.30
-5.65
-5.54
-2.07
2.62
5.66
5.24
1.65
-2.87
-5.55
-4.76
-0.98
3.52
6.06
5.21
1.58
-2.57
-4.72
-3.59
0.11
4.16
6.14
4.85
1.01
-3.17
-5.31
-4.19
-0.45
3.81
6.20
5.45
2.06
-2.00
-4.39
-3.77
-0.56
3.28
5.39
4.37
0.66
-3.74
-6.33
-5.60
-1.95
2.50
5.13
4.37
0.71
-3.59
-5.86
-4.61
-0.59
3.73
5.59
3.68
-0.95
-5.54
-7.29
-5.04
-0.09
4.64
6.38
4.16
-0.59
-4.92
-6.21
-3.68
1.13
5.29
6.33
3.65
-1.10
-5.00
-5.70
-2.70
2.23
6.20
6.92
4.00
-0.77
-4.56
-5.20
-2.44
1.86
4.94
4.77
1.33
-3.39
-6.59
-6.36
-2.82
1.93
5.05
4.64
0.88
-4.06
-7.28
-6.87
-2.97
2.26
5.88
5.91
2.39
-2.59
-6.12
-6.18
-2.73
2.20
5.77
5.92
2.63
-2.16
-5.63
-5.77
-2.52
2.21
5.69
5.99
3.08
-1.16
-4.15
-4.10
-1.17
2.76
5.23
4.77
1.81
-1.61
-3.09
-1.49
2.38
6.12
7.27
4.78
-0.25
-5.15
-7.24
-5.42
-0.78
3.95
6.02
4.22
-0.43
-5.31
-7.70
-6.36
-2.18
2.38
4.74
3.70
0.12
-3.72
-5.45
-4.05
-0.43
3.22
4.71
3.25
-0.11
-3.14
-3.81
-1.51
2.47
5.76
6.35
3.79
-0.46
-3.88
-4.42
-1.72
2.61
5.93
6.14
2.97
-1.85
-5.57
-6.05
-3.00
1.80
5.57
6.09
3.06
-1.81
-5.75
-6.58
-3.91
0.57
4.20
4.87
2.31
-1.81
-4.87
-4.91
-1.82
2.58
5.61
5.34
1.79
-3.08
-6.47
-6.49
-3.18
1.42
4.54
4.31
0.84
-3.79
-6.80
-6.36
-2.64
2.31
5.70
5.72
2.47
-2.07
-5.21
-5.19
-2.09
2.16
5.00
4.72
1.48
-2.81
-5.58
-5.14
-1.69
2.86
5.91
5.82
2.78
-1.29
-3.88
-3.45
-0.28
3.64
5.89
5.03
1.47
-2.72
-5.12
-4.34
-0.92
3.04
5.10
3.97
0.27
-3.82
-5.90
-4.80
-1.27
2.45
4.03
2.48
-1.24
-4.81
-5.90
-3.70
0.65
4.62
5.90
3.72
-0.60
-4.44
-5.46
-3.01
1.45
5.19
5.90
3.05
-1.73
-5.62
-6.36
-3.60
0.90
4.33
4.59
1.60
-2.71
-5.57
-5.11
-1.58
2.86
5.46
4.57
0.72
-3.71
-5.94
-4.48
-0.06
4.81
7.36
6.21
2.19
-2.21
-4.30
-2.87
1.17
5.36
7.13
5.36
1.01
-3.46
-5.51
-4.04
0.06
4.35
6.31
4.77
0.61
-3.77
-5.84
-4.39
-0.26
4.13
6.24
4.82
0.72
-3.64
-5.71
-4.27
-0.19
4.07
5.95
4.22
-0.17
-4.73
-6.83
-5.29
-1.10
3.21
4.99
3.12
-1.30
-5.66
-7.35
-5.40
-1.03
3.09
4.45
2.34
-1.84
-5.37
-5.95
-3.15
1.42
5.02
5.55
2.78
-1.49
-4.57
-4.55
-1.34
3.21
6.47
6.60
3.58
-0.80
-4.01
-4.26
-1.46
2.68
5.71
5.81
2.81
-1.64
-5.09
-5.61
-2.97
1.24
4.55
4.96
2.24
-1.98
-5.15
-5.29
-2.25
2.15
5.23
5.03
1.56
-3.17
-6.34
-6.04
-2.45
2.26
5.21
4.61
0.79
-3.92
-6.66
-5.81
-1.89
2.73
5.30
4.42
0.84
-3.06
-4.72
-3.05
1.00
4.98
6.48
4.62
0.51
-3.35
-4.66
-2.63
1.56
5.43
6.71
4.59
0.18
-4.09
-5.90
-4.31
-0.33
3.69
5.37
3.65
-0.55
-4.90
-6.97
-5.65
-1.86
2.07
3.71
2.06
-1.84
-5.51
-6.57
-4.21
0.23
4.13
5.11
2.60
-1.83
-5.42
-5.89
-2.86
1.93
5.65
6.13
3.13
-1.52
-5.06
-5.45
-2.57
1.76
4.91
5.06
2.24
-1.71
-4.27
-3.80
-0.53
3.62
6.16
5.59
2.23
-1.93
-4.45
-3.87
-0.60
3.37
5.66
4.89
1.52
-2.45
-4.68
-3.85
-0.45
3.55
5.81
5.00
1.61
-2.41
-4.73
-3.97
-0.55
3.61
6.16
5.68
2.46
-1.65
-4.35
-4.17
-1.34
2.38
4.70
4.21
1.19
-2.56
-4.70
-3.84
-0.34
3.82
6.20
5.30
1.54
-3.02
-5.83
-5.36
-2.02
2.11
4.47
3.61
0.01
-4.19
-6.47
-5.45
-1.69
2.61
4.95
4.02
0.47
-3.50
-5.40
-4.03
-0.14
3.94
5.74
4.16
0.11
-3.96
-5.57
-3.69
0.58
4.66
6.03
3.80
-0.80
-5.04
-6.43
-4.18
0.32
4.27
5.22
2.52
-2.28
-6.36
-7.37
-4.78
-0.22
3.52
4.22
1.53
-2.83
-6.08
-6.19
-2.95
1.77
5.18
5.23
1.86
-3.03
-6.56
-6.67
-3.25
1.78
5.54
5.91
2.72
-2.17
-5.91
-6.39
-3.39
1.31
4.99
5.64
3.09
-0.94
-3.86
-3.87
-0.97
3.07
5.80
5.61
2.67
-1.18
-3.59
-3.13
-0.18
3.38
5.31
4.40
1.23
-2.25
-3.88
-2.68
0.60
3.90
5.16
3.59
0.15
-3.00
-3.86
-1.83
1.89
4.99
5.46
2.84
-1.46
-4.96
-5.58
-2.85
1.70
5.46
6.23
3.52
-1.18
-5.20
-6.29
-3.88
0.54
4.35
5.31
2.86
-1.56
-5.39
-6.44
-4.23
-0.16
3.31
4.18
2.14
-1.30
-3.77
-3.51
-0.53
3.38
5.74
4.95
1.29
-3.18
-5.78
-4.89
-0.91
3.87
6.60
5.54
1.08
-4.46
-8.14
-8.04
-4.36
0.81
4.62
5.16
2.43
-1.73
-4.83
-5.15
-2.81
0.46
2.47
1.89
-0.85
-3.87
-5.03
-3.28
0.63
4.51
6.13
4.51
0.60
-3.27
-4.73
-2.84
1.42
5.62
7.31
5.47
1.06
-3.54
-5.82
-4.68
-0.95
3.11
5.19
4.27
1.20
-1.89
-2.96
-1.26
2.12
5.01
5.45
2.98
-1.09
-4.40
-4.99
-2.45
1.79
5.33
6.14
3.78
-0.42
-4.14
-5.42
-3.76
-0.38
2.61
3.48
1.90
-0.90
-2.89
-2.56
0.17
3.83
6.23
5.82
2.60
-1.86
-5.24
-5.88
-3.67
-0.07
2.74
3.23
1.34
-1.50
-3.31
-2.78
-0.09
3.16
4.96
4.07
0.83
-3.00
-5.23
-4.54
-1.25
2.84
5.48
5.28
2.47
-1.22
-3.62
-3.42
-0.91
2.23
4.00
3.34
0.83
-1.67
-2.20
0.08
4.26
8.14
9.47
7.29
2.47
-2.70
-5.85
-5.82
-3.24
-0.07
1.64
0.89
-1.69
-4.38
-5.46
-4.27
-1.63
0.70
1.17
-0.68
-3.82
-6.41
-6.85
-4.79
-1.30
1.70
2.56
0.86
-2.37
-5.25
-6.10
-4.48
-1.34
1.52
2.54
1.32
-1.17
-3.21
-3.40
-1.51
1.34
3.44
3.49
1.49
-1.26
-2.90
-2.16
0.82
4.49
6.77
6.28
3.12
-1.10
-4.21
-4.69
-2.53
0.74
3.07
3.08
0.93
-1.79
-3.07
-1.72
1.82
5.63
7.45
5.99
1.75
-3.19
-6.37
-6.33
-3.42
0.38
2.76
2.39
-0.24
-3.16
-4.16
-2.20
1.90
5.87
7.36
5.31
0.68
-4.13
-6.65
-5.77
-2.39
1.22
2.83
1.57
-1.49
-4.08
-4.16
-1.21
3.35
6.96
7.41
4.18
-1.22
-6.05
-7.89
-5.97
-1.55
2.85
4.90
3.80
0.62
-2.42
-3.28
-1.45
1.86
4.42
4.49
1.89
-1.78
-4.11
-3.40
0.27
4.93
7.84
7.13
2.91
-2.71
-6.76
-7.13
-3.73
1.46
5.57
6.43
3.78
-0.62
-4.19
-4.94
-2.67
0.99
3.66
3.70
1.16
-2.22
-4.19
-3.39
-0.23
3.35
5.05
3.69
-0.05
-3.96
-5.66
-4.02
0.10
4.31
6.11
4.36
0.00
-4.48
-6.51
-4.96
-0.82
3.39
5.11
3.29
-1.03
-5.28
-6.93
-5.00
-0.60
3.70
5.40
3.55
-0.73
-4.90
-6.54
-4.70
-0.49
3.66
5.42
3.90
0.16
-3.47
-4.76
-2.95
0.90
4.47
5.59
3.54
-0.56
-4.40
-5.81
-4.08
-0.30
3.31
4.70
3.23
-0.02
-2.95
-3.72
-1.91
1.30
3.85
4.14
2.04
-1.04
-3.04
-2.53
0.31
3.80
5.74
4.82
1.44
-2.46
-4.54
-3.52
0.04
4.00
5.94
4.61
0.68
-3.59
-5.72
-4.46
-0.59
3.59
5.51
3.90
-0.50
-5.37
-8.10
-7.28
-3.51
1.07
3.97
3.80
1.04
-2.33
-4.08
-3.08
0.03
3.23
4.45
2.88
-0.53
-3.60
-4.29
-2.02
1.96
5.29
5.89
3.30
-1.03
-4.60
-5.31
-2.73
1.60
5.12
5.66
2.77
-2.02
-6.10
-7.21
-4.81
-0.29
3.77
5.07
2.95
-1.28
-5.16
-6.46
-4.51
-0.56
3.05
4.28
2.64
-0.50
-2.78
-2.38
0.91
5.40
8.56
8.47
5.02
0.04
-3.70
-4.08
-0.76
4.70
9.72
12.15
11.39
8.52
5.60
4.42
5.59
8.46
11.71
14.33
16.21
18.12
21.05
25.44
30.96
36.75
42.20
47.44
53.34
60.82
70.11
80.35
89.94
97.52
102.79
106.67
110.69
115.88
122.04
127.61
130.22
127.24
116.44
96.67
69.02
37.69
9.84
-6.57
-5.71
12.77
42.29
71.50
88.79
87.03
65.87
30.13
-14.48
-65.15
-122.67
-189.01
-263.12
-338.52
-404.63
-451.41
-473.28
-472.75
-458.84
-442.37
-430.94
-426.06
-423.52
-416.97
-401.77
-377.25
-346.30
-313.81
-282.31
-251.03
-216.54
-174.42
-121.06
-54.75
23.85
111.56
202.78
290.18
365.56
421.58
454.18
463.88
455.50
436.08
412.12
387.59
363.74
340.00
315.67
290.99
266.80
243.72
221.31
198.17
172.83
144.89
115.36
86.33
60.28
38.85
22.38
9.88
-0.40
-10.12
-20.15
-30.38
-39.94
-47.65
-52.70
-54.98
-55.14
-54.22
-53.27
-52.89
-53.12
-53.56
-53.56
-52.67
-50.76
-48.06
-45.03
-42.13
-39.65
-37.61
-35.82
-34.01
-31.96
-29.61
-27.01
-24.33
-21.72
-19.30
-17.08
-15.06
-13.16
-11.35
-9.61
-7.93
-6.30
-4.73
-3.22
-1.77
-0.36
1.05
2.48
3.90
5.34
6.78
8.19
9.56
10.88
12.18
13.52
14.98
16.60
18.39
20.32
22.32
24.32
26.31
28.34
30.51
32.92
35.57
38.36
41.06
43.38
44.98
45.52
44.87
43.01
40.02
35.89
30.53
23.83
15.80
6.65
-3.21
-12.85
-21.12
-26.91
-29.68
-29.55
-27.34
-24.38
-22.03
-21.38
-22.67
-25.48
-29.08
-33.19
-38.10
-44.68
-53.91
-65.25
-78.62
-92.58
-104.93
-113.52
-117.64
-117.98
-116.41
-115.04
-115.24
-117.31
-120.31
-124.00
-126.25
-125.28
-119.11
-105.62
-83.23
-52.25
-15.96
20.18
50.19
70.20
79.72
81.57
79.74
76.45
71.00
60.65
43.86
22.72
3.47
-6.22
-0.90
19.47
48.91
77.61
95.98
98.54
85.48
61.95
35.06
11.17
-5.89
-15.08
-17.28
-14.52
-8.53
-0.27
9.88
21.24
32.39
41.31
46.19
46.24
42.25
36.40
31.27
28.69
29.03
31.25
33.55
34.33
32.85
29.52
25.60
22.53
21.25
21.89
23.77
25.88
27.35
27.79
27.40
26.78
26.61
27.29
28.86
31.00
33.29
35.33
36.90
37.91
38.31
37.95
36.70
34.13
29.88
23.76
15.92
6.61
-3.66
-14.32
-24.82
-34.61
-43.08
-49.57
-53.44
-54.09
-51.30
-45.41
-37.51
-29.29
-22.55
-18.81
-18.86
-22.61
-29.07
-36.93
-45.08
-53.03
-60.86
-68.88
-77.02
-84.56
-90.01
-91.33
-86.95
-76.26
-60.07
-40.41
-19.73
-0.48
15.81
26.64
30.82
28.88
23.28
18.25
18.18
25.69
40.09
57.22
71.12
76.57
71.53
57.92
39.92
21.61
5.25
-8.88
-21.25
-31.98
-39.95
-43.90
-43.65
-40.72
-37.93
-38.00
-42.34
-50.19
-59.06
-65.70
-67.84
-65.33
-60.08
-54.90
-52.23
-52.65
-54.48
-54.45
-48.96
-34.90
-11.31
20.24
55.45
87.95
110.86
118.97
110.10
88.36
61.52
37.96
23.15
17.84
18.46
19.89
18.13
12.02
3.25
-4.70
-7.80
-2.45
13.15
37.75
66.33
91.05
104.27
101.66
84.28
58.22
31.59
10.58
-2.70
-10.03
-14.50
-18.00
-20.16
-19.51
-15.26
-8.58
-2.27
0.83
-0.71
-6.03
-12.54
-17.14
-17.89
-14.68
-9.16
-3.85
-0.91
-1.22
-4.17
-8.02
-10.86
-11.42
-9.63
-6.39
-3.16
-1.15
-0.92
-2.12
-3.90
-5.26
-5.58
-4.82
-3.37
-1.93
-0.98
-0.76
-1.11
-1.66
-2.05
-2.07
-1.77
-1.32
-0.92
-0.66
-0.49
-0.28
0.05
0.50
0.90
1.05
0.81
0.17
-0.62
-1.20
-1.25
-0.64
0.46
1.61
2.28
2.14
1.19
-0.12
-1.10
-1.12
0.01
1.95
3.94
5.11
4.98
3.67
2.04
1.15
1.74
3.84
6.73
9.37
10.96
11.28
10.58
9.09
6.67
3.09
-1.19
-4.40
-3.75
3.32
17.51
36.79
56.75
72.24
79.25
76.44
65.26
48.49
30.02
12.71
-1.47
-11.30
-15.73
-14.22
-7.37
2.25
10.00
10.03
-2.77
-29.91
-67.31
-105.76
-133.98
-143.14
-130.81
-101.99
-66.57
-34.95
-13.49
-2.89
0.25
0.35
0.02
-0.72
-3.18
-7.99
-14.10
-19.07
-20.43
-17.62
-12.34
-7.68
-6.52
-10.11
-17.25
-25.14
-30.62
-31.76
-28.81
-23.99
-20.05
-19.10
-21.45
-25.42
-28.16
-26.69
-18.81
-3.85
17.00
40.53
61.81
75.34
76.95
65.69
44.27
19.63
-1.13
-13.48
-17.16
-15.56
-13.40
-13.82
-16.96
-20.67
-22.49
-21.47
-18.85
-17.04
-18.05
-22.47
-29.59
-38.16
-46.81
-54.10
-58.09
-56.22
-46.16
-27.16
-1.27
26.95
52.04
69.71
78.67
80.46
78.09
74.20
69.96
65.15
59.24
52.55
46.19
41.45
39.08
38.18
37.32
35.16
30.98
25.29
19.58
15.41
13.95
15.41
19.15
23.95
28.62
32.34
34.41
35.89
37.49
39.71
42.51
45.36
47.49
48.10
47.16
44.06
39.10
32.64
25.14
16.99
8.39
-0.52
-9.55
-18.74
-27.36
-34.86
-40.89
-45.27
-48.07
-49.46
-49.76
-49.28
-48.28
-47.00
-45.48
-43.86
-42.20
-40.61
-39.17
-37.94
-36.94
-36.16
-35.52
-34.89
-34.25
-33.56
-32.92
-32.42
-32.17
-32.14
-32.18
-31.94
-31.04
-29.15
-26.07
-21.90
-16.89
-11.38
-5.60
0.40
6.74
13.59
20.98
28.61
35.87
41.91
46.00
47.80
47.55
46.06
44.37
43.44
43.68
44.95
46.58
47.97
48.70
48.85
48.95
49.63
51.51
55.24
61.39
70.09
80.32
89.45
93.52
88.47
72.24
46.06
14.36
-16.83
-42.36
-59.80
-69.89
-75.36
-79.39
-83.68
-88.04
-91.21
-91.94
-89.80
-85.39
-79.94
-74.89
-71.94
-71.89
-74.32
-77.90
-80.89
-81.85
-80.56
-78.39
-77.76
-81.84
-91.88
-106.51
-121.80
-132.28
-132.44
-118.31
-88.36
-39.60
23.89
93.93
159.68
210.08
237.44
241.03
228.51
213.52
210.13
225.42
257.03
294.11
322.31
330.09
313.04
274.80
224.62
173.56
130.03
99.81
85.65
86.80
99.02
115.34
127.83
129.95
118.47
92.15
54.27
11.64
-28.25
-60.19
-82.67
-97.98
-111.16
-128.46
-158.62
-204.93
-262.02
-318.27
-360.89
-379.65
-369.02
-328.98
-264.98
-192.25
-125.63
-74.39
-42.58
-31.84
-41.43
-67.54
-103.55
-142.32
-185.41
-233.73
-283.69
-329.32
-366.88
-395.48
-415.76
-428.40
-390.50
-289.59
-154.04
-26.57
70.61
137.29
181.84
212.24
234.47
251.75
258.32
250.88
233.07
212.45
194.48
181.04
171.02
162.93
155.18
140.88
116.44
84.60
51.43
20.95
-2.56
-21.68
-38.46
-52.35
-63.10
-67.08
-58.62
-34.59
1.79
41.80
75.15
95.54
102.33
97.71
86.77
75.38
67.81
65.47
67.86
73.61
81.56
89.57
92.84
86.16
66.88
37.14
4.68
-19.49
-25.87
-10.83
20.54
55.78
80.47
84.44
66.01
31.94
-6.58
-39.29
-60.70
-70.97
-74.16
-74.81
-75.61
-76.71
-76.47
-73.60
-68.55
-63.38
-60.54
-61.55
-65.92
-71.69
-76.83
-80.38
-82.98
-85.62
-88.41
-88.72
-82.92
-68.03
-43.94
-14.10
15.53
39.02
52.90
57.20
54.68
48.80
42.18
35.95
30.29
25.27
21.21
18.62
17.56
17.43
17.05
15.37
11.79
6.62
0.79
-4.59
-8.76
-11.53
-13.27
-14.74
-16.63
-19.29
-22.50
-25.71
-28.27
-29.72
-29.83
-28.54
-25.85
-21.69
-15.96
-8.61
0.26
10.15
20.21
29.57
37.64
44.23
49.61
54.13
58.17
61.64
64.03
64.62
62.90
58.92
53.48
48.09
44.79
46.02
53.46
67.02
83.84
98.39
104.05
95.44
70.57
31.66
-15.00
-61.22
-99.05
-122.69
-129.57
-120.60
-99.95
-73.44
-49.14
-33.01
-27.39
-30.87
-39.43
-48.42
-54.54
-56.64
-55.52
-52.68
-48.95
-43.94
-37.00
-27.69
-16.05
-2.70
11.38
24.66
35.90
44.60
51.16
56.40
61.33
66.83
73.68
82.90
94.58
107.60
119.16
124.94
120.07
101.36
69.28
26.54
-17.68
-55.11
-81.50
-98.65
-110.90
-123.04
-137.77
-154.59
-170.17
-179.51
-178.91
-166.99
-145.28
-117.55
-88.97
-64.06
-45.25
-32.60
-24.10
-17.56
-11.37
-4.58
3.69
12.70
23.13
36.16
52.74
73.08
96.11
120.16
144.13
168.64
195.95
229.05
269.40
314.70
358.44
391.14
403.75
390.85
352.13
291.57
216.42
135.53
58.31
-6.03
-49.69
-67.44
-57.80
-24.01
25.57
80.28
129.38
163.76
177.33
167.40
135.24
86.35
28.26
-32.98
-93.20
-150.47
-203.77
-251.26
-289.94
-316.64
-329.58
-331.33
-329.88
-333.79
-348.35
-373.24
-403.37
-432.23
-454.89
-468.99
-463.28
-432.33
-377.20
-305.74
-228.81
-155.84
-93.75
-50.90
-27.13
-21.36
-32.03
-53.82
-77.79
-93.55
-90.79
-65.52
-20.83
35.70
94.33
146.48
188.62
221.99
250.08
276.05
300.65
323.13
342.99
359.82
372.66
380.22
380.66
371.89
352.05
319.55
273.66
214.86
144.25
64.01
-21.30
-104.56
-177.01
-230.63
-261.63
-272.35
-270.93
-268.61
-274.65
-291.84
-314.98
-333.07
-334.38
-312.05
-266.40
-203.72
-132.45
-58.74
15.56
91.72
171.07
252.24
329.97
396.53
444.32
468.34
467.38
443.56
400.52
341.60
269.14
185.38
94.23
2.05
-83.38
-155.42
-211.04
-251.22
-279.38
-298.97
-312.14
-320.04
-324.46
-328.47
-335.15
-345.06
-354.48
-356.34
-343.81
-314.29
-270.89
-220.39
-169.02
-119.00
-68.61
-14.70
43.94
104.98
163.76
216.08
260.68
299.78
337.84
379.24
426.59
480.02
537.56
595.78
650.28
696.05
728.07
742.13
735.68
708.29
661.56
598.34
522.13
436.64
345.76
253.61
164.23
81.00
5.92
-60.99
-121.41
-178.13
-234.10
-291.74
-352.15
-414.50
-475.58
-529.96
-571.23
-594.17
-597.19
-583.59
-561.05
-539.11
-525.87
-525.31
-536.44
-554.58
-573.90
-589.86
-600.34
-605.15
-604.52
-597.80
-583.07
-557.99
-521.20
-473.51
-418.15
-359.66
-302.20
-247.95
-196.68
-146.61
-95.86
-43.87
8.24
58.19
103.69
143.43
177.58
207.49
235.04
261.90
288.97
316.23
342.85
367.80
390.29
410.13
427.82
444.27
460.61
478.10
498.21
522.42
551.76
585.95
622.47
656.31
680.77
689.39
678.08
646.41
597.42
536.31
468.72
399.56
332.40
269.85
214.28
167.86
132.04
106.75
90.49
81.42
78.35
80.85
88.78
101.59
117.86
135.10
150.11
159.89
163.03
159.90
151.76
139.70
124.05
104.56
80.36
49.90
10.96
-37.99
-97.24
-165.98
-242.78
-325.90
-410.59
-485.88
-539.57
-565.52
-565.64
-547.01
-517.32
-482.43
-445.79
-409.04
-373.05
-338.76
-308.10
-282.09
-260.19
-240.65
-221.37
-200.45
-176.30
-151.74
-126.08
-99.80
-73.33
-46.45
-18.66
10.13
39.24
67.26
92.24
111.38
121.15
119.48
106.23
82.75
51.01
12.83
-30.45
-78.27
-128.10
-178.25
-226.22
-268.61
-301.71
-322.53
-329.35
-321.98
-293.61
-243.01
-175.07
-99.10
-25.48
37.74
86.50
120.42
141.46
152.60
155.82
152.77
145.32
135.88
126.96
120.63
118.05
119.26
123.33
127.77
130.04
128.59
123.48
116.17
108.75
103.19
100.57
100.68
101.53
100.73
96.39
88.25
77.61
66.69
57.46
50.77
45.81
40.04
30.54
14.94
-8.09
-38.26
-73.57
-110.27
-143.36
-167.19
-177.29
-170.17
-148.53
-118.29
-86.48
-58.28
-35.05
-14.77
6.97
33.71
66.40
101.89
135.66
161.50
173.07
169.11
152.48
129.30
106.65
90.04
81.09
78.45
78.70
79.32
79.77
80.61
82.27
83.81
82.86
76.59
63.94
45.15
22.89
0.57
-19.27
-35.91
-50.38
-64.54
-80.05
-95.96
-111.92
-126.07
-136.29
-141.54
-142.28
-140.31
-137.96
-137.20
-138.62
-141.79
-144.91
-145.88
-143.32
-136.99
-127.73
-116.82
-106.33
-95.42
-83.08
-67.72
-48.30
-24.83
1.16
27.02
49.72
66.63
75.39
74.40
63.58
44.72
21.38
-1.26
-18.00
-25.70
-25.08
-20.21
-16.77
-19.69
-30.30
-46.05
-62.13
-74.20
-80.17
-80.37
-76.09
-68.59
-56.97
-39.95
-16.95
11.17
41.86
71.75
97.54
117.51
130.46
138.60
144.44
149.91
155.75
161.28
164.87
164.95
161.13
154.26
146.61
140.46
137.07
136.78
138.98
142.88
147.72
152.46
154.93
152.16
141.12
119.33
87.55
49.79
11.72
-21.55
-47.41
-66.58
-81.51
-94.83
-108.29
-122.16
-136.18
-150.45
-165.86
-182.96
-202.55
-223.04
-240.31
-248.96
-244.07
-224.29
-192.96
-157.26
-125.76
-104.17
-93.87
-91.71
-92.37
-90.91
-85.04
-75.09
-62.75
-49.03
-33.90
-16.45
4.06
27.11
51.05
73.47
92.16
105.24
113.25
117.54
119.64
120.76
121.31
121.06
119.35
115.81
111.04
105.41
99.84
95.13
91.72
89.49
87.88
86.14
83.69
80.29
75.95
70.74
64.68
57.62
49.23
39.47
27.77
14.14
-0.95
-16.72
-32.17
-46.30
-58.27
-67.46
-73.54
-76.53
-76.54
-73.91
-69.13
-62.72
-55.27
-47.35
-39.50
-32.21
-25.95
-20.88
-17.08
-14.50
-12.97
-12.28
-12.25
-12.82
-13.98
-15.99
-18.83
-22.50
-26.80
-31.30
-35.48
-38.88
-41.29
-42.87
-44.19
-45.49
-46.97
-48.54
-49.73
-49.90
-48.58
-45.77
-42.19
-39.15
-37.36
-37.34
-38.87
-41.01
-42.35
-41.67
-38.39
-32.92
-26.57
-19.81
-12.97
-5.75
2.83
14.22
30.16
52.68
84.57
122.29
163.11
202.20
232.64
247.06
240.47
212.85
170.12
122.21
79.18
48.42
31.73
25.71
24.03
20.17
9.30
-10.47
-37.89
-69.11
-97.61
-115.92
-117.52
-98.25
-58.11
-2.04
60.25
116.07
152.90
162.58
144.08
102.40
47.08
-11.58
-66.20
-113.59
-153.98
-189.19
-220.91
-249.58
-274.72
-292.81
-298.28
-286.48
-256.20
-210.86
-158.24
-108.39
-66.18
-34.52
-14.23
-4.01
-1.36
-3.23
-6.23
-6.08
-4.21
1.68
13.16
30.47
52.22
75.68
98.02
117.43
133.79
148.91
167.05
191.93
225.76
267.38
311.30
348.96
371.70
374.47
358.22
330.40
300.58
277.15
264.53
262.74
268.83
278.72
288.18
292.92
288.97
272.85
243.59
204.07
160.74
121.40
92.10
74.98
67.98
66.50
65.31
60.82
51.91
39.94
27.81
18.83
15.71
19.98
31.59
49.07
69.96
91.31
110.23
124.19
131.24
130.41
121.96
107.38
89.06
69.53
50.80
33.93
19.02
5.49
-7.61
-21.18
-36.00
-52.58
-71.17
-91.74
-113.92
-136.96
-159.80
-181.34
-200.70
-217.49
-231.91
-244.46
-255.50
-264.80
-271.39
-273.87
-271.17
-263.31
-251.74
-239.18
-228.78
-223.07
-223.16
-229.13
-240.45
-256.86
-278.43
-304.96
-335.51
-368.65
-403.41
-440.17
-480.41
-525.00
-571.97
-615.47
-647.09
-659.23
-648.43
-617.00
-571.54
-519.71
-467.05
-415.75
-365.87
-317.40
-271.62
-230.79
-196.42
-167.71
-141.41
-112.81
-77.51
-33.01
20.20
77.87
132.56
175.47
199.49
202.43
188.68
168.20
152.54
150.16
163.06
186.77
213.61
237.16
255.36
271.11
290.14
317.86
356.67
404.75
456.25
502.71
535.04
545.59
530.12
488.40
424.08
344.15
258.02
176.41
109.83
66.62
50.97
61.81
93.16
136.19
181.95
223.32
255.52
275.45
280.74
269.74
242.50
201.60
152.26
101.10
54.20
15.45
-14.06
-35.48
-51.13
-63.33
-73.94
-84.37
-95.76
-109.24
-125.99
-146.93
-172.42
-201.92
-233.70
-265.08
-292.82
-313.85
-326.26
-330.15
-328.19
-324.93
-325.16
-331.72
-343.90
-357.42
-366.16
-364.96
-351.99
-329.25
-301.25
-272.52
-245.29
-219.00
-191.27
-159.50
-122.55
-81.35
-38.70
1.48
35.34
60.33
76.18
85.28
92.04
101.38
116.91
139.73
168.26
199.05
227.90
250.59
263.45
263.72
250.39
224.80
190.99
155.21
124.38
104.47
99.07
109.11
133.12
167.87
209.28
252.85
293.98
328.34
352.14
362.57
358.34
340.05
310.45
274.19
236.77
202.95
175.14
152.86
133.29
112.92
89.33
62.07
32.65
3.44
-23.47
-47.02
-67.04
-83.73
-97.23
-107.51
-114.84
-120.18
-125.37
-132.72
-144.09
-159.98
-178.85
-197.32
-211.16
-216.82
-212.69
-199.83
-181.41
-161.45
-143.41
-129.23
-119.31
-113.00
-109.08
-105.77
-100.56
-90.35
-72.45
-46.05
-13.09
22.00
53.89
78.43
93.81
100.61
100.66
96.01
88.35
79.37
71.20
66.07
65.55
69.39
75.29
79.70
79.33
72.52
59.77
43.22
25.69
9.82
-2.62
-10.78
-14.63
-14.71
-11.79
-6.55
0.63
9.57
20.01
31.06
41.04
47.65
48.90
44.04
34.25
22.35
11.68
4.72
2.12
2.94
5.67
9.44
14.60
22.15
32.79
45.96
59.94
72.70
82.93
90.66
96.94
103.04
109.64
116.52
122.61
126.29
125.78
119.42
106.32
87.09
64.30
42.21
25.48
17.43
18.76
27.40
39.58
51.62
61.19
67.58
71.02
71.81
69.88
65.12
57.90
49.39
41.16
34.47
29.62
25.92
22.14
17.20
10.67
2.75
-5.96
-14.77
-23.12
-30.57
-36.87
-42.10
-47.00
-52.91
-61.61
-74.41
-91.35
-110.66
-129.00
-142.43
-147.81
-143.94
-131.73
-113.66
-92.64
-71.05
-50.41
-31.62
-15.42
-2.66
5.90
10.03
10.35
8.49
6.72
7.64
13.61
26.37
46.66
73.90
106.13
140.20
172.14
197.80
213.53
216.83
206.88
184.68
152.78
114.44
72.57
28.78
-17.16
-67.12
-123.59
-187.86
-258.31
-329.46
-392.65
-438.15
-458.17
-449.70
-415.68
-364.03
-304.83
-246.82
-195.01
-150.33
-111.05
-75.07
-41.63
-11.51
13.88
33.90
49.41
62.51
75.47
89.51
104.02
117.00
126.28
130.79
131.27
129.85
128.98
130.16
133.10
135.88
135.85
130.94
120.56
105.84
89.08
72.78
58.78
47.83
39.76
33.99
30.01
27.65
26.95
27.95
30.32
33.34
36.00
37.26
36.41
33.28
28.19
21.86
15.11
8.61
2.80
-2.17
-6.32
-9.82
-12.83
-15.51
-18.02
-20.52
-23.20
-26.18
-29.54
-33.29
-37.49
-42.33
-48.14
-55.27
-63.94
-73.92
-84.37
-93.90
-100.80
-103.60
-101.49
-94.64
-84.01
-71.07
-57.24
-43.51
-30.38
-17.97
-6.33
4.36
13.70
21.22
26.61
29.91
31.56
32.27
32.90
34.05
35.86
37.98
39.75
40.50
39.86
37.94
35.24
32.39
29.84
27.61
25.32
22.38
18.17
12.28
4.71
-4.12
-13.23
-21.33
-27.05
-29.29
-27.65
-22.52
-15.02
-6.48
2.03
10.09
17.93
26.06
34.80
43.75
51.86
57.72
60.24
59.07
55.05
50.29
47.87
51.03
62.05
80.88
104.40
126.63
140.18
138.44
117.64
77.89
22.94
-41.34
-108.49
-172.61
-228.78
-273.11
-302.90
-317.20
-317.38
-307.12
-291.64
-276.10
-263.86
-255.42
-248.26
-237.87
-219.31
-188.76
-144.53
-87.39
-20.39
51.61
122.47
185.54
234.77
266.03
278.07
272.99
255.48
231.47
206.31
183.57
164.88
150.38
139.74
132.62
128.65
127.02
126.30
124.65
120.57
113.65
104.83
95.95
88.94
84.93
83.96
85.13
87.19
89.12
90.16
89.79
87.30
81.86
72.84
60.32
45.47
30.34
17.31
8.14
3.25
1.54
0.59
-2.50
-10.26
-24.05
-43.61
-66.98
-90.81
-110.94
-123.37
-125.37
-116.59
-99.42
-78.51
-59.31
-46.12
-40.99
-43.26
-50.45
-59.31
-66.59
-69.44
-65.68
-54.29
-36.19
-14.47
6.16
20.95
26.66
22.44
9.46
-10.31
-35.10
-63.59
-94.25
-125.01
-153.54
-178.07
-198.19
-214.26
-225.81
-230.02
-221.39
-193.28
-140.70
-63.28
33.32
138.15
237.51
318.57
372.49
395.96
390.87
362.41
316.55
257.96
189.23
111.34
25.49
-64.96
-153.56
-231.32
-289.16
-321.19
-327.69
-315.80
-297.37
-284.49
-284.69
-298.10
-318.21
-335.34
-341.21
-331.91
-308.65
-276.35
-241.53
-210.64
-188.79
-178.95
-181.32
-193.13
-209.51
-224.76
-233.95
-233.81
-222.90
-201.19
-170.10
-133.21
-96.58
-67.74
-53.19
-55.10
-69.26
-85.80
-92.52
-79.16
-40.75
21.55
101.44
189.86
277.06
354.44
415.56
456.96
478.40
482.65
474.56
459.58
442.47
426.39
412.71
401.61
392.49
384.37
376.00
365.89
352.50
334.43
310.92
282.13
249.39
214.99
181.53
151.03
124.40
101.51
81.88
65.37
52.39
43.46
38.29
35.31
32.04
26.14
16.58
4.02
-9.59
-22.22
-32.72
-41.20
-48.57
-55.74
-63.20
-70.83
-78.32
-85.48
-92.31
-98.84
-104.86
-109.81
-112.84
-113.31
-111.18
-107.14
-102.45
-98.38
-95.69
-94.37
-93.65
-92.24
-88.90
-82.86
-74.05
-62.93
-50.31
-36.98
-23.65
-10.87
1.20
12.59
23.40
33.68
43.28
51.92
58.92
63.39
64.41
61.97
56.77
49.68
41.14
30.99
18.90
4.85
-10.69
-26.59
-40.62
-50.66
-56.07
-58.33
-60.12
-63.79
-70.40
-79.71
-90.57
-100.07
-105.14
-104.46
-99.37
-92.69
-86.69
-81.91
-77.17
-70.24
-57.12
-33.73
1.58
47.73
102.04
161.68
223.46
283.11
324.31
330.82
298.19
238.63
172.41
115.02
72.43
43.20
22.57
6.29
-6.73
-14.30
-15.35
-11.79
-8.10
-9.18
-18.65
-37.77
-65.29
-96.96
-121.54
-131.31
-123.11
-98.32
-61.13
-16.48
31.21
78.41
122.98
163.09
195.14
214.97
219.52
208.54
184.72
152.32
115.48
77.47
40.32
4.11
-31.90
-68.35
-105.07
-140.86
-173.74
-201.73
-223.35
-237.98
-246.44
-249.92
-249.44
-245.37
-237.74
-226.83
-213.65
-199.75
-186.46
-174.45
-163.13
-151.03
-136.48
-118.51
-97.08
-73.05
-47.67
-22.22
2.19
24.60
44.04
59.50
70.05
75.12
74.96
70.87
65.04
59.93
57.72
59.62
65.67
74.78
84.93
93.63
98.68
99.43
97.66
97.73
104.75
122.09
148.74
178.59
202.19
210.32
197.39
162.75
109.93
44.55
-26.89
-97.00
-156.95
-197.13
-209.85
-192.83
-151.60
-98.40
-48.02
-12.32
3.65
1.85
-11.24
-28.52
-45.02
-58.49
-68.40
-74.60
-76.72
-74.42
-67.99
-58.45
-47.27
-35.88
-25.25
-16.08
-8.95
-4.49
-3.39
-6.07
-12.18
-20.53
-29.13
-35.76
-38.57
-36.90
-31.68
-25.29
-20.90
-21.27
-27.73
-39.72
-55.04
-70.61
-83.34
-90.58
-90.38
-81.47
-63.53
-37.60
-6.55
25.27
53.09
73.09
83.65
85.27
79.55
67.94
50.90
28.12
-0.19
-31.91
-62.64
-86.97
-100.76
-103.34
-97.74
-88.87
-80.60
-73.48
-64.79
-51.06
-31.19
-8.39
10.80
19.73
15.28
-0.39
-21.00
-39.63
-52.24
-59.30
-64.93
-74.17
-90.10
-112.42
-137.58
-160.51
-176.77
-183.89
-181.69
-171.62
-155.81
-136.16
-114.19
-91.15
-68.17
-46.35
-26.48
-8.81
6.85
20.80
32.99
42.95
50.10
54.29
56.05
56.38
56.17
55.82
55.17
54.02
52.59
51.75
52.68
56.14
61.95
68.84
74.93
78.52
78.67
75.53
70.05
63.55
57.01
50.82
44.73
38.07
30.25
21.09
11.12
1.61
-5.77
-9.34
-7.87
-0.94
11.00
26.76
44.72
63.15
80.43
95.32
106.86
114.53
118.20
118.15
114.99
109.47
102.31
93.92
84.42
73.78
61.97
49.28
36.27
23.73
12.34
2.55
-5.57
-12.20
-17.54
-21.69
-24.62
-26.20
-26.40
-25.27
-23.08
-20.19
-17.13
-14.51
-13.01
-13.33
-15.96
-21.02
-28.04
-35.85
-42.83
-47.27
-47.88
-44.17
-36.61
-26.33
-14.70
-2.85
8.54
19.15
28.79
37.14
43.76
48.16
50.16
49.94
48.03
45.07
41.61
37.90
33.95
29.72
25.13
20.31
15.46
10.83
6.56
2.65
-1.08
-4.91
-9.04
-13.57
-18.50
-23.73
-29.25
-35.16
-41.65
-48.89
-56.73
-64.53
-71.22
-75.43
-75.97
-72.17
-64.19
-52.94
-39.76
-26.08
-12.99
-1.11
9.36
18.49
26.32
32.77
37.69
40.88
42.29
42.08
40.57
38.15
35.15
31.75
27.98
23.80
19.26
14.48
9.59
4.69
-0.25
-5.32
-10.58
-15.96
-21.26
-26.21
-30.75
-34.92
-38.98
-43.08
-47.07
-50.29
-51.70
-50.13
-44.73
-35.38
-22.82
-8.47
5.91
18.76
29.10
36.62
41.51
44.21
45.03
44.17
41.77
38.12
33.78
29.51
26.01
23.73
22.63
22.31
22.11
21.30
19.31
15.83
10.77
4.34
-2.94
-10.38
-17.09
-22.31
-25.55
-26.94
-27.17
-27.43
-28.89
-32.23
-37.23
-42.71
-46.87
-47.99
-45.04
-38.09
-28.17
-16.75
-5.23
5.50
15.00
23.15
29.76
34.52
37.11
37.44
35.91
33.34
30.81
29.30
29.34
30.92
33.42
35.81
36.93
35.71
31.36
23.66
13.09
0.80
-11.61
-22.39
-30.21
-34.49
-35.58
-34.60
-33.04
-32.31
-33.23
-35.77
-38.99
-41.30
-40.98
-36.67
-27.84
-15.01
0.48
16.87
32.52
46.18
57.17
65.21
70.30
72.63
72.57
70.69
67.73
64.45
61.46
59.11
57.45
56.30
55.44
54.68
53.97
53.35
52.83
52.31
51.62
50.50
48.72
46.15
42.73
38.51
33.55
27.98
21.88
15.31
8.21
0.45
-7.99
-16.88
-25.49
-32.59
-36.83
-37.09
-32.97
-25.01
-14.43
-2.75
8.71
19.10
28.04
35.42
41.19
45.33
47.86
48.96
49.06
48.63
48.09
47.58
47.03
46.21
44.95
43.21
41.15
38.98
36.83
34.71
32.48
29.92
26.85
23.23
19.14
14.75
10.30
5.94
1.73
-2.46
-6.92
-12.03
-18.12
-25.22
-32.95
-40.46
-46.58
-50.09
-50.18
-46.66
-40.08
-31.60
-22.57
-14.19
-7.21
-1.88
1.97
4.54
5.89
5.80
4.00
0.47
-4.40
-9.81
-14.90
-19.14
-22.63
-26.05
-30.60
-37.61
-48.42
-64.10
-85.16
-111.28
-141.04
-172.06
-201.36
-226.01
-243.75
-253.27
-254.28
-247.34
-233.57
-214.51
-191.79
-166.87
-140.82
-114.34
-87.92
-62.20
-38.08
-16.50
2.21
18.81
35.41
54.84
79.56
110.34
145.51
180.99
211.37
231.48
237.97
230.33
210.78
183.50
153.31
124.42
99.81
81.02
68.57
62.21
61.22
64.34
69.77
75.36
79.00
79.26
75.78
69.35
61.44
53.45
46.08
39.12
31.86
23.66
14.50
4.98
-4.02
-11.90
-18.62
-24.57
-30.16
-35.36
-39.65
-42.13
-42.09
-39.35
-34.36
-28.07
-21.43
-15.10
-9.25
-3.59
2.32
8.76
15.50
21.89
26.98
29.97
30.53
28.92
25.85
22.18
18.55
15.26
12.31
9.54
6.83
4.11
1.43
-1.19
-3.81
-6.54
-9.56
-12.99
-16.89
-21.11
-25.35
-29.15
-32.11
-34.08
-35.32
-36.47
-38.23
-40.96
-44.24
-46.94
-47.58
-44.94
-38.69
-29.43
-18.44
-7.09
3.66
13.49
22.54
31.06
39.14
46.64
53.34
59.12
64.08
68.34
71.93
74.62
76.03
75.69
73.31
68.86
62.51
54.59
45.46
35.51
25.08
14.49
4.03
-6.15
-15.95
-25.27
-33.91
-41.54
-47.78
-52.28
-54.90
-55.78
-55.28
-53.99
-52.71
-52.32
-53.62
-57.05
-62.38
-68.61
-74.11
-77.09
-76.14
-70.77
-61.46
-49.45
-36.30
-23.44
-11.90
-2.24
5.34
10.96
14.91
17.61
19.49
20.86
21.89
22.67
23.33
24.23
25.77
28.18
31.26
34.31
36.37
36.75
35.32
32.61
29.52
26.84
24.90
23.61
22.66
21.84
21.17
20.69
20.35
19.88
18.96
17.36
15.08
12.29
9.15
5.81
2.33
-1.28
-5.00
-8.86
-12.83
-16.80
-20.37
-22.80
-23.26
-21.07
-16.22
-9.44
-2.02
4.66
9.77
13.14
15.18
16.52
17.55
18.36
18.78
18.70
18.16
17.45
16.93
16.92
17.57
18.86
20.65
22.73
24.93
27.15
29.37
31.59
33.78
35.67
36.89
36.97
35.61
32.81
28.82
24.07
18.84
13.21
7.09
0.47
-6.40
-12.97
-18.70
-23.39
-27.30
-31.04
-35.11
-39.52
-43.64
-46.47
-47.12
-45.34
-41.54
-36.61
-31.42
-26.46
-21.77
-17.21
-12.78
-8.79
-5.73
-4.04
-3.77
-4.52
-5.62
-6.40
-6.39
-5.40
-3.55
-1.07
1.65
4.22
6.23
7.37
7.51
6.74
5.33
3.63
2.00
0.70
-0.11
-0.41
-0.32
-0.13
-0.16
-0.72
-1.92
-3.65
-5.68
-7.79
-9.93
-12.26
-14.95
-18.07
-21.37
-24.32
-26.28
-26.65
-25.16
-21.84
-17.02
-11.22
-5.01
1.08
6.58
11.19
14.69
17.05
18.34
18.75
18.53
17.94
17.19
16.40
15.60
14.77
13.86
12.83
11.69
10.48
9.34
8.43
7.88
7.73
7.89
8.16
8.36
8.41
8.33
8.22
8.10
7.85
7.23
6.02
4.17
1.78
-0.87
-3.57
-6.24
-8.93
-11.67
-14.29
-16.34
-17.26
-16.59
-14.24
-10.59
-6.33
-2.21
1.13
3.39
4.53
4.68
4.05
2.89
1.48
0.20
-0.55
-0.45
0.68
2.75
5.54
8.75
12.16
15.63
19.12
22.63
26.10
29.49
32.73
35.79
38.70
41.44
43.88
45.76
46.75
46.48
44.80
41.77
37.82
33.65
30.05
27.64
26.55
26.18
25.31
22.45
16.51
7.43
-3.53
-14.01
-21.28
-23.17
-18.83
-8.84
5.21
21.54
38.86
56.65
74.91
93.71
112.86
131.65
148.82
162.46
170.02
168.54
155.59
130.60
96.32
59.37
29.15
15.21
24.07
56.73
108.33
169.79
230.80
282.73
320.25
341.53
347.35
340.08
322.82
298.94
271.74
244.01
217.42
192.31
167.78
142.30
114.65
84.29
51.67
17.84
-16.15
-49.57
-82.36
-115.29
-149.77
-187.38
-228.93
-273.40
-317.35
-355.37
-381.68
-392.25
-386.52
-367.69
-341.38
-313.38
-287.51
-264.91
-244.77
-225.95
-208.45
-193.74
-183.97
-180.53
-182.90
-188.47
-193.37
-193.78
-187.21
-173.28
-153.57
-130.85
-108.02
-87.31
-69.83
-55.75
-44.70
-36.20
-29.77
-24.76
-20.18
-14.67
-7.07
2.92
14.32
24.96
32.39
35.12
33.43
29.10
24.29
20.15
15.97
9.55
-1.42
-17.93
-38.81
-61.03
-80.86
-95.15
-102.04
-101.06
-92.65
-77.63
-57.02
-32.13
-4.64
23.26
49.20
70.93
86.80
96.04
98.96
96.91
91.95
86.22
81.40
78.17
76.13
73.99
70.33
64.25
55.73
45.75
35.72
27.03
20.68
17.22
16.84
19.57
25.04
32.23
39.37
44.15
44.55
39.62
29.92
17.34
4.25
-7.38
-16.49
-22.95
-27.22
-29.99
-31.96
-33.77
-35.87
-38.40
-41.05
-43.14
-43.88
-42.80
-39.94
-35.72
-30.62
-24.82
-18.26
-10.93
-3.35
3.47
8.57
12.08
15.83
22.95
36.49
57.39
83.27
108.76
127.48
134.68
129.04
112.69
89.44
62.46
32.81
-0.30
-37.86
-79.09
-120.56
-156.85
-182.55
-194.32
-191.85
-177.58
-155.32
-128.93
-101.59
-75.78
-53.54
-36.48
-25.30
-19.32
-16.38
-13.51
-7.94
1.91
16.09
33.56
52.84
72.57
91.61
108.95
123.60
134.78
142.15
145.88
146.35
143.72
137.74
127.87
113.73
95.49
74.04
50.70
26.79
3.30
-19.17
-40.30
-59.86
-77.50
-92.85
-105.60
-115.58
-122.77
-127.24
-128.97
-127.84
-123.73
-116.68
-107.02
-95.40
-82.78
-70.35
-59.42
-51.32
-47.16
-47.65
-52.79
-61.67
-72.59
-83.48
-92.45
-98.40
-101.22
-101.54
-100.22
-97.86
-94.59
-90.33
-85.17
-79.71
-75.00
-72.07
-71.28
-72.01
-72.73
-71.60
-67.25
-59.34
-48.70
-36.97
-26.08
-17.63
-12.62
-11.38
-13.58
-18.38
-24.48
-30.29
-34.14
-34.67
-31.19
-23.90
-13.77
-2.29
9.12
19.43
28.20
35.44
41.34
46.09
49.76
52.40
54.19
55.47
56.67
58.08
59.72
61.30
62.45
62.88
62.60
61.84
60.83
59.67
58.25
56.37
54.00
51.29
48.63
46.30
44.28
42.18
39.36
35.30
29.84
23.30
16.29
9.46
3.18
-2.55
-7.90
-13.04
-17.79
-21.62
-23.78
-23.64
-20.96
-16.03
-9.56
-2.38
4.72
11.23
16.79
21.25
24.54
26.67
27.75
28.02
27.80
27.43
27.18
27.20
27.46
27.85
28.11
28.01
27.37
26.24
24.97
24.13
24.34
26.02
29.17
33.28
37.53
41.04
43.18
43.78
43.18
42.01
40.86
39.95
39.13
37.95
36.06
33.61
31.43
30.90
33.57
40.62
52.46
68.57
87.58
107.52
126.20
141.62
152.53
158.93
162.18
164.69
168.94
176.35
186.32
196.14
201.72
199.20
186.39
163.82
134.50
102.81
72.97
47.74
27.79
11.95
-2.01
-16.55
-33.79
-55.23
-81.58
-112.56
-146.71
-181.29
-212.70
-237.25
-252.12
-256.12
-249.69
-234.61
-213.27
-188.11
-161.32
-134.59
-109.10
-85.56
-64.31
-45.61
-29.90
-17.81
-9.76
-5.52
-3.96
-3.33
-2.03
0.60
4.02
6.82
7.66
6.06
2.68
-1.17
-4.19
-5.70
-5.81
-5.13
-4.40
-4.16
-4.59
-5.60
-6.90
-8.20
-9.28
-10.14
-10.97
-12.01
-13.45
-15.19
-17.00
-18.65
-20.06
-21.47
-23.25
-25.67
-28.79
-32.39
-36.17
-39.86
-43.36
-46.69
-49.74
-52.31
-53.97
-54.27
-52.87
-49.65
-44.76
-38.57
-31.64
-24.59
-18.00
-12.31
-7.74
-4.29
-1.81
-0.21
0.51
0.24
-1.08
-3.29
-5.98
-8.56
-10.56
-11.85
-12.82
-14.06
-16.07
-18.88
-21.98
-24.59
-26.08
-26.41
-26.09
-26.07
-27.13
-29.63
-33.32
-37.52
-41.41
-44.31
-45.87
-46.06
-45.17
-43.77
-42.58
-42.52
-44.42
-48.70
-55.11
-62.48
-68.86
-72.00
-70.06
-62.32
-49.52
-33.68
-17.38
-2.91
8.46
16.59
22.17
26.03
28.69
30.22
30.56
29.72
28.15
26.48
25.27
24.70
24.60
24.67
24.76
25.01
25.70
26.89
28.23
28.93
28.16
25.40
20.79
15.17
9.72
5.64
3.72
4.12
6.38
9.52
12.37
13.74
12.73
8.82
2.04
-6.98
-17.10
-26.77
-34.29
-38.27
-37.92
-33.34
-25.50
-15.88
-6.03
2.90
10.30
16.13
20.56
23.79
25.91
27.02
27.39
27.52
28.01
29.31
31.48
34.16
36.80
38.97
40.52
41.63
42.56
43.42
44.05
44.06
43.06
40.88
37.56
33.39
28.73
23.93
19.28
15.00
11.17
7.67
4.15
0.16
-4.69
-10.48
-16.95
-23.45
-29.08
-32.95
-34.27
-32.57
-27.74
-20.16
-10.69
-0.46
9.31
17.74
24.51
29.82
34.23
38.25
42.12
45.67
48.51
50.34
51.07
50.94
50.29
49.44
48.57
47.66
46.65
45.53
44.33
43.11
41.83
40.30
38.19
35.16
30.98
25.67
19.48
12.85
6.24
-0.01
-5.80
-11.17
-16.33
-21.50
-27.00
-33.17
-40.34
-48.55
-57.30
-65.47
-71.46
-73.63
-70.91
-63.18
-51.34
-37.02
-22.02
-7.90
4.31
14.11
21.42
26.44
29.50
30.94
31.13
30.36
28.92
27.11
25.34
23.97
23.37
23.65
24.66
25.97
27.00
27.30
26.63
25.04
22.80
20.19
17.38
14.39
11.15
7.61
3.79
-0.17
-4.09
-7.87
-11.50
-15.11
-18.84
-22.75
-26.88
-31.20
-35.69
-40.33
-44.96
-49.13
-52.01
-52.49
-49.43
-42.23
-31.10
-17.26
-2.59
10.91
21.75
29.34
33.91
36.15
36.80
36.33
35.05
33.20
31.28
29.93
29.74
30.86
32.87
34.89
36.03
35.77
34.28
32.24
30.46
29.44
29.14
29.04
28.47
26.94
24.33
20.96
17.31
13.78
10.55
7.45
4.10
0.04
-5.08
-11.39
-18.70
-26.46
-33.86
-39.93
-43.74
-44.65
-42.37
-37.15
-29.67
-20.89
-11.78
-3.12
4.71
11.63
17.73
23.05
27.47
30.68
32.40
32.55
31.42
29.65
28.01
27.14
27.31
28.37
29.84
31.08
31.53
30.91
29.28
27.02
24.72
22.88
21.68
20.94
20.11
18.61
16.03
12.39
8.03
3.44
-1.04
-5.30
-9.48
-13.78
-18.38
-23.38
-28.82
-34.68
-40.86
-47.03
-52.60
-56.72
-58.55
-57.41
-53.13
-46.03
-36.91
-26.78
-16.64
-7.26
0.95
7.81
13.25
17.17
19.47
20.19
19.67
18.52
17.57
17.48
18.45
20.19
22.09
23.53
24.20
24.25
24.10
24.21
24.81
25.69
26.41
26.38
25.20
22.74
19.24
15.12
10.83
6.69
2.77
-0.99
-4.79
-8.72
-12.83
-17.10
-21.56
-26.23
-31.16
-36.20
-40.99
-44.91
-47.20
-47.24
-44.72
-39.84
-33.21
-25.66
-18.00
-10.80
-4.37
1.15
5.69
9.09
11.22
12.03
11.76
10.90
10.12
10.01
10.88
12.64
14.94
17.28
19.29
20.80
21.77
22.26
22.30
21.81
20.69
18.92
16.56
13.80
10.91
8.12
5.63
3.50
1.68
-0.04
-1.97
-4.47
-7.92
-12.50
-18.14
-24.33
-30.22
-34.75
-36.94
-36.19
-32.37
-25.95
-17.77
-8.87
-0.21
7.46
13.75
18.60
22.20
24.86
26.91
28.57
29.93
31.00
31.75
32.17
32.30
32.22
32.09
31.97
31.89
31.67
31.08
29.88
27.98
25.47
22.62
19.64
16.62
13.43
9.84
5.69
1.10
-3.56
-7.80
-11.31
-14.10
-16.52
-19.08
-22.27
-26.37
-31.38
-37.11
-43.17
-49.05
-54.15
-57.77
-59.20
-57.89
-53.61
-46.61
-37.59
-27.60
-17.74
-8.92
-1.63
4.07
8.45
11.82
14.41
16.20
17.13
17.26
16.83
16.29
16.15
16.66
17.83
19.39
20.95
22.25
23.15
23.69
23.93
23.88
23.47
22.60
21.27
19.55
17.59
15.51
13.39
11.21
8.92
6.50
3.98
1.42
-1.22
-4.07
-7.34
-11.31
-16.17
-22.00
-28.64
-35.65
-42.29
-47.68
-50.88
-51.19
-48.34
-42.59
-34.64
-25.38
-15.70
-6.24
2.51
10.28
16.78
21.84
25.39
27.52
28.49
28.63
28.26
27.59
26.82
26.11
25.65
25.57
25.86
26.32
26.62
26.40
25.43
23.74
21.56
19.26
17.19
15.57
14.41
13.50
12.52
11.10
9.02
6.25
3.01
-0.34
-3.46
-6.18
-8.58
-10.99
-13.83
-17.48
-22.11
-27.60
-33.47
-38.93
-43.07
-45.01
-44.15
-40.29
-33.76
-25.26
-15.72
-6.12
2.75
10.34
16.41
20.99
24.36
26.92
29.08
31.14
33.20
35.10
36.57
37.30
37.20
36.36
35.00
33.37
31.53
29.42
26.92
24.01
20.80
17.45
14.07
10.64
7.10
3.40
-0.33
-3.83
-6.85
-9.25
-11.04
-12.41
-13.57
-14.86
-16.64
-19.33
-23.34
-28.89
-35.81
-43.40
-50.51
-55.75
-57.80
-55.85
-49.81
-40.40
-28.91
-16.84
-5.46
4.48
12.77
19.54
25.04
29.42
32.77
35.14
36.69
37.66
38.33
38.92
39.52
40.13
40.71
41.18
41.47
41.43
40.90
39.74
37.96
35.61
32.77
29.55
26.07
22.49
19.03
15.91
13.17
10.68
8.05
4.88
0.95
-3.63
-8.46
-13.13
-17.52
-21.96
-27.05
-33.46
-41.47
-50.94
-61.28
-71.60
-80.90
-88.10
-92.17
-92.33
-88.22
-80.23
-69.42
-57.38
-45.70
-35.55
-27.39
-21.14
-16.47
-13.10
-11.02
-10.29
-10.83
-12.25
-13.87
-15.06
-15.45
-15.08
-14.28
-13.30
-12.11
-10.37
-7.57
-3.56
1.37
6.44
10.77
13.77
15.39
16.10
16.49
16.99
17.61
17.99
17.67
16.38
14.16
11.35
8.41
5.73
3.48
1.60
-0.17
-2.21
-4.93
-8.76
-13.92
-20.33
-27.47
-34.35
-39.74
-42.33
-41.18
-35.96
-27.02
-15.38
-2.40
10.49
22.12
31.76
39.12
44.37
47.93
50.35
52.09
53.51
54.83
56.12
57.30
58.13
58.29
57.45
55.45
52.41
48.79
45.16
41.99
39.32
36.80
33.73
29.33
23.10
14.93
5.18
-5.46
-16.07
-25.69
-33.44
-38.62
-40.96
-40.65
-38.40
-35.28
-32.46
-30.88
-31.06
-32.99
-36.32
-40.50
-44.96
-49.15
-52.53
-54.49
-54.34
-51.54
-45.78
-37.27
-26.70
-15.09
-3.51
7.21
16.55
24.34
30.50
34.99
37.72
38.65
38.05
36.48
34.76
33.65
33.64
34.70
36.36
37.93
38.82
38.78
37.92
36.57
35.07
33.60
32.10
30.33
28.01
24.95
21.14
16.72
12.03
7.43
3.26
-0.21
-2.93
-5.02
-6.90
-9.08
-12.08
-16.16
-21.12
-26.32
-30.75
-33.32
-33.24
-30.26
-24.69
-17.29
-9.03
-0.84
6.58
12.79
17.63
21.12
23.37
24.49
24.58
23.78
22.25
20.26
18.11
16.09
14.41
13.20
12.51
12.29
12.40
12.55
12.38
11.53
9.78
7.15
3.93
0.55
-2.51
-4.81
-6.02
-5.96
-4.76
-2.81
-0.84
0.30
-0.11
-2.45
-6.64
-12.29
-18.86
-25.99
-33.53
-41.42
-49.37
-56.65
-62.06
-64.20
-61.91
-54.75
-43.11
-28.24
-11.77
4.54
19.25
31.35
40.27
45.94
48.63
48.82
47.13
44.16
40.49
36.64
33.08
30.17
28.03
26.42
24.80
22.56
19.30
15.04
10.32
5.90
2.39
-0.03
-1.68
-3.19
-5.24
-8.27
-12.31
-17.08
-22.07
-26.81
-30.98
-34.51
-37.51
-40.32
-43.35
-46.97
-51.42
-56.58
-61.97
-66.76
-69.97
-70.77
-68.75
-64.01
-57.13
-48.94
-40.26
-31.71
-23.66
-16.31
-9.83
-4.48
-0.59
1.49
1.59
-0.17
-3.30
-7.11
-10.83
-13.86
-15.84
-16.72
-16.54
-15.43
-13.51
-11.04
-8.42
-6.25
-5.16
-5.57
-7.65
-11.17
-15.65
-20.52
-25.32
-29.74
-33.67
-37.13
-40.26
-43.27
-46.45
-49.91
-53.53
-56.78
-58.77
-58.57
-55.56
-49.71
-41.62
-32.29
-22.69
-13.44
-4.72
3.54
11.35
18.41
24.24
28.30
30.36
30.60
29.62
28.21
27.10
26.78
27.38
28.80
30.66
32.55
34.01
34.66
34.27
32.86
30.62
27.89
25.02
22.20
19.53
16.93
14.21
11.13
7.40
2.67
-3.34
-10.73
-19.18
-27.86
-35.36
-40.17
-41.09
-37.73
-30.68
-21.23
-10.93
-1.02
7.81
15.44
22.01
27.63
32.16
35.31
36.78
36.58
35.06
32.89
30.83
29.45
28.98
29.22
29.74
30.04
29.85
29.15
28.16
27.17
26.29
25.49
24.55
23.22
21.31
18.73
15.52
11.78
7.68
3.37
-1.02
-5.43
-9.85
-14.41
-19.36
-25.09
-32.05
-40.52
-50.36
-60.80
-70.41
-77.47
-80.44
-78.45
-71.59
-60.81
-47.51
-33.09
-18.62
-4.77
8.07
19.57
29.40
37.26
42.99
46.75
49.02
50.45
51.62
52.90
54.31
55.66
56.70
57.32
57.61
57.81
58.09
58.41
58.50
57.92
56.37
53.77
50.36
46.57
42.84
39.42
36.26
33.12
29.66
25.64
21.01
15.93
10.65
5.47
0.56
-4.02
-8.37
-12.72
-17.43
-22.93
-29.55
-37.30
-45.67
-53.58
-59.64
-62.50
-61.31
-55.94
-47.03
-35.68
-23.13
-10.50
1.41
12.11
21.38
29.20
35.69
41.09
45.65
49.60
53.08
56.14
58.77
60.93
62.57
63.60
63.94
63.56
62.53
61.01
59.28
57.61
56.14
54.77
53.20
51.04
48.06
44.25
39.90
35.41
31.08
27.01
23.05
18.93
14.45
9.52
4.22
-1.24
-6.73
-12.16
-17.58
-23.08
-28.80
-34.85
-41.31
-48.22
-55.47
-62.75
-69.46
-74.78
-77.74
-77.54
-73.81
-66.76
-57.11
-45.87
-34.06
-22.46
-11.55
-1.59
7.23
14.72
20.73
25.20
28.25
30.17
31.44
32.52
33.74
35.26
36.99
38.71
40.20
41.36
42.25
43.03
43.80
44.49
44.88
44.68
43.70
41.94
39.62
37.01
34.32
31.61
28.85
26.02
23.21
20.55
18.09
15.70
13.09
9.92
6.02
1.50
-3.29
-7.95
-12.30
-16.42
-20.60
-25.16
-30.33
-36.07
-42.18
-48.29
-53.80
-57.95
-59.86
-58.82
-54.55
-47.42
-38.38
-28.63
-19.25
-10.93
-3.97
1.62
5.89
8.94
10.96
12.28
13.33
14.46
15.82
17.29
18.63
19.58
20.02
20.00
19.62
19.00
18.26
17.52
16.92
16.52
16.27
15.98
15.46
14.56
13.30
11.80
10.25
8.77
7.41
6.17
5.01
3.87
2.62
1.13
-0.73
-3.00
-5.60
-8.37
-11.12
-13.70
-16.10
-18.37
-20.55
-22.74
-24.99
-27.47
-30.34
-33.79
-37.76
-41.94
-45.67
-48.12
-48.58
-46.65
-42.49
-36.67
-30.07
-23.55
-17.70
-12.77
-8.73
-5.47
-2.85
-0.84
0.60
1.57
2.28
2.98
3.88
5.04
6.32
7.48
8.29
8.65
8.59
8.23
7.73
7.21
6.77
6.45
6.27
6.16
6.08
5.95
5.72
5.35
4.80
4.02
2.94
1.57
0.02
-1.54
-2.89
-3.93
-4.78
-5.71
-7.05
-8.93
-11.23
-13.58
-15.59
-17.10
-18.22
-19.32
-20.84
-23.04
-25.98
-29.49
-33.22
-36.71
-39.40
-40.69
-40.07
-37.25
-32.40
-26.14
-19.40
-13.16
-8.14
-4.64
-2.60
-1.65
-1.38
-1.40
-1.40
-1.20
-0.77
-0.17
0.45
1.02
1.52
2.09
2.85
3.85
5.05
6.25
7.24
7.90
8.25
8.44
8.61
8.79
8.92
8.80
8.34
7.53
6.52
5.48
4.52
3.60
2.52
1.11
-0.75
-3.03
-5.54
-8.04
-10.28
-12.10
-13.40
-14.23
-14.73
-15.16
-15.78
-16.82
-18.42
-20.71
-23.73
-27.39
-31.35
-34.91
-37.13
-37.11
-34.42
-29.29
-22.64
-15.71
-9.56
-4.77
-1.32
1.21
3.23
4.93
6.28
7.14
7.35
6.94
6.11
5.12
4.28
3.81
3.80
4.20
4.89
5.70
6.55
7.38
8.15
8.75
9.05
8.93
8.40
7.59
6.69
5.86
5.13
4.43
3.63
2.63
1.43
0.05
-1.44
-2.96
-4.41
-5.69
-6.74
-7.57
-8.32
-9.14
-10.14
-11.37
-12.83
-14.56
-16.72
-19.55
-23.18
-27.50
-32.02
-35.98
-38.58
-39.20
-37.57
-33.86
-28.60
-22.43
-16.00
-9.74
-3.97
1.14
5.40
8.64
10.78
11.91
12.35
12.46
12.56
12.69
12.65
12.15
10.96
9.10
6.83
4.48
2.37
0.72
-0.31
-0.65
-0.26
0.73
2.03
3.27
4.06
4.20
3.76
2.91
1.94
0.97
-0.02
-1.17
-2.68
-4.66
-7.15
-10.02
-13.11
-16.25
-19.33
-22.30
-25.22
-28.25
-31.57
-35.35
-39.53
-43.71
-47.14
-48.88
-48.16
-44.71
-38.88
-31.57
-23.82
-16.44
-9.83
-3.99
1.14
5.55
9.02
11.32
12.40
12.51
12.13
11.80
11.87
12.45
13.37
14.38
15.27
15.97
16.56
17.25
18.27
19.75
21.66
23.78
25.71
26.99
27.21
26.17
23.93
20.78
17.20
13.59
10.21
7.00
3.67
-0.25
-5.16
-11.30
-18.66
-27.11
-36.38
-46.17
-56.00
-65.17
-72.71
-77.63
-79.24
-77.37
-72.52
-65.56
-57.40
-48.73
-39.85
-30.92
-22.20
-14.21
-7.65
-3.11
-0.73
-0.12
-0.44
-0.75
-0.31
1.22
3.74
6.93
10.36
13.62
16.44
18.63
20.08
20.77
20.74
20.11
18.98
17.40
15.36
12.75
9.50
5.63
1.34
-3.07
-7.26
-11.03
-14.41
-17.69
-21.35
-25.78
-31.09
-36.87
-42.19
-45.81
-46.51
-43.48
-36.65
-26.71
-14.85
-2.41
9.51
20.23
29.42
36.93
42.69
46.59
48.69
49.28
48.94
48.38
48.29
49.00
50.46
52.22
53.67
54.27
53.78
52.30
50.21
47.97
45.88
43.92
41.82
39.16
35.57
30.92
25.35
19.18
12.79
6.54
0.67
-4.75
-9.83
-14.99
-20.82
-27.96
-36.81
-47.27
-58.64
-69.60
-78.49
-83.73
-84.20
-79.54
-70.26
-57.57
-43.09
-28.42
-14.84
-3.08
6.57
14.22
20.13
24.56
27.80
30.14
31.94
33.56
35.31
37.30
39.49
41.72
43.83
45.70
47.32
48.65
49.62
50.09
49.93
49.15
47.87
46.33
44.71
42.99
40.98
38.33
34.70
29.92
24.03
17.32
10.23
3.21
-3.41
-9.61
-15.68
-22.24
-29.92
-39.13
-49.69
-60.61
-70.21
-76.59
-78.15
-74.13
-64.88
-51.65
-36.22
-20.38
-5.54
7.49
18.37
27.11
33.91
39.07
42.99
46.09
48.81
51.41
54.04
56.62
58.98
61.00
62.64
63.99
65.16
66.21
67.08
67.44
66.94
65.19
62.00
57.45
51.84
45.63
39.22
32.90
26.73
20.65
14.62
8.71
3.13
-1.85
-6.02
-9.36
-12.11
-14.69
-17.62
-21.36
-26.27
-32.48
-39.79
-47.55
-54.53
-59.12
-59.64
-54.87
-44.58
-29.66
-11.91
6.57
23.95
39.12
51.70
61.70
69.25
74.44
77.42
78.54
78.44
77.87
77.42
77.28
77.27
76.99
76.16
74.83
73.34
72.18
71.63
71.51
71.14
69.51
65.79
59.65
51.49
42.31
33.24
25.05
17.85
11.18
4.45
-2.68
-9.94
-16.75
-22.56
-27.35
-31.64
-36.35
-42.34
-50.11
-59.61
-70.25
-80.94
-90.25
-96.57
-98.45
-95.00
-86.23
-73.30
-58.14
-43.00
-29.77
-19.39
-11.93
-6.77
-3.11
-0.35
1.86
3.67
5.22
6.82
8.86
11.67
15.32
19.60
24.06
28.24
31.78
34.53
36.52
37.83
38.57
38.77
38.44
37.65
36.46
34.89
32.81
29.91
25.89
20.52
13.95
6.60
-0.91
-8.12
-14.89
-21.37
-27.91
-34.87
-42.45
-50.71
-59.57
-68.67
-77.28
-84.23
-88.02
-87.35
-81.62
-71.23
-57.54
-42.37
-27.47
-14.09
-2.86
6.08
12.77
17.40
20.25
21.69
22.25
22.51
22.99
23.97
25.52
27.49
29.62
31.65
33.31
34.43
34.89
34.69
33.85
32.47
30.62
28.36
25.71
22.68
19.30
15.56
11.42
6.75
1.46
-4.48
-10.88
-17.40
-23.64
-29.33
-34.53
-39.69
-45.47
-52.53
-61.21
-71.24
-81.67
-90.93
-97.19
-98.82
-94.88
-85.36
-71.28
-54.32
-36.41
-19.24
-3.96
8.86
19.12
26.98
32.74
36.78
39.53
41.50
43.19
45.03
47.25
49.79
52.31
54.37
55.58
55.82
55.26
54.25
53.10
51.94
50.54
48.49
45.34
40.93
35.39
29.19
22.87
16.86
11.27
5.97
0.65
-4.93
-10.84
-16.92
-22.88
-28.47
-33.59
-38.33
-42.98
-47.93
-53.67
-60.63
-69.01
-78.54
-88.35
-96.94
-102.53
-103.46
-98.81
-88.68
-74.21
-57.23
-39.65
-23.04
-8.32
4.18
14.51
22.82
29.22
33.75
36.57
38.08
38.84
39.58
40.81
42.73
45.11
47.49
49.40
50.61
51.16
51.23
50.99
50.45
49.46
47.90
45.75
43.19
40.45
37.68
34.84
31.66
27.83
23.08
17.39
10.92
3.99
-3.03
-9.85
-16.30
-22.37
-28.23
-34.22
-40.78
-48.41
-57.40
-67.65
-78.37
-88.15
-95.16
-97.67
-94.66
-86.09
-73.00
-57.10
-40.24
-23.95
-9.19
3.60
14.25
22.69
28.93
33.10
35.58
37.01
38.14
39.64
41.84
44.70
47.81
50.64
52.75
53.90
54.13
53.66
52.69
51.31
49.45
46.98
43.85
40.09
35.96
31.72
27.61
23.71
19.94
16.11
12.05
7.68
3.12
-1.46
-5.88
-10.10
-14.22
-18.51
-23.36
-29.16
-36.15
-44.16
-52.50
-59.94
-64.91
-65.91
-61.99
-53.16
-40.36
-25.26
-9.77
4.49
16.45
25.66
32.16
36.24
38.32
38.84
38.27
37.12
35.89
34.97
34.56
34.65
35.03
35.42
35.61
35.48
35.05
34.37
33.42
32.08
30.14
27.38
23.69
19.15
13.99
8.53
3.10
-2.18
-7.36
-12.63
-18.17
-23.99
-29.94
-35.71
-41.05
-45.95
-50.61
-55.50
-61.07
-67.65
-75.17
-83.05
-90.21
-95.20
-96.62
-93.43
-85.43
-73.28
-58.39
-42.48
-27.13
-13.41
-1.82
7.56
14.83
20.09
23.42
24.96
25.12
24.61
24.28
24.92
26.91
30.10
33.86
37.35
39.82
40.90
40.64
39.40
37.65
35.66
33.51
31.01
27.90
23.98
19.22
13.81
8.10
2.51
-2.64
-7.18
-11.24
-15.15
-19.40
-24.51
-30.84
-38.53
-47.26
-56.28
-64.34
-69.94
-71.65
-68.53
-60.47
-48.35
-33.75
-18.48
-4.15
8.27
18.34
26.04
31.43
34.50
35.35
34.28
31.97
29.32
27.28
26.53
27.33
29.44
32.27
35.10
37.22
38.13
37.60
35.73
32.77
29.09
24.93
20.38
15.37
9.79
3.65
-2.91
-9.59
-16.05
-22.09
-27.66
-32.84
-37.85
-42.97
-48.56
-55.02
-62.68
-71.53
-81.08
-90.16
-97.08
-100.10
-97.93
-90.20
-77.65
-61.88
-44.89
-28.55
-14.22
-2.59
6.26
12.62
17.00
19.92
21.91
23.38
24.68
26.12
27.87
30.05
32.62
35.39
38.06
40.26
41.72
42.31
42.07
41.18
39.84
38.18
36.22
33.85
30.90
27.17
22.56
17.11
10.94
4.34
-2.39
-8.92
-15.07
-20.85
-26.48
-32.35
-38.91
-46.53
-55.17
-64.34
-72.93
-79.46
-82.37
-80.51
-73.45
-61.73
-46.64
-29.92
-13.32
1.84
14.84
25.53
34.10
40.90
46.16
50.07
52.76
54.44
55.40
55.96
56.38
56.78
57.12
57.29
57.29
57.19
57.11
57.07
56.93
56.34
54.89
52.27
48.42
43.51
37.84
31.78
25.61
19.55
13.85
8.68
4.12
0.06
-3.88
-8.24
-13.61
-20.46
-29.04
-39.21
-50.39
-61.54
-71.24
-77.91
-80.20
-77.36
-69.49
-57.56
-43.09
-27.76
-13.01
0.18
11.24
19.96
26.32
30.46
32.70
33.58
33.72
33.77
34.22
35.31
36.95
38.79
40.36
41.24
41.32
40.78
40.03
39.55
39.57
39.95
40.15
39.50
37.48
33.95
29.27
24.11
19.21
15.11
11.99
9.66
7.63
5.30
2.13
-2.24
-7.84
-14.33
-20.92
-26.49
-29.64
-29.10
-24.03
-14.31
-0.70
15.40
32.28
48.28
62.20
73.27
81.19
85.99
87.94
87.52
85.40
82.36
79.18
76.47
74.50
73.24
72.41
71.67
70.74
69.60
68.61
68.67
71.20
77.87
90.07
108.22
131.32
156.94
181.77
202.39
216.02
220.86
216.05
201.49
177.81
146.40
109.51
70.05
31.03
-5.17
-37.22
-64.92
-88.75
-109.21
-126.44
-140.18
-150.07
-156.05
-158.43
-157.92
-155.28
-151.08
-145.57
-138.70
-130.32
-120.35
-108.80
-95.82
-81.54
-66.06
-49.50
-32.14
-14.59
2.24
17.14
28.82
36.05
37.88
33.78
23.82
8.75
-10.04
-30.73
-51.44
-70.61
-87.26
-101.05
-112.14
-120.94
-127.98
-133.78
-138.89
-143.89
-149.31
-155.52
-162.47
-169.57
-175.62
-179.00
-178.07
-171.72
-159.82
-143.29
-123.95
-103.93
-85.08
-68.53
-54.61
-43.08
-33.52
-25.63
-19.32
-14.55
-11.13
-8.49
-5.77
-2.12
2.93
9.21
15.95
22.00
26.42
28.74
29.14
28.27
26.86
25.47
24.25
23.01
21.45
19.24
16.28
12.63
8.54
4.29
0.17
-3.71
-7.34
-10.89
-14.59
-18.70
-23.56
-29.54
-36.86
-45.38
-54.34
-62.29
-67.39
-68.01
-63.33
-53.77
-40.83
-26.57
-12.88
-0.97
8.68
16.17
21.66
25.31
27.17
27.46
26.67
25.56
24.95
25.41
27.05
29.44
31.80
33.39
33.81
33.28
32.44
32.12
32.86
34.66
36.85
38.42
38.39
36.21
31.98
26.38
20.30
14.53
9.48
5.04
0.82
-3.81
-9.40
-16.34
-24.72
-34.17
-43.76
-51.97
-57.00
-57.21
-51.76
-40.92
-26.12
-9.45
6.97
21.60
33.71
43.30
50.73
56.38
60.47
63.05
64.13
63.87
62.56
60.61
58.38
56.07
53.63
50.93
47.90
44.58
41.15
37.83
34.73
31.72
28.48
24.64
19.91
14.25
7.81
0.94
-5.96
-12.46
-18.27
-23.25
-27.53
-31.47
-35.61
-40.51
-46.61
-54.08
-62.74
-71.94
-80.54
-87.05
-89.83
-87.61
-79.97
-67.53
-51.94
-35.38
-19.86
-6.71
3.65
11.55
17.58
22.25
25.74
28.01
28.99
28.87
28.09
27.35
27.31
28.41
30.69
33.78
37.09
39.94
41.83
42.49
41.94
40.34
37.91
34.78
31.01
26.55
21.37
15.57
9.39
3.21
-2.59
-7.77
-12.36
-16.63
-20.96
-25.70
-31.05
-37.15
-44.06
-51.83
-60.26
-68.68
-75.88
-80.23
-80.26
-75.16
-65.26
-51.90
-36.96
-22.21
-8.71
3.23
13.84
23.38
31.85
38.96
44.36
47.96
50.05
51.26
52.23
53.34
54.61
55.77
56.49
56.68
56.51
56.36
56.55
57.14
57.79
57.94
57.04
54.79
51.25
46.77
41.78
36.58
31.25
25.73
19.95
13.92
7.80
1.75
-4.14
-9.99
-16.16
-23.11
-31.28
-40.89
-51.73
-62.94
-73.02
-80.10
-82.42
-78.97
-69.91
-56.59
-41.15
-25.74
-11.97
-0.54
8.56
15.70
21.17
25.06
27.38
28.20
27.79
26.58
25.05
23.56
22.33
21.49
21.09
21.17
21.78
22.83
24.11
25.24
25.78
25.36
23.77
21.08
17.57
13.61
9.53
5.48
1.48
-2.55
-6.66
-10.85
-15.07
-19.28
-23.50
-27.81
-32.39
-37.49
-43.32
-49.96
-57.18
-64.20
-69.78
-72.34
-70.54
-63.74
-52.33
-37.68
-21.67
-6.17
7.57
18.97
28.05
35.02
40.01
43.02
44.05
43.30
41.23
38.59
36.17
34.51
33.84
33.98
34.50
34.95
34.93
34.26
32.92
31.00
28.52
25.44
21.59
16.84
11.20
4.91
-1.59
-7.83
-13.47
-18.46
-23.04
-27.68
-32.85
-38.95
-46.26
-54.75
-63.99
-73.03
-80.40
-84.38
-83.56
-77.32
-66.10
-51.26
-34.66
-18.07
-2.78
10.46
21.28
29.51
35.06
37.98
38.62
37.65
35.97
34.46
33.76
34.14
35.43
37.19
38.82
39.77
39.78
38.85
37.30
35.49
33.72
32.00
30.05
27.48
23.89
19.13
13.28
6.62
-0.47
-7.63
-14.55
-21.05
-27.09
-32.84
-38.72
-45.35
-53.37
-63.09
-74.13
-85.34
-94.80
-100.41
-100.46
-94.26
-82.36
-66.39
-48.52
-30.81
-14.71
-0.98
10.25
19.13
25.88
30.76
34.01
35.93
36.94
37.54
38.19
39.21
40.80
42.89
45.30
47.75
49.95
51.71
52.99
53.85
54.35
54.46
53.95
52.46
49.60
45.14
39.23
32.31
25.00
17.89
11.25
5.05
-0.99
-7.24
-14.00
-21.46
-29.73
-38.80
-48.44
-58.07
-66.60
-72.56
-74.46
-71.26
-62.85
-50.15
-34.87
-19.02
-4.33
8.08
17.80
24.90
29.65
32.30
33.12
32.56
31.32
30.31
30.41
32.12
35.32
39.31
43.01
45.49
46.23
45.33
43.33
40.88
38.41
35.89
32.93
28.95
23.58
16.81
9.07
1.07
-6.50
-13.16
-18.73
-23.24
-26.88
-29.92
-32.81
-36.24
-40.91
-47.14
-54.44
-61.32
-65.61
-65.26
-59.18
-47.70
-32.42
-15.57
0.84
15.49
27.82
37.71
45.10
49.91
52.07
51.86
50.00
47.59
45.76
45.25
46.20
48.13
50.15
51.41
51.44
50.30
48.42
46.31
44.19
41.87
38.87
34.66
29.03
22.24
14.89
7.70
1.13
-4.81
-10.54
-16.76
-24.12
-33.03
-43.45
-54.79
-65.91
-75.26
-81.19
-82.43
-78.45
-69.70
-57.44
-43.38
-29.12
-15.77
-3.83
6.60
15.53
22.87
28.43
32.12
34.11
34.91
35.22
35.68
36.69
38.23
40.00
41.52
42.38
42.36
41.45
39.84
37.76
35.43
32.88
29.99
26.51
22.22
17.08
11.28
5.23
-0.68
-6.15
-11.22
-16.13
-21.31
-27.21
-34.29
-42.86
-52.97
-64.18
-75.42
-85.00
-91.01
-91.82
-86.70
-76.11
-61.55
-45.05
-28.55
-13.42
-0.33
10.62
19.55
26.59
31.77
35.20
37.13
38.06
38.63
39.43
40.74
42.54
44.51
46.25
47.50
48.24
48.60
48.74
48.67
48.17
46.91
44.55
40.94
36.15
30.44
24.15
17.60
11.09
4.90
-0.79
-5.87
-10.47
-14.92
-19.78
-25.68
-33.16
-42.47
-53.39
-65.19
-76.49
-85.51
-90.44
-89.88
-83.40
-71.62
-56.20
-39.22
-22.67
-7.91
4.44
14.31
21.90
27.35
30.76
32.31
32.42
31.82
31.36
31.73
33.24
35.70
38.56
41.15
42.96
43.86
43.99
43.66
43.12
42.52
41.77
40.58
38.63
35.55
31.18
25.61
19.23
12.54
6.05
0.04
-5.54
-10.95
-16.57
-22.81
-29.92
-38.11
-47.36
-57.30
-66.98
-74.82
-78.93
-77.72
-70.56
-58.08
-42.11
-25.02
-8.95
4.76
15.67
23.99
30.12
34.46
37.26
38.82
39.56
39.94
40.38
41.07
41.95
42.88
43.69
44.36
44.93
45.40
45.70
45.61
44.91
43.42
41.10
38.07
34.51
30.60
26.44
22.07
17.40
12.27
6.53
0.08
-6.96
-14.29
-21.44
-27.97
-33.66
-38.67
-43.55
-49.13
-56.22
-65.22
-75.82
-86.81
-96.28
-102.08
-102.47
-96.66
-85.13
-69.39
-51.49
-33.40
-16.58
-1.83
10.56
20.54
28.19
33.59
37.02
38.94
39.94
40.69
41.67
43.11
44.97
46.99
48.85
50.32
51.32
51.90
52.16
52.18
51.80
50.73
48.63
45.25
40.65
35.16
29.32
23.60
18.25
13.15
7.91
2.07
-4.59
-12.01
-19.77
-27.35
-34.33
-40.60
-46.45
-52.38
-59.02
-66.85
-75.92
-85.76
-95.22
-102.65
-106.30
-104.79
-97.62
-85.40
-69.62
-52.16
-34.74
-18.50
-4.04
8.36
18.52
26.25
31.54
34.68
36.42
37.72
39.43
42.05
45.53
49.43
53.18
56.34
58.81
60.67
62.10
63.17
63.75
63.55
62.19
59.44
55.32
50.13
44.44
38.79
33.51
28.60
23.72
18.44
12.46
5.79
-1.24
-8.19
-14.71
-20.71
-26.32
-31.87
-37.75
-44.32
-51.86
-60.31
-69.11
-76.96
-82.13
-82.90
-78.15
-67.95
-53.52
-36.87
-20.12
-4.89
7.99
18.35
26.33
32.10
35.77
37.45
37.51
36.56
35.37
34.66
34.80
35.75
37.12
38.35
39.07
39.14
38.68
37.83
36.66
35.03
32.69
29.50
25.58
21.32
17.17
13.46
10.18
7.04
3.63
-0.38
-5.11
-10.42
-16.02
-21.61
-26.92
-31.90
-36.63
-41.43
-46.76
-53.05
-60.44
-68.48
-76.00
-81.36
-82.87
-79.44
-70.97
-58.44
-43.55
-28.16
-13.73
-1.16
9.16
17.13
22.67
25.73
26.42
25.16
22.65
19.79
17.38
15.93
15.56
16.07
17.09
18.25
19.24
19.90
20.08
19.72
18.76
17.15
14.93
12.15
8.92
5.29
1.29
-3.07
-7.77
-12.68
-17.56
-22.20
-26.47
-30.44
-34.32
-38.42
-43.03
-48.38
-54.59
-61.59
-68.97
-75.86
-80.89
-82.49
-79.37
-70.99
-57.93
-41.74
-24.49
-8.11
6.09
17.57
26.34
32.64
36.70
38.61
38.58
36.97
34.39
31.63
29.34
27.98
27.58
27.84
28.29
28.43
27.93
26.66
24.69
22.21
19.41
16.42
13.26
9.89
6.23
2.22
-2.19
-6.92
-11.84
-16.73
-21.34
-25.44
-28.90
-31.72
-34.14
-36.65
-39.91
-44.58
-51.03
-59.03
-67.53
-74.78
-78.73
-77.65
-70.76
-58.52
-42.50
-24.79
-7.42
8.21
21.41
32.03
40.15
45.82
49.06
50.03
49.18
47.29
45.26
43.86
43.50
44.15
45.44
46.83
47.83
48.13
47.59
46.21
44.06
41.19
37.64
33.43
28.60
23.24
17.54
11.75
6.11
0.85
-4.01
-8.56
-13.00
-17.58
-22.41
-27.61
-33.26
-39.54
-46.73
-55.00
-64.14
-73.24
-80.79
-84.91
-84.02
-77.43
-65.64
-50.23
-33.28
-16.72
-1.84
10.82
21.21
29.53
35.88
40.20
42.53
43.08
42.49
41.64
41.46
42.61
45.24
48.96
52.98
56.42
58.62
59.31
58.66
57.06
54.97
52.64
50.03
46.90
42.90
37.80
31.62
24.63
17.27
9.98
3.02
-3.62
-10.13
-16.68
-23.44
-30.43
-37.71
-45.40
-53.57
-61.93
-69.61
-75.15
-76.78
-73.12
-63.74
-49.42
-31.96
-13.48
4.18
19.88
33.18
44.03
52.45
58.40
61.94
63.34
63.28
62.78
62.87
64.28
67.13
70.98
75.00
78.37
80.56
81.51
81.50
80.92
79.94
78.39
75.78
71.58
65.52
57.75
48.91
39.80
31.11
23.13
15.66
8.26
0.32
-8.56
-18.56
-29.50
-40.86
-51.72
-60.76
-66.48
-67.62
-63.55
-54.62
-42.04
-27.53
-12.85
0.70
12.29
21.48
27.94
31.36
31.49
28.38
22.64
15.42
8.14
2.10
-1.98
-4.15
-5.11
-5.91
-7.39
-9.92
-13.26
-16.81
-19.94
-22.36
-24.25
-26.12
-28.57
-31.97
-36.39
-41.58
-47.14
-52.69
-57.97
-62.90
-67.56
-72.18
-77.10
-82.73
-89.50
-97.58
-106.74
-116.15
-124.33
-129.44
-129.68
-123.92
-112.08
-95.25
-75.39
-54.84
-35.60
-18.97
-5.41
5.28
13.62
20.11
25.15
29.00
31.84
33.93
35.51
36.80
37.91
38.83
39.50
39.85
39.92
39.77
39.47
38.95
38.02
36.48
34.20
31.26
27.94
24.55
21.34
18.33
15.37
12.14
8.34
3.78
-1.59
-7.66
-14.20
-20.96
-27.77
-34.68
-42.02
-50.36
-60.27
-71.93
-84.78
-97.33
-107.36
-112.50
-111.00
-102.34
-87.49
-68.56
-48.11
-28.42
-10.90
4.02
16.53
27.05
35.80
42.79
47.95
51.37
53.47
54.85
56.13
57.72
59.61
61.60
63.38
64.79
65.88
66.80
67.58
67.99
67.57
65.77
62.20
56.92
50.39
43.41
36.80
31.06
26.24
21.87
17.29
12.00
5.90
-0.66
-7.13
-13.03
-18.29
-23.34
-28.94
-35.90
-44.74
-55.35
-66.84
-77.60
-85.53
-88.58
-85.32
-75.43
-59.90
-40.76
-20.51
-1.42
14.99
28.10
38.00
45.09
49.75
52.22
52.71
51.50
49.05
45.93
42.72
39.85
37.56
35.94
35.05
34.94
35.65
37.13
39.10
41.05
42.37
42.50
41.19
38.50
34.75
30.35
25.60
20.65
15.55
10.29
4.91
-0.52
-5.93
-11.32
-16.78
-22.46
-28.52
-35.14
-42.47
-50.56
-59.18
-67.65
-74.73
-78.86
-78.47
-72.68
-61.63
-46.62
-29.74
-13.18
1.36
13.09
21.93
28.25
32.40
34.56
34.86
33.55
31.18
28.58
26.57
25.65
25.87
26.81
27.88
28.55
28.58
28.01
27.06
25.96
24.80
23.54
22.02
20.18
17.97
15.52
13.00
10.61
8.50
6.69
5.02
3.18
0.70
-2.91
-8.10
-15.05
-23.62
-33.16
-42.49
-50.01
-54.03
-53.16
-46.86
-35.60
-20.86
-4.64
11.06
24.75
35.68
43.68
48.94
51.73
52.28
50.88
47.95
44.14
40.25
37.03
34.98
34.17
34.31
34.80
34.97
34.34
32.71
30.22
27.25
24.18
21.26
18.44
15.47
12.00
7.81
2.87
-2.57
-8.20
-13.67
-18.86
-23.84
-28.92
-34.56
-41.23
-49.31
-58.87
-69.46
-79.99
-88.82
-94.01
-93.91
-87.70
-75.70
-59.34
-40.68
-21.78
-4.22
11.10
23.78
33.72
40.79
44.93
46.22
45.10
42.41
39.15
36.29
34.50
34.02
34.71
36.11
37.60
38.54
38.43
37.01
34.36
30.86
27.00
23.24
19.75
16.40
12.86
8.72
3.75
-2.05
-8.42
-15.03
-21.58
-27.91
-34.06
-40.23
-46.79
-54.15
-62.63
-72.11
-81.85
-90.33
-95.53
-95.47
-88.91
-75.91
-57.94
-37.45
-17.08
1.03
15.77
26.91
34.77
39.77
42.23
42.41
40.70
37.78
34.59
32.00
30.54
30.16
30.32
30.27
29.44
27.67
25.23
22.60
20.22
18.24
16.44
14.38
11.56
7.62
2.49
-3.54
-9.89
-15.85
-20.82
-24.57
-27.30
-29.65
-32.39
-36.23
-41.57
-48.43
-56.34
-64.28
-70.77
-73.96
-72.16
-64.34
-50.68
-32.64
-12.61
6.81
23.54
36.50
45.54
51.12
53.83
54.18
52.56
49.40
45.34
41.14
37.55
35.01
33.56
32.81
32.16
31.12
29.43
27.17
24.64
22.11
19.69
17.16
14.17
10.31
5.37
-0.55
-7.03
-13.55
-19.67
-25.19
-30.24
-35.18
-40.46
-46.51
-53.68
-62.13
-71.74
-81.88
-91.30
-98.21
-100.62
-97.00
-86.80
-70.83
-51.01
-29.81
-9.53
8.25
22.82
34.11
42.36
47.80
50.63
51.16
49.91
47.67
45.34
43.70
43.19
43.88
45.42
47.24
48.75
49.43
49.03
47.54
45.13
42.02
38.36
34.17
29.36
23.82
17.52
10.54
3.17
-4.20
-11.19
-17.53
-23.21
-28.58
-34.19
-40.73
-48.79
-58.66
-70.19
-82.63
-94.56
-104.09
-109.19
-108.19
-100.39
-86.33
-67.74
-46.99
-26.40
-7.66
8.44
21.80
32.71
41.44
48.17
52.98
56.05
57.70
58.35
58.40
58.19
57.91
57.67
57.51
57.38
57.13
56.49
55.14
52.84
49.48
45.17
40.20
34.93
29.65
24.52
19.52
14.50
9.29
3.72
-2.24
-8.50
-14.85
-21.11
-27.20
-33.21
-39.39
-46.07
-53.63
-62.29
-71.93
-81.82
-90.49
-95.90
-95.98
-89.36
-75.92
-56.96
-34.80
-12.08
9.04
27.23
42.01
53.45
61.79
67.31
70.34
71.34
70.88
69.66
68.25
66.99
65.99
65.21
64.54
63.95
63.40
62.82
61.97
60.55
58.22
54.84
50.54
45.68
40.74
36.11
31.90
27.96
23.94
19.45
14.24
8.30
1.85
-4.71
-11.03
-16.96
-22.64
-28.48
-35.09
-43.02
-52.63
-63.79
-75.75
-87.07
-95.72
-99.59
-97.06
-87.63
-72.16
-52.76
-32.12
-12.79
3.52
16.16
25.31
31.57
35.51
37.47
37.68
36.48
34.50
32.57
31.50
31.77
33.32
35.65
38.02
39.77
40.55
40.34
39.39
38.02
36.40
34.50
32.07
28.76
24.31
18.64
12.00
4.83
-2.29
-8.97
-14.99
-20.44
-25.59
-30.70
-36.07
-41.91
-48.42
-55.72
-63.69
-71.76
-78.74
-82.94
-82.65
-76.70
-65.08
-48.98
-30.52
-12.03
4.67
18.56
29.44
37.48
42.93
45.94
46.72
45.74
43.82
41.97
41.01
41.35
42.81
44.75
46.41
47.16
46.70
45.12
42.76
40.10
37.50
35.06
32.59
29.64
25.81
20.94
15.28
9.36
3.77
-1.19
-5.58
-9.79
-14.38
-19.79
-26.29
-33.99
-42.82
-52.41
-61.95
-70.03
-74.85
-74.74
-68.72
-57.05
-41.25
-23.63
-6.59
8.08
19.57
27.89
33.46
36.75
38.00
37.33
34.98
31.44
27.50
23.98
21.54
20.37
20.20
20.44
20.44
19.79
18.38
16.43
14.24
12.08
9.98
7.81
5.27
2.07
-2.02
-7.02
-12.73
-18.81
-24.83
-30.43
-35.44
-39.95
-44.28
-48.90
-54.29
-60.82
-68.66
-77.60
-86.86
-94.97
-99.93
-99.72
-92.96
-79.53
-60.78
-39.14
-17.39
2.20
18.38
30.86
39.95
46.16
49.87
51.38
51.11
49.64
47.74
46.09
45.10
44.78
44.85
45.00
45.04
44.97
44.84
44.61
44.00
42.63
40.16
36.58
32.18
27.49
22.99
18.90
15.05
11.02
6.41
1.04
-4.92
-11.11
-17.09
-22.61
-27.68
-32.56
-37.71
-43.63
-50.80
-59.46
-69.35
-79.51
-88.29
-93.55
-93.35
-86.57
-73.38
-55.30
-34.68
-14.04
4.68
20.39
32.82
42.13
48.59
52.47
54.09
54.01
53.05
52.18
52.16
53.26
55.24
57.42
59.17
60.16
60.49
60.52
60.50
60.35
59.53
57.41
53.55
48.04
41.48
34.71
28.45
22.96
17.96
12.85
6.99
-0.07
-8.37
-17.62
-27.27
-36.73
-45.49
-53.32
-60.31
-66.86
-73.65
-81.37
-90.37
-100.41
-110.39
-118.51
-122.64
-121.00
-112.75
-98.38
-79.54
-58.59
-37.92
-19.32
-3.77
8.53
17.83
24.54
29.06
31.79
33.13
33.62
33.85
34.42
35.77
38.07
41.16
44.55
47.62
49.80
50.75
50.44
49.09
46.99
44.41
41.43
38.00
33.98
29.32
24.09
18.47
12.72
7.05
1.58
-3.75
-9.08
-14.57
-20.37
-26.61
-33.44
-41.04
-49.56
-58.85
-68.17
-76.04
-80.55
-79.88
-73.09
-60.55
-43.92
-25.60
-7.96
7.35
19.58
28.74
35.22
39.36
41.51
42.04
41.47
40.52
39.91
40.10
41.17
42.77
44.31
45.15
44.81
43.12
40.27
36.64
32.74
28.98
25.53
22.32
19.02
15.27
10.76
5.43
-0.57
-6.89
-13.19
-19.19
-24.81
-30.15
-35.48
-41.15
-47.57
-55.17
-64.19
-74.47
-85.21
-94.83
-101.25
-102.42
-97.07
-85.15
-68.09
-48.25
-28.27
-10.20
4.86
16.73
25.83
32.60
37.35
40.22
41.39
41.24
40.34
39.33
38.73
38.82
39.67
41.13
43.02
45.08
47.00
48.42
48.97
48.35
46.39
43.11
38.75
33.70
28.41
23.19
18.13
13.04
7.54
1.31
-5.71
-13.25
-20.75
-27.61
-33.45
-38.41
-43.10
-48.53
-55.66
-65.01
-76.25
-88.02
-98.10
-104.00
-103.64
-96.12
-81.96
-63.02
-41.88
-21.13
-2.78
12.08
23.19
30.88
35.74
38.44
39.65
39.97
39.92
39.92
40.20
40.82
41.69
42.73
43.93
45.40
47.26
49.53
51.95
54.01
55.02
54.41
51.92
47.74
42.51
36.98
31.86
27.44
23.64
19.99
15.95
11.09
5.31
-1.14
-7.78
-14.14
-19.99
-25.40
-30.74
-36.54
-43.33
-51.50
-61.16
-71.91
-82.63
-91.49
-96.24
-94.87
-86.38
-71.30
-51.63
-30.22
-9.86
7.62
21.50
32.01
39.68
44.97
48.09
49.23
48.75
47.26
45.47
43.87
42.64
41.63
40.58
39.37
38.07
36.96
36.28
36.08
36.06
35.71
34.45
31.89
28.08
23.43
18.56
14.06
10.21
6.90
3.77
0.39
-3.46
-7.74
-12.15
-16.36
-20.12
-23.36
-26.27
-29.21
-32.71
-37.35
-43.58
-51.47
-60.33
-68.71
-74.55
-75.80
-71.15
-60.56
-45.35
-27.76
-10.17
5.56
18.48
28.36
35.39
39.78
41.67
41.21
38.79
35.12
31.11
27.59
25.09
23.72
23.29
23.41
23.71
23.92
23.84
23.35
22.38
20.98
19.23
17.26
15.14
12.78
10.00
6.54
2.28
-2.74
-8.31
-14.08
-19.75
-25.09
-30.00
-34.57
-38.97
-43.58
-48.78
-54.85
-61.68
-68.55
-74.09
-76.56
-74.36
-66.57
-53.38
-36.11
-16.83
2.18
19.03
32.55
42.35
48.59
51.77
52.43
51.09
48.25
44.42
40.25
36.38
33.39
31.54
30.77
30.66
30.66
30.32
29.45
28.13
26.53
24.81
22.96
20.87
18.37
15.32
11.62
7.21
2.10
-3.60
-9.70
-15.86
-21.71
-26.97
-31.54
-35.57
-39.47
-43.82
-49.25
-56.30
-65.06
-74.90
-84.42
-91.55
-94.14
-90.64
-80.69
-65.28
-46.48
-26.76
-8.33
7.38
19.78
28.92
35.16
38.94
40.64
40.64
39.40
37.49
35.51
33.94
33.11
33.10
33.71
34.64
35.49
35.94
35.75
34.78
32.99
30.36
26.96
22.90
18.31
13.35
8.09
2.60
-3.09
-8.92
-14.77
-20.53
-26.08
-31.34
-36.34
-41.17
-46.03
-51.22
-57.06
-63.65
-70.66
-77.09
-81.29
-81.37
-75.90
-64.52
-48.26
-29.18
-9.74
8.06
23.07
35.00
44.06
50.46
54.29
55.48
54.21
51.00
46.76
42.55
39.20
37.15
36.25
35.98
35.64
34.72
33.00
30.69
28.16
25.72
23.44
20.99
17.85
13.56
7.92
1.15
-6.24
-13.59
-20.36
-26.25
-31.24
-35.58
-39.74
-44.27
-49.73
-56.51
-64.57
-73.20
-80.96
-85.91
-86.05
-80.09
-67.88
-50.66
-30.59
-10.13
8.68
24.73
37.71
47.91
55.73
61.39
64.93
66.34
65.77
63.65
60.65
57.51
54.82
52.81
51.38
50.14
48.62
46.50
43.70
40.37
36.71
32.90
28.98
24.87
20.41
15.43
9.81
3.53
-3.28
-10.32
-17.21
-23.60
-29.29
-34.34
-39.08
-44.06
-49.91
-57.20
-66.13
-76.34
-86.67
-95.22
-99.73
-98.23
-89.75
-74.78
-55.12
-33.37
-12.01
7.17
23.36
36.49
46.79
54.50
59.75
62.76
63.95
63.94
63.45
62.99
62.81
62.83
62.87
62.76
62.42
61.90
61.19
60.22
58.84
56.78
53.86
49.96
45.15
39.67
33.81
27.88
22.01
16.25
10.43
4.41
-1.97
-8.69
-15.54
-22.24
-28.54
-34.46
-40.34
-46.90
-54.88
-64.70
-75.94
-87.10
-95.88
-99.79
-97.02
-87.14
-71.28
-51.69
-31.00
-11.36
5.94
20.50
32.37
41.71
48.56
52.92
55.01
55.35
54.73
53.97
53.68
54.12
55.21
56.66
58.16
59.47
60.46
61.00
60.98
60.24
58.54
55.71
51.66
46.48
40.51
34.22
28.12
22.51
17.41
12.51
7.28
1.30
-5.57
-13.10
-20.78
-28.08
-34.69
-40.70
-46.45
-52.47
-59.28
-67.32
-76.76
-87.25
-97.74
-106.37
-110.85
-109.08
-100.01
-84.16
-63.58
-41.17
-19.73
-1.19
13.74
25.25
34.01
40.56
45.27
48.28
49.86
50.42
50.51
50.66
51.09
51.81
52.54
53.06
53.24
53.16
52.92
52.52
51.80
50.44
48.19
44.99
41.05
36.72
32.40
28.27
24.27
20.10
15.40
9.93
3.70
-3.03
-9.83
-16.29
-22.18
-27.52
-32.64
-38.07
-44.43
-52.28
-61.80
-72.54
-83.23
-91.90
-96.30
-94.57
-85.94
-71.03
-51.79
-30.83
-10.64
7.04
21.43
32.58
40.88
46.74
50.41
52.11
52.21
51.34
50.33
49.92
50.55
52.16
54.30
56.41
58.01
58.97
59.39
59.34
58.78
57.40
54.87
51.02
46.05
40.47
34.86
29.54
24.39
18.97
12.71
5.28
-3.22
-12.33
-21.43
-30.04
-38.00
-45.50
-52.89
-60.64
-69.13
-78.54
-88.69
-98.86
-107.75
-113.57
-114.52
-109.29
-97.72
-80.93
-61.10
-40.80
-22.26
-6.87
4.93
13.36
18.86
21.83
22.64
21.77
19.90
17.91
16.53
16.22
16.95
18.37
19.91
21.08
21.57
21.27
20.28
18.79
17.06
15.28
13.48
11.56
9.28
6.41
2.83
-1.31
-5.66
-9.71
-13.02
-15.39
-16.99
-18.29
-20.02
-22.89
-27.37
-33.51
-40.74
-47.94
-53.56
-55.93
-53.74
-46.36
-34.19
-18.53
-1.38
15.21
29.52
40.54
47.94
51.98
53.15
52.06
49.29
45.37
40.88
36.38
32.39
29.26
27.13
25.85
25.07
24.36
23.38
22.07
20.58
19.20
18.17
17.60
17.33
17.02
16.19
14.38
11.28
6.81
1.16
-5.21
-11.69
-17.71
-22.93
-27.38
-31.48
-35.93
-41.51
-48.80
-57.92
-68.23
-78.31
-86.12
-89.44
-86.58
-76.92
-61.30
-41.75
-20.94
-1.33
15.42
28.62
38.47
45.43
49.96
52.24
52.35
50.47
47.08
42.99
39.11
36.20
34.66
34.37
34.84
35.43
35.55
34.87
33.29
30.93
27.97
24.54
20.63
16.19
11.15
5.58
-0.35
-6.32
-12.06
-17.36
-22.24
-26.89
-31.66
-36.85
-42.64
-49.09
-56.23
-64.13
-72.81
-82.06
-91.04
-98.21
-101.54
-99.13
-90.06
-74.85
-55.46
-34.64
-14.94
1.92
15.39
25.74
33.52
39.10
42.60
43.99
43.46
41.63
39.49
38.06
38.02
39.39
41.54
43.50
44.49
44.29
43.28
42.16
41.44
41.03
40.28
38.26
34.31
28.36
20.98
13.06
5.39
-1.56
-7.71
-13.27
-18.61
-24.11
-30.17
-37.18
-45.42
-54.90
-65.06
-74.67
-81.97
-85.00
-82.29
-73.39
-59.20
-41.74
-23.52
-6.79
7.08
17.75
25.55
31.06
34.62
36.30
36.10
34.23
31.25
27.99
25.26
23.56
22.90
22.93
23.17
23.23
22.95
22.36
21.56
20.62
19.55
18.28
16.72
14.72
12.11
8.76
4.62
-0.20
-5.39
-10.61
-15.51
-19.96
-24.05
-28.12
-32.65
-38.19
-45.27
-54.25
-64.98
-76.57
-87.29
-94.87
-97.03
-92.37
-80.81
-63.73
-43.54
-22.89
-3.87
12.34
25.46
35.78
43.68
49.39
53.10
55.04
55.59
55.38
55.02
54.95
55.41
56.35
57.57
58.80
59.75
60.14
59.71
58.29
55.84
52.50
48.49
44.01
39.11
33.70
27.66
20.97
13.81
6.46
-0.75
-7.65
-14.22
-20.54
-26.70
-32.77
-38.90
-45.44
-52.95
-61.94
-72.41
-83.40
-92.95
-98.52
-97.90
-90.04
-75.50
-56.33
-35.29
-14.97
2.93
17.78
29.69
39.07
46.21
51.27
54.38
55.83
56.24
56.34
56.79
57.85
59.36
60.85
61.87
62.21
62.00
61.53
60.99
60.30
59.03
56.70
53.02
48.05
42.22
36.10
30.07
24.27
18.45
12.27
5.41
-2.19
-10.31
-18.50
-26.27
-33.33
-39.76
-45.96
-52.63
-60.52
-70.14
-81.41
-93.42
-104.43
-112.15
-114.35
-109.59
-97.68
-79.91
-58.52
-36.16
-15.02
3.45
18.69
30.66
39.56
45.63
49.17
50.61
50.69
50.24
50.03
50.58
51.96
53.84
55.79
57.39
58.49
59.12
59.35
59.08
58.05
55.86
52.28
47.38
41.54
35.29
28.98
22.71
16.32
9.58
2.41
-5.05
-12.48
-19.58
-26.22
-32.48
-38.54
-44.69
-51.24
-58.57
-66.92
-76.19
-85.55
-93.38
-97.51
-95.97
-87.75
-73.31
-54.55
-34.11
-14.51
2.60
16.70
28.05
37.22
44.50
49.87
53.13
54.19
53.35
51.32
49.08
47.60
47.60
49.39
52.77
57.16
61.85
66.18
69.86
72.86
75.43
77.78
79.91
81.56
82.32
81.80
79.85
76.58
72.34
67.60
62.89
58.65
55.27
53.05
52.06
52.20
53.06
54.00
54.30
53.54
51.99
50.69
51.09
54.20
59.83
66.31
71.01
71.46
66.44
56.42
43.08
28.41
13.75
-0.48
-14.47
-28.33
-41.71
-53.84
-63.95
-71.74
-77.48
-81.87
-85.63
-89.21
-92.67
-95.78
-98.24
-99.90
-100.90
-101.60
-102.56
-104.25
-106.89
-110.39
-114.33
-118.08
-121.07
-122.90
-123.51
-123.21
-122.58
-122.33
-123.04
-125.08
-128.44
-132.71
-137.04
-140.15
-140.48
-136.37
-126.59
-110.78
-89.75
-65.38
-40.19
-16.63
3.57
19.65
31.72
40.42
46.46
50.41
52.64
53.49
53.41
52.99
52.82
53.29
54.47
56.00
57.31
57.88
57.48
56.24
54.49
52.56
50.53
48.20
45.18
41.11
35.80
29.40
22.29
15.03
8.14
1.98
-3.36
-8.14
-12.87
-18.21
-24.78
-32.97
-42.74
-53.52
-64.20
-73.08
-78.23
-77.89
-71.09
-58.01
-40.07
-19.60
0.87
19.29
34.44
46.01
54.27
59.66
62.56
63.22
62.00
59.46
56.48
53.97
52.61
52.52
53.20
53.74
53.23
51.14
47.52
42.90
38.00
33.35
29.17
25.32
21.50
17.47
13.09
8.48
3.80
-0.73
-4.93
-8.79
-12.47
-16.25
-20.55
-25.70
-31.97
-39.48
-48.13
-57.52
-66.79
-74.53
-78.99
-78.47
-71.98
-59.65
-42.91
-24.04
-5.49
10.86
24.04
33.93
40.82
45.07
46.89
46.45
44.07
40.36
36.20
32.43
29.63
27.96
27.13
26.61
25.86
24.56
22.70
20.48
18.14
15.82
13.41
10.61
7.05
2.46
-3.19
-9.68
-16.58
-23.42
-29.81
-35.59
-40.83
-45.86
-51.20
-57.36
-64.81
-73.71
-83.80
-94.16
-103.19
-108.81
-108.87
-101.89
-87.68
-67.58
-44.22
-20.70
0.31
17.28
29.94
38.86
44.87
48.52
50.09
49.77
48.09
45.93
44.37
44.19
45.55
47.91
50.34
52.01
52.48
51.86
50.55
48.94
47.20
45.17
42.54
39.00
34.35
28.59
21.90
14.55
6.93
-0.53
-7.54
-13.93
-19.81
-25.55
-31.68
-38.78
-47.32
-57.49
-68.96
-80.72
-91.04
-97.72
-98.65
-92.43
-78.95
-59.61
-36.90
-13.69
7.56
25.37
39.28
49.62
56.99
61.98
65.05
66.58
67.00
66.78
66.37
66.02
65.76
65.39
64.64
63.37
61.59
59.45
57.16
54.82
52.35
49.50
45.96
41.47
35.96
29.56
22.57
15.34
8.17
1.25
-5.30
-11.41
-17.01
-22.08
-26.73
-31.24
-36.10
-41.96
-49.47
-58.98
-70.23
-82.15
-92.78
-99.67
-100.49
-93.84
-79.77
-59.82
-36.60
-13.00
8.60
26.77
40.98
51.31
58.10
61.68
62.41
60.80
57.62
53.89
50.62
48.57
47.99
48.56
49.55
50.16
49.81
48.36
46.05
43.26
40.30
37.09
33.26
28.27
21.69
13.48
4.02
-5.95
-15.61
-24.22
-31.41
-37.14
-41.76
-45.79
-49.87
-54.61
-60.45
-67.58
-75.64
-83.66
-90.00
-92.78
-90.43
-82.29
-68.96
-52.09
-33.91
-16.39
-0.82
12.35
23.12
31.60
37.61
40.81
40.98
38.38
33.92
28.99
25.05
23.22
23.96
26.98
31.42
36.13
40.02
42.39
42.98
42.01
40.00
37.43
34.59
31.48
27.92
23.76
19.04
14.03
9.08
4.40
-0.06
-4.57
-9.51
-15.16
-21.64
-28.99
-37.27
-46.58
-56.82
-67.29
-76.45
-82.07
-81.86
-74.37
-59.67
-39.52
-16.79
5.47
24.92
40.42
51.82
59.60
64.29
66.43
66.43
64.84
62.32
59.56
57.11
55.25
53.97
53.04
52.24
51.38
50.41
49.35
48.16
46.76
44.96
42.54
39.38
35.56
31.30
26.95
22.77
18.86
15.15
11.47
7.66
3.70
-0.37
-4.46
-8.54
-12.71
-17.22
-22.43
-28.83
-36.79
-46.33
-56.86
-66.91
-74.33
-76.73
-72.31
-60.47
-42.19
-19.85
3.45
24.68
41.55
52.92
58.68
59.55
56.63
51.21
44.55
37.68
31.37
25.99
21.55
17.86
14.71
12.15
10.53
10.35
12.02
15.48
20.08
24.76
28.38
30.19
30.02
28.25
25.53
22.48
19.40
16.24
12.54
7.44
-0.19
-11.57
-27.49
-47.96
-71.98
-97.78
-123.48
-147.72
-170.11
-190.98
-210.79
-229.54
-246.40
-259.73
-267.60
-268.28
-260.83
-245.37
-223.27
-196.93
-169.33
-143.36
-121.18
-103.82
-91.20
-82.41
-76.18
-71.18
-66.20
-60.19
-52.41
-42.69
-31.66
-20.67
-11.39
-5.15
-2.29
-2.04
-2.80
-2.91
-1.52
0.94
2.88
2.25
-2.46
-11.41
-23.31
-35.86
-46.82
-54.82
-59.91
-63.26
-66.62
-71.46
-78.40
-87.04
-96.07
-103.60
-107.65
-106.53
-99.29
-85.91
-67.46
-45.89
-23.63
-3.06
13.99
26.57
34.58
38.68
40.07
40.20
40.48
42.05
45.51
50.84
57.49
64.63
71.49
77.56
82.68
86.92
90.37
93.05
94.88
95.82
95.89
95.26
94.15
92.74
91.13
89.31
87.18
84.53
80.99
76.08
69.43
60.98
51.40
42.21
35.62
33.95
39.00
51.35
70.11
93.20
117.92
141.67
162.51
179.27
191.40
198.77
201.44
199.78
194.55
187.03
178.79
171.33
165.50
161.26
157.79
153.86
148.58
141.71
133.92
126.30
119.90
115.18
111.79
108.75
104.86
99.18
91.38
81.71
70.79
59.31
47.75
36.25
24.73
12.98
0.66
-12.53
-26.72
-41.65
-56.40
-69.33
-78.35
-81.54
-77.88
-67.66
-52.46
-34.58
-16.30
0.73
15.65
28.20
38.34
45.94
50.90
53.15
52.99
51.06
48.29
45.66
43.93
43.38
43.80
44.59
45.12
44.90
43.80
42.00
39.79
37.43
34.96
32.17
28.73
24.21
18.22
10.57
1.30
-9.23
-20.40
-31.51
-41.97
-51.48
-60.16
-68.52
-77.34
-87.43
-99.25
-112.46
-125.60
-136.18
-141.30
-138.54
-126.92
-107.39
-82.51
-55.59
-29.64
-6.66
12.45
27.57
38.83
46.33
50.24
51.02
49.63
47.42
45.71
45.36
46.48
48.50
50.56
51.96
52.48
52.34
51.89
51.42
50.77
49.50
47.04
43.00
37.34
30.43
22.93
15.49
8.51
1.97
-4.52
-11.58
-19.66
-28.83
-38.66
-48.33
-57.01
-64.17
-69.81
-74.51
-79.27
-85.20
-93.14
-103.24
-114.60
-125.32
-132.79
-134.42
-128.45
-114.59
-94.08
-69.33
-43.20
-18.19
3.92
22.26
36.56
46.92
53.56
56.81
57.19
55.49
52.69
49.80
47.62
46.52
46.39
46.81
47.35
47.80
48.27
49.05
50.25
51.70
52.81
52.87
51.25
47.76
42.60
36.37
29.75
23.42
17.76
12.87
8.49
4.14
-0.74
-6.51
-13.19
-20.36
-27.35
-33.56
-38.73
-43.18
-47.68
-53.19
-60.52
-69.91
-80.85
-91.97
-101.27
-106.52
-105.90
-98.55
-84.89
-66.55
-45.91
-25.42
-7.05
8.08
19.58
27.55
32.27
34.10
33.46
30.99
27.53
24.06
21.45
20.23
20.49
21.82
23.60
25.16
26.10
26.36
26.11
25.57
24.76
23.50
21.45
18.37
14.25
9.42
4.48
-0.02
-3.64
-6.37
-8.51
-10.64
-13.29
-16.72
-20.80
-25.08
-28.98
-32.08
-34.38
-36.27
-38.47
-41.68
-46.46
-52.97
-60.92
-69.49
-77.30
-82.58
-83.56
-79.04
-68.74
-53.58
-35.44
-16.58
0.88
15.52
26.61
34.06
38.05
38.95
37.25
33.59
28.86
24.05
20.05
17.47
16.48
16.76
17.73
18.76
19.37
19.41
18.96
18.27
17.50
16.73
15.86
14.74
13.26
11.42
9.35
7.25
5.33
3.62
1.91
-0.22
-3.25
-7.53
-13.03
-19.29
-25.58
-31.16
-35.67
-39.17
-42.14
-45.24
-49.06
-53.96
-59.91
-66.35
-72.13
-75.62
-75.04
-69.13
-57.69
-41.89
-23.99
-6.60
8.15
19.15
26.29
30.09
31.16
29.95
26.76
22.05
16.61
11.48
7.67
5.77
5.78
7.13
9.02
10.74
11.93
12.55
12.80
12.89
12.86
12.59
11.83
10.40
8.28
5.70
2.97
0.45
-1.71
-3.68
-5.80
-8.54
-12.08
-16.27
-20.60
-24.49
-27.59
-29.97
-32.11
-34.73
-38.44
-43.68
-50.39
-58.03
-65.50
-71.26
-73.60
-71.16
-63.40
-50.92
-35.40
-19.11
-4.18
7.91
16.62
22.13
25.00
25.79
24.83
22.37
18.67
14.22
9.73
5.98
3.57
2.72
3.27
4.71
6.52
8.30
9.85
11.16
12.18
12.74
12.60
11.48
9.33
6.37
3.07
-0.06
-2.66
-4.68
-6.41
-8.26
-10.62
-13.61
-17.03
-20.51
-23.67
-26.31
-28.56
-30.80
-33.55
-37.25
-42.02
-47.52
-52.83
-56.59
-57.23
-53.49
-44.92
-32.11
-16.68
-0.76
13.69
25.37
33.81
39.20
41.95
42.46
41.06
38.09
34.16
30.07
26.64
24.48
23.77
24.28
25.52
26.93
28.09
28.68
28.59
27.77
26.20
23.92
20.97
17.47
13.64
9.74
6.03
2.57
-0.78
-4.37
-8.50
-13.28
-18.47
-23.60
-28.22
-32.05
-35.17
-37.99
-41.08
-45.04
-50.27
-56.77
-63.98
-70.67
-75.12
-75.53
-70.65
-60.33
-45.64
-28.67
-11.79
3.02
14.66
22.92
28.22
31.14
32.17
31.58
29.58
26.47
22.77
19.18
16.43
15.04
15.21
16.67
18.91
21.28
23.26
24.50
24.85
24.25
22.75
20.44
17.55
14.31
10.99
7.71
4.43
1.01
-2.68
-6.68
-10.85
-14.97
-18.86
-22.51
-26.05
-29.78
-34.08
-39.31
-45.78
-53.44
-61.77
-69.59
-75.16
-76.67
-72.77
-63.16
-48.81
-31.67
-14.07
2.00
15.28
25.34
32.32
36.59
38.53
38.53
37.03
34.65
32.05
29.93
28.77
28.85
30.16
32.39
35.04
37.45
39.00
39.21
37.94
35.37
31.92
28.06
24.09
20.14
16.14
12.03
7.83
3.69
-0.23
-3.88
-7.36
-10.91
-14.78
-19.01
-23.45
-27.88
-32.29
-37.01
-42.72
-50.05
-59.13
-69.14
-78.33
-84.41
-85.30
-79.89
-68.48
-52.60
-34.58
-16.78
-1.00
11.78
21.29
27.67
31.20
32.17
30.96
28.17
24.70
21.62
19.83
19.85
21.66
24.70
28.17
31.35
33.82
35.53
36.62
37.27
37.57
37.49
36.98
36.04
34.64
32.75
30.23
26.91
22.69
17.66
12.15
6.67
1.67
-2.57
-6.08
-9.24
-12.61
-16.90
-22.66
-30.06
-38.60
-47.09
-53.77
-56.83
-54.93
-47.77
-36.16
-21.80
-6.71
7.26
18.86
27.50
33.05
35.64
35.58
33.31
29.44
24.86
20.52
17.32
15.80
16.02
17.46
19.34
20.88
21.58
21.46
20.91
20.43
20.31
20.44
20.31
19.31
16.97
13.23
8.43
3.17
-1.95
-6.53
-10.55
-14.20
-17.80
-21.67
-26.09
-31.33
-37.65
-45.05
-53.04
-60.45
-65.45
-66.14
-61.20
-50.56
-35.47
-18.13
-0.87
14.56
27.35
37.43
45.00
50.12
52.68
52.64
50.35
46.74
43.09
40.58
39.89
40.95
43.09
45.40
47.05
47.62
47.07
45.56
43.31
40.44
36.98
32.93
28.32
23.24
17.84
12.28
6.73
1.32
-3.84
-8.73
-13.39
-17.94
-22.51
-27.34
-32.74
-39.11
-46.75
-55.61
-64.98
-73.39
-78.83
-79.29
-73.45
-61.20
-43.68
-22.99
-1.53
18.63
36.07
50.17
60.94
68.70
73.95
77.13
78.62
78.85
78.23
77.23
76.27
75.66
75.45
75.43
75.17
74.19
72.07
68.56
63.62
57.31
49.81
41.37
32.37
23.27
14.58
6.74
-0.01
-5.65
-10.38
-14.50
-18.30
-22.00
-25.79
-29.83
-34.33
-39.60
-46.06
-54.14
-64.09
-75.60
-87.57
-98.11
-104.87
-105.77
-99.71
-87.06
-69.54
-49.70
-30.13
-12.75
1.44
12.29
20.08
25.15
27.80
28.31
27.09
24.81
22.41
20.76
20.49
21.71
24.04
26.77
29.11
30.56
30.88
30.21
28.79
26.87
24.58
21.83
18.46
14.27
9.24
3.52
-2.49
-8.29
-13.48
-17.86
-21.58
-25.06
-28.82
-33.33
-38.93
-45.86
-54.19
-63.73
-73.77
-82.92
-89.26
-90.70
-85.76
-74.11
-56.84
-36.18
-14.74
5.16
22.04
35.33
45.08
51.68
55.54
57.10
56.87
55.46
53.62
52.08
51.42
51.95
53.65
56.16
58.90
61.22
62.53
62.44
60.85
57.83
53.61
48.47
42.73
36.62
30.33
23.97
17.48
10.77
3.75
-3.52
-10.81
-17.78
-24.16
-29.89
-35.24
-40.76
-47.20
-55.12
-64.66
-75.17
-85.14
-92.50
-95.12
-91.53
-81.42
-65.83
-46.80
-26.77
-7.92
8.27
21.15
30.74
37.44
41.83
44.44
45.74
46.18
46.13
45.98
46.08
46.66
47.81
49.42
51.23
52.99
54.52
55.72
56.56
56.86
56.37
54.72
51.64
47.18
41.69
35.72
29.78
24.10
18.61
13.03
7.18
1.05
-5.13
-11.15
-16.94
-22.69
-28.80
-35.79
-44.15
-54.06
-65.28
-76.93
-87.45
-94.79
-96.97
-92.73
-82.05
-66.29
-47.76
-29.05
-12.17
1.68
12.24
19.83
24.97
28.23
30.21
31.54
32.87
34.76
37.49
41.01
44.98
48.86
52.15
54.53
55.88
56.20
55.57
54.01
51.53
48.14
43.91
39.04
33.83
28.59
23.63
19.03
14.67
10.23
5.30
-0.38
-6.79
-13.59
-20.20
-26.11
-31.13
-35.54
-40.01
-45.47
-52.68
-61.89
-72.61
-83.44
-92.34
-97.10
-96.04
-88.53
-75.30
-58.16
-39.49
-21.45
-5.56
7.44
17.39
24.37
28.61
30.40
30.28
29.03
27.55
26.59
26.54
27.33
28.54
29.71
30.55
31.06
31.43
31.85
32.34
32.74
32.76
32.18
30.88
28.95
26.61
24.08
21.50
18.81
15.83
12.30
8.05
3.04
-2.48
-8.11
-13.49
-18.45
-23.20
-28.30
-34.49
-42.40
-52.10
-62.86
-73.09
-80.64
-83.45
-80.23
-70.91
-56.69
-39.72
-22.32
-6.44
6.76
16.87
24.04
28.69
31.30
32.34
32.30
31.66
30.88
30.33
30.27
30.85
32.07
33.87
36.05
38.36
40.52
42.22
43.20
43.30
42.43
40.65
38.10
35.02
31.56
27.80
23.73
19.28
14.40
9.12
3.55
-2.11
-7.69
-13.05
-18.16
-23.09
-28.04
-33.38
-39.57
-46.99
-55.62
-64.76
-72.91
-78.07
-78.35
-72.63
-61.09
-45.24
-27.44
-10.18
4.63
16.03
23.97
28.90
31.40
31.91
30.74
28.26
25.00
21.72
19.25
18.23
18.90
21.02
23.98
26.95
29.16
30.12
29.66
27.95
25.36
22.29
19.09
15.95
12.90
9.89
6.87
3.81
0.77
-2.21
-5.07
-7.79
-10.40
-13.00
-15.75
-18.93
-22.98
-28.33
-35.20
-43.20
-51.15
-57.08
-58.79
-54.62
-44.16
-28.54
-10.08
8.55
25.27
39.08
50.00
58.61
65.35
70.27
73.09
73.64
72.26
69.86
67.80
67.33
69.23
73.51
79.45
85.85
91.54
95.82
98.66
100.72
103.05
106.62
112.00
118.99
126.53
132.75
135.22
131.51
119.70
99.07
70.46
36.14
-0.64
-36.57
-69.19
-97.37
-121.40
-142.36
-161.31
-178.43
-192.76
-202.37
-205.18
-199.89
-186.62
-167.10
-144.17
-121.00
-100.33
-83.95
-72.65
-66.39
-64.51
-65.93
-69.33
-73.21
-76.16
-77.08
-75.42
-71.26
-65.25
-58.35
-51.53
-45.43
-40.20
-35.49
-30.64
-25.13
-18.89
-12.53
-7.16
-3.94
-3.61
-6.06
-10.45
-15.50
-20.13
-23.85
-26.93
-30.14
-34.38
-40.31
-48.14
-57.57
-67.76
-77.31
-84.40
-87.09
-83.93
-74.45
-59.55
-41.23
-22.02
-4.22
10.77
22.47
31.12
37.18
41.02
42.82
42.78
41.28
38.95
36.59
34.89
34.13
34.13
34.33
34.12
33.18
31.70
30.32
29.77
30.49
32.27
34.29
35.38
34.55
31.39
26.21
19.91
13.47
7.63
2.56
-2.03
-6.78
-12.35
-19.29
-27.95
-38.22
-49.43
-60.12
-68.25
-71.63
-68.69
-59.14
-44.14
-25.95
-7.17
10.06
24.51
35.79
44.04
49.50
52.34
52.78
51.25
48.56
45.71
43.70
43.08
43.86
45.52
47.29
48.50
48.85
48.48
47.85
47.33
47.00
46.41
44.84
41.58
36.32
29.41
21.68
14.16
7.60
2.23
-2.31
-6.75
-11.95
-18.66
-27.30
-37.71
-48.99
-59.39
-66.61
-68.39
-63.36
-51.63
-34.86
-15.75
2.90
19.06
31.81
41.26
47.93
52.33
54.70
55.10
53.72
51.04
47.91
45.32
44.08
44.53
46.35
48.71
50.53
51.00
49.81
47.32
44.27
41.37
38.83
36.29
32.93
27.93
20.96
12.38
3.14
-5.66
-13.17
-19.19
-24.11
-28.72
-33.95
-40.49
-48.83
-58.99
-70.50
-82.19
-92.24
-98.43
-98.76
-92.24
-79.23
-61.59
-41.94
-22.88
-6.23
7.38
18.12
26.56
33.13
37.93
40.88
42.06
41.85
41.01
40.38
40.64
42.05
44.38
46.99
49.10
50.05
49.48
47.48
44.44
40.88
37.17
33.41
29.39
24.79
19.38
13.14
6.35
-0.53
-7.08
-13.02
-18.37
-23.39
-28.47
-33.96
-40.19
-47.41
-55.87
-65.72
-76.67
-87.74
-97.11
-102.42
-101.53
-93.38
-78.52
-59.07
-37.96
-17.98
-0.95
12.55
22.76
30.34
35.71
39.06
40.53
40.42
39.43
38.50
38.47
39.81
42.38
45.54
48.48
50.50
51.32
50.99
49.83
48.15
46.11
43.69
40.73
37.04
32.46
26.97
20.72
14.00
7.24
0.83
-5.01
-10.33
-15.44
-20.83
-26.96
-34.20
-42.73
-52.47
-62.99
-73.29
-81.79
-86.59
-85.93
-78.95
-66.02
-48.86
-29.92
-11.69
4.11
16.72
26.24
33.14
37.83
40.56
41.48
40.95
39.56
38.14
37.43
37.84
39.36
41.52
43.80
45.66
46.85
47.27
46.99
46.04
44.37
41.91
38.53
34.21
29.01
23.16
16.95
10.69
4.64
-1.03
-6.25
-11.00
-15.31
-19.19
-22.74
-26.20
-29.99
-34.75
-41.03
-49.00
-58.11
-66.95
-73.47
-75.53
-71.66
-61.61
-46.48
-28.42
-9.85
7.13
21.31
32.27
40.20
45.45
48.37
49.24
48.43
46.45
43.99
41.77
40.33
39.94
40.53
41.77
43.19
44.33
44.82
44.44
43.13
40.88
37.85
34.22
30.13
25.71
20.96
15.80
10.12
3.92
-2.65
-9.25
-15.53
-21.22
-26.22
-30.68
-34.95
-39.43
-44.65
-51.09
-59.08
-68.42
-78.18
-86.58
-91.33
-90.35
-82.59
-68.53
-50.12
-30.15
-11.29
4.64
16.94
25.82
31.84
35.57
37.37
37.53
36.56
35.16
34.19
34.35
35.90
38.55
41.60
44.20
45.67
45.76
44.65
42.78
40.60
38.31
35.75
32.51
28.15
22.41
15.47
7.80
0.08
-7.05
-13.17
-18.25
-22.57
-26.65
-31.12
-36.48
-43.13
-51.13
-60.09
-69.09
-76.65
-80.96
-80.39
-74.03
-62.14
-46.19
-28.45
-11.27
3.58
15.22
23.60
29.14
32.29
33.39
32.72
30.62
27.69
24.73
22.56
21.78
22.54
24.46
26.76
28.55
29.20
28.50
26.78
24.62
22.51
20.59
18.55
15.81
11.84
6.48
0.03
-6.85
-13.44
-19.23
-24.16
-28.52
-32.86
-37.70
-43.46
-50.43
-58.71
-68.14
-78.09
-87.31
-93.90
-95.77
-91.26
-79.79
-62.27
-40.81
-18.15
3.21
21.60
36.38
47.68
55.97
61.64
64.88
65.84
64.81
62.38
59.35
56.50
54.26
52.64
51.23
49.49
47.07
44.00
40.64
37.49
34.96
33.08
31.56
29.84
27.39
23.91
19.43
14.29
8.90
3.61
-1.46
-6.38
-11.31
-16.39
-21.74
-27.52
-34.06
-41.73
-50.79
-60.94
-71.06
-79.22
-83.12
-80.91
-71.93
-57.03
-38.40
-18.89
-1.11
13.21
23.42
29.75
32.96
33.87
33.23
31.76
30.13
28.98
28.78
29.70
31.49
33.51
34.91
34.93
33.22
30.00
25.99
22.12
19.07
16.97
15.32
13.21
9.74
4.49
-2.35
-10.08
-17.78
-24.71
-30.57
-35.52
-40.02
-44.71
-50.19
-56.86
-64.80
-73.57
-82.04
-88.54
-91.10
-88.11
-78.87
-63.97
-45.20
-24.98
-5.77
10.68
23.54
32.75
38.72
41.97
42.98
42.22
40.23
37.71
35.40
33.82
33.19
33.33
33.79
34.07
33.86
33.11
31.99
30.70
29.22
27.24
24.24
19.74
13.48
5.66
-3.04
-11.73
-19.57
-26.12
-31.52
-36.38
-41.65
-48.27
-56.79
-67.10
-78.24
-88.48
-95.61
-97.61
-93.31
-82.80
-67.52
-49.75
-31.89
-15.73
-2.12
8.83
17.41
23.95
28.64
31.72
33.62
35.06
36.88
39.77
43.98
49.21
54.75
59.69
63.36
65.41
65.90
65.15
63.51
61.12
57.86
53.36
47.29
39.51
30.30
20.23
10.13
0.67
-7.72
-15.01
-21.59
-28.09
-35.27
-43.85
-54.20
-66.01
-78.11
-88.49
-94.75
-94.85
-87.86
-74.38
-56.46
-36.87
-18.19
-2.19
10.57
20.40
28.02
34.04
38.68
41.88
43.61
44.17
44.19
44.51
45.79
48.18
51.27
54.25
56.34
57.10
56.64
55.35
53.65
51.67
49.19
45.71
40.82
34.34
26.51
17.83
8.95
0.43
-7.40
-14.48
-20.99
-27.32
-33.96
-41.43
-50.23
-60.57
-72.22
-84.17
-94.65
-101.41
-102.38
-96.51
-84.15
-67.15
-48.15
-29.70
-13.48
-0.07
10.82
19.71
26.92
32.42
36.08
38.01
38.72
39.01
39.75
41.52
44.43
48.11
51.89
55.04
57.11
57.98
57.94
57.54
57.28
57.30
57.22
56.19
53.21
47.60
39.32
29.01
17.80
6.82
-3.19
-12.08
-20.12
-27.85
-35.76
-44.22
-53.51
-63.75
-74.62
-85.11
-93.41
-97.22
-94.55
-84.50
-67.87
-47.02
-25.06
-4.88
11.71
24.20
33.01
38.96
42.73
44.72
45.26
44.79
43.99
43.69
44.52
46.66
49.72
52.96
55.61
57.25
57.94
58.04
57.80
57.01
54.89
50.37
42.64
31.65
18.22
3.88
-9.72
-21.36
-30.50
-37.34
-42.49
-46.69
-50.59
-54.72
-59.51
-65.41
-72.77
-81.54
-91.01
-99.62
-105.14
-105.29
-98.53
-84.82
-65.81
-44.28
-23.27
-5.02
9.53
20.64
29.07
35.50
40.07
42.62
43.08
41.79
39.60
37.58
36.59
36.97
38.48
40.48
42.30
43.44
43.73
43.22
42.06
40.32
37.94
34.82
30.90
26.29
21.19
15.81
10.23
4.40
-1.77
-8.26
-14.82
-21.05
-26.56
-31.23
-35.32
-39.42
-44.27
-50.57
-58.71
-68.61
-79.51
-89.92
-97.71
-100.62
-96.88
-85.94
-68.82
-47.83
-25.91
-5.65
11.37
24.77
34.93
42.51
47.90
51.25
52.67
52.49
51.43
50.35
49.97
50.49
51.65
52.86
53.56
53.54
52.92
52.01
51.00
49.71
47.67
44.36
39.56
33.59
27.24
21.41
16.74
13.28
10.50
7.59
3.79
-1.22
-7.21
-13.60
-19.70
-25.10
-29.80
-34.22
-38.99
-44.77
-52.05
-61.02
-71.37
-82.21
-91.85
-98.12
-98.76
-92.24
-78.43
-58.80
-36.12
-13.49
6.56
22.69
34.70
43.13
48.69
51.88
53.07
52.63
51.17
49.47
48.26
47.95
48.58
49.77
50.99
51.75
51.76
50.97
49.49
47.47
44.94
41.87
38.12
33.63
28.51
23.09
17.78
12.85
8.30
3.77
-1.23
-7.00
-13.47
-20.10
-26.24
-31.39
-35.51
-39.07
-42.89
-47.76
-54.35
-62.91
-73.12
-83.96
-93.61
-99.73
-100.02
-93.06
-78.93
-59.35
-37.20
-15.51
3.41
18.48
29.71
37.68
43.02
46.12
47.24
46.80
45.51
44.22
43.64
44.09
45.37
46.99
48.43
49.46
50.10
50.50
50.77
50.78
50.24
48.81
46.32
42.87
38.82
34.69
30.97
27.95
25.60
23.59
21.43
18.68
15.12
10.88
6.25
1.56
-3.04
-7.65
-12.59
-18.35
-25.44
-34.23
-44.67
-56.04
-66.83
-74.94
-78.28
-75.46
-66.45
-52.65
-36.48
-20.56
-6.91
3.45
10.42
14.46
16.15
15.95
14.26
11.50
8.27
5.28
3.15
2.19
2.37
3.36
4.66
5.90
6.82
7.31
7.33
6.85
5.83
4.28
2.29
-0.02
-2.54
-5.27
-8.30
-11.76
-15.72
-20.05
-24.52
-28.77
-32.63
-36.11
-39.45
-43.12
-47.61
-53.28
-60.20
-67.94
-75.43
-81.05
-82.86
-79.21
-69.28
-53.59
-33.94
-12.93
6.79
23.36
35.97
44.80
50.52
53.73
54.76
53.71
50.80
46.58
42.03
38.16
35.67
34.67
34.58
34.52
33.65
31.66
28.76
25.53
22.55
19.98
17.50
14.44
10.16
4.47
-2.28
-9.33
-15.80
-21.14
-25.32
-28.78
-32.30
-36.63
-42.34
-49.68
-58.55
-68.34
-77.92
-85.52
-89.08
-86.74
-77.56
-61.98
-41.86
-19.96
0.94
18.76
32.51
42.20
48.28
51.24
51.39
49.00
44.60
39.11
33.69
29.43
26.89
25.97
25.93
25.82
24.93
23.06
20.60
18.22
16.50
15.56
14.99
13.98
11.70
7.69
2.02
-4.73
-11.73
-18.24
-23.85
-28.68
-33.18
-38.02
-43.92
-51.44
-60.86
-71.94
-83.68
-94.27
-101.28
-102.30
-95.75
-81.61
-61.50
-38.27
-15.02
5.82
23.01
36.40
46.39
53.36
57.43
58.64
57.31
54.30
50.93
48.62
48.28
50.06
53.31
56.89
59.70
61.04
60.83
59.39
57.25
54.72
51.78
48.05
43.05
36.49
28.47
19.52
10.46
2.00
-5.49
-12.12
-18.41
-25.03
-32.53
-41.21
-51.13
-62.15
-73.77
-84.96
-94.03
-98.89
-97.58
-89.07
-73.75
-53.47
-31.00
-9.13
10.01
25.34
36.63
44.11
48.15
49.16
47.72
44.68
41.15
38.20
36.55
36.32
37.06
38.00
38.45
38.11
37.14
36.03
35.20
34.72
34.04
32.16
27.86
20.23
9.00
-5.27
-21.42
-38.09
-54.23
-69.38
-83.81
-98.27
-113.64
-130.45
-148.46
-166.47
-182.50
-194.39
-200.37
-199.82
-193.46
-183.08
-170.93
-159.00
-148.53
-139.97
-133.19
-127.87
-123.59
-119.87
-116.11
-111.60
-105.77
-98.41
-89.92
-81.15
-73.20
-66.94
-62.64
-59.79
-57.30
-53.95
-48.85
-41.92
-33.92
-26.13
-19.90
-16.06
-14.76
-15.57
-17.72
-20.52
-23.66
-27.17
-31.35
-36.65
-43.44
-51.94
-62.00
-72.87
-83.09
-90.56
-92.99
-88.49
-76.25
-56.85
-32.16
-4.75
22.87
48.87
72.29
92.89
110.70
125.65
137.60
146.48
152.54
156.56
159.58
162.57
166.05
169.89
173.50
176.18
177.55
177.68
177.04
176.20
175.49
174.86
173.93
172.20
169.27
164.91
159.20
152.40
144.86
136.93
128.90
120.90
112.88
104.63
95.74
85.78
74.59
62.42
50.25
39.62
32.32
29.77
32.59
40.31
51.56
64.57
77.70
89.81
100.24
108.57
114.39
117.30
117.00
113.64
107.82
100.53
92.80
85.34
78.44
72.06
66.04
60.37
55.20
50.74
47.03
43.90
40.81
37.14
32.33
26.10
18.59
10.29
1.99
-5.61
-11.99
-17.14
-21.53
-26.01
-31.46
-38.54
-47.37
-57.40
-67.55
-76.26
-81.85
-82.81
-78.16
-67.71
-52.17
-33.05
-12.35
7.89
25.98
40.77
51.75
58.88
62.40
62.80
60.72
56.94
52.34
47.78
43.88
40.92
38.82
37.17
35.58
33.80
31.82
29.80
27.90
26.04
23.89
21.06
17.25
12.49
7.09
1.50
-3.92
-9.13
-14.37
-20.12
-26.93
-35.19
-45.01
-55.98
-67.04
-76.58
-82.71
-83.80
-79.06
-68.85
-54.60
-38.36
-22.17
-7.55
4.69
14.36
21.52
26.28
28.74
29.06
27.71
25.43
23.11
21.55
21.15
21.86
23.24
24.70
25.80
26.36
26.48
26.32
25.93
25.08
23.36
20.27
15.53
9.18
1.70
-6.17
-13.65
-20.19
-25.73
-30.66
-35.68
-41.60
-49.01
-58.05
-68.27
-78.56
-87.31
-92.75
-93.40
-88.55
-78.54
-64.64
-48.75
-32.74
-18.06
-5.43
5.03
13.51
20.23
25.27
28.67
30.52
31.13
31.06
30.91
31.14
31.90
32.98
33.91
34.23
33.66
32.24
30.19
27.85
25.43
22.98
20.34
17.26
13.49
8.99
3.87
-1.56
-6.93
-11.95
-16.54
-20.87
-25.33
-30.42
-36.68
-44.50
-53.91
-64.46
-75.08
-84.16
-89.85
-90.58
-85.52
-74.94
-60.16
-43.16
-25.98
-10.17
3.42
14.61
23.55
30.44
35.37
38.36
39.56
39.42
38.63
38.00
38.17
39.34
41.26
43.38
45.09
45.96
45.81
44.69
42.80
40.34
37.46
34.27
30.81
27.07
23.04
18.62
13.74
8.45
2.88
-2.73
-8.13
-13.19
-17.94
-22.65
-27.68
-33.44
-40.18
-47.86
-55.98
-63.56
-69.19
-71.36
-68.84
-61.10
-48.51
-32.34
-14.34
3.66
20.19
34.39
45.91
54.83
61.35
65.74
68.31
69.46
69.70
69.57
69.58
70.18
71.62
74.03
77.36
81.36
85.58
89.38
92.00
92.76
91.25
87.44
81.66
74.51
66.59
58.38
50.17
42.08
34.17
26.54
19.30
12.56
6.32
0.47
-5.27
-11.27
-17.99
-25.80
-34.97
-45.44
-56.74
-67.93
-77.73
-84.81
-88.06
-86.95
-81.74
-73.40
-63.36
-53.15
-44.00
-36.64
-31.29
-27.84
-25.99
-25.35
-25.50
-25.87
-25.84
-24.85
-22.55
-19.06
-14.84
-10.67
-7.29
-5.32
-5.07
-6.55
-9.65
-14.12
-19.73
-26.32
-33.69
-41.59
-49.58
-57.00
-63.10
-67.14
-68.64
-67.54
-64.27
-59.64
-54.77
-50.86
-49.03
-50.10
-54.38
-61.45
-70.18
-78.79
-85.23
-87.57
-84.50
-75.59
-61.37
-43.27
-23.23
-3.30
14.82
30.12
42.31
51.60
58.29
62.36
63.31
60.49
53.56
42.97
30.06
16.68
4.53
-5.53
-13.67
-20.87
-28.30
-36.65
-45.91
-55.70
-65.88
-76.94
-89.78
-105.11
-122.73
-141.25
-158.52
-172.15
-180.17
-181.26
-174.95
-161.81
-143.73
-124.05
-107.12
-97.02
-96.17
-104.44
-119.11
-136.04
-151.05
-160.92
-163.55
-157.64
-142.27
-116.85
-81.20
-35.67
18.65
79.75
144.19
206.96
261.98
303.49
328.13
336.70
334.38
328.90
327.55
334.08
347.34
362.13
371.67
370.36
355.58
328.09
291.05
248.95
206.51
167.91
136.36
113.48
98.85
89.76
82.14
72.32
59.17
45.04
34.80
33.16
41.64
57.18
73.20
82.68
81.49
69.99
51.85
31.06
9.14
-15.86
-47.34
-87.14
-133.10
-178.98
-216.63
-239.21
-243.59
-230.79
-205.04
-171.90
-137.01
-105.71
-83.21
-74.29
-81.78
-104.60
-136.72
-168.37
-189.63
-195.03
-186.37
-172.04
-162.79
-166.25
-183.03
-206.71
-227.46
-236.84
-231.41
-213.04
-186.63
-156.99
-126.86
-97.03
-67.90
-41.03
-19.26
-5.72
-2.17
-7.72
-18.82
-30.41
-37.67
-37.63
-29.91
-16.52
-0.70
14.49
27.30
37.63
46.52
55.18
64.04
72.29
78.29
80.55
78.81
74.43
69.96
67.87
69.31
73.56
78.53
81.94
82.53
80.57
77.36
74.21
71.59
69.02
65.60
60.89
55.24
49.57
44.67
40.55
36.35
30.84
23.04
12.72
0.44
-12.73
-25.58
-36.94
-45.73
-51.01
-52.10
-48.85
-41.82
-32.29
-21.97
-12.47
-4.85
0.52
3.90
5.74
6.39
5.95
4.40
1.84
-1.33
-4.40
-6.63
-7.51
-7.04
-5.68
-4.01
-2.35
-0.51
2.05
5.89
11.08
16.94
22.14
25.06
24.39
19.54
10.91
-0.23
-12.13
-23.17
-32.37
-39.67
-45.75
-51.42
-56.90
-61.32
-62.79
-58.93
-47.92
-29.43
-5.07
21.85
47.27
67.64
81.19
88.19
90.77
92.18
96.25
106.86
127.09
158.06
197.68
240.07
276.42
297.50
296.89
273.47
231.74
179.91
126.27
76.21
30.81
-12.17
-55.91
-102.48
-151.68
-201.39
-248.44
-289.41
-320.87
-339.47
-342.39
-328.72
-301.41
-268.16
-240.08
-227.80
-236.70
-263.67
-297.45
-322.86
-326.94
-303.95
-256.88
-195.04
-129.70
-70.02
-21.19
15.16
39.40
52.69
56.70
53.93
47.81
42.17
40.28
43.65
51.65
61.74
70.65
75.64
75.61
71.39
65.22
59.67
56.47
55.84
56.52
56.53
54.18
48.83
40.99
31.96
23.08
15.26
8.77
3.52
-0.63
-3.66
-5.40
-5.72
-4.61
-2.16
1.52
6.43
12.53
19.72
27.52
35.14
41.62
46.12
48.32
48.45
47.28
45.79
44.83
44.79
45.61
46.85
48.04
48.81
49.09
48.91
48.30
47.10
45.02
41.83
37.49
32.31
26.76
21.25
15.87
10.30
3.97
-3.55
-12.21
-21.30
-29.56
-35.50
-37.90
-36.15
-30.43
-21.54
-10.69
0.81
11.74
21.22
28.67
33.92
37.16
38.79
39.30
39.15
38.68
38.11
37.60
37.24
37.11
37.21
37.50
37.90
38.35
38.78
39.11
39.18
38.71
37.31
34.63
30.51
25.11
18.93
12.58
6.68
1.58
-2.74
-6.69
-10.89
-16.00
-22.35
-29.72
-37.29
-43.78
-47.80
-48.39
-45.24
-38.84
-30.24
-20.68
-11.29
-2.87
4.08
9.34
12.91
14.95
15.89
16.27
16.65
17.47
18.90
20.90
23.20
25.44
27.27
28.47
29.07
29.30
29.53
29.98
30.62
31.06
30.68
28.97
25.78
21.42
16.60
12.11
8.51
5.84
3.67
1.19
-2.47
-7.91
-15.23
-23.92
-32.95
-41.01
-46.80
-49.38
-48.39
-44.07
-37.19
-28.78
-19.94
-11.55
-4.25
1.69
6.21
9.43
11.62
13.06
14.03
14.78
15.47
16.18
16.96
17.86
18.90
20.14
21.55
23.03
24.41
25.51
26.18
26.36
26.14
25.63
24.92
24.02
22.77
20.96
18.44
15.20
11.43
7.47
3.60
0.01
-3.40
-6.86
-10.74
-15.37
-20.88
-27.21
-33.91
-40.26
-45.35
-48.26
-48.40
-45.63
-40.37
-33.40
-25.73
-18.23
-11.56
-6.01
-1.61
1.79
4.37
6.27
7.57
8.32
8.64
8.75
8.91
9.33
10.07
10.98
11.80
12.33
12.51
12.45
12.33
12.24
12.11
11.80
11.17
10.22
9.03
7.72
6.35
4.91
3.32
1.61
-0.10
-1.61
-2.70
-3.32
-3.61
-3.93
-4.78
-6.67
-9.90
-14.45
-19.88
-25.38
-30.00
-32.86
-33.40
-31.48
-27.32
-21.44
-14.51
-7.26
-0.40
5.40
9.68
12.21
13.16
12.96
12.26
11.75
11.96
13.17
15.31
18.07
20.88
23.18
24.60
25.09
25.03
25.01
25.66
27.27
29.57
31.74
32.68
31.59
28.48
24.36
20.96
19.94
21.93
26.16
30.61
33.00
31.90
27.57
21.86
17.36
16.15
18.77
24.14
30.28
35.27
37.94
37.97
35.81
32.85
31.80
37.01
53.73
86.23
135.37
196.87
261.83
319.57
361.68
385.04
392.29
389.52
382.63
374.56
364.74
350.93
331.55
307.30
280.80
254.93
231.07
208.35
184.35
156.80
125.01
90.29
55.30
22.59
-6.65
-33.05
-58.62
-85.79
-116.39
-151.02
-188.80
-227.63
-264.56
-296.46
-320.69
-335.92
-342.47
-342.32
-338.35
-333.38
-329.15
-325.90
-322.56
-317.52
-309.25
-296.78
-279.65
-257.81
-231.56
-201.70
-169.69
-137.66
-107.97
-82.77
-63.32
-49.81
-41.37
-36.54
-33.62
-31.04
-27.42
-21.53
-12.24
