1531928374.00
64.000000
-0.00
-0.00
-0.00
-0.00
-0.00
-0.00
-0.00
-0.00
-0.00
-0.00
0.00
0.01
0.01
-0.00
-0.03
-0.05
-0.05
0.00
0.13
0.36
0.66
1.01
1.38
1.72
2.05
2.39
2.78
3.25
3.84
4.49
5.13
5.69
6.12
6.44
6.74
7.12
7.67
8.50
9.53
10.61
11.60
12.40
13.07
13.79
14.83
16.38
18.65
21.44
24.40
27.16
29.51
31.52
33.60
36.31
40.06
45.27
51.51
58.07
64.17
69.34
73.67
77.86
82.91
89.62
98.63
109.26
120.37
130.62
139.19
146.14
152.47
160.08
168.21
179.32
193.78
211.07
229.28
245.03
253.97
251.99
236.48
207.31
167.26
120.09
69.60
18.26
-33.31
-85.77
-139.81
-194.86
-248.42
-296.12
-333.49
-357.02
-365.52
-360.39
-345.09
-323.82
-300.08
-276.06
-252.48
-229.57
-207.70
-187.62
-170.09
-155.36
-142.76
-131.00
-118.80
-105.46
-91.26
-77.28
-64.80
-54.65
-46.90
-40.85
-35.42
-29.66
-23.11
-16.01
-9.03
-2.94
1.80
5.13
7.38
9.08
10.69
12.47
14.46
16.52
18.42
20.00
21.15
21.87
22.25
22.38
22.34
22.19
21.96
21.62
21.14
20.51
19.73
18.84
17.92
17.06
16.36
15.87
15.57
15.36
15.13
14.75
14.20
13.52
12.81
12.19
11.73
11.42
11.23
11.11
10.97
10.78
10.51
10.13
9.67
9.16
8.68
8.30
8.07
7.99
7.99
7.98
7.89
7.70
7.44
7.16
6.92
6.76
6.67
6.61
6.54
6.41
6.19
5.89
5.52
5.14
4.78
4.49
4.29
4.21
4.22
4.30
4.39
4.46
4.45
4.35
4.19
4.04
3.97
4.02
4.18
4.36
4.47
4.44
4.25
3.91
3.49
3.04
2.62
2.28
2.05
1.94
1.94
2.03
2.15
2.24
2.26
2.17
1.94
1.59
1.15
0.69
0.29
0.04
-0.01
0.13
0.37
0.61
0.71
0.62
0.34
-0.03
-0.36
-0.58
-0.66
-0.61
-0.47
-0.27
0.01
0.38
0.80
1.19
1.45
1.51
1.39
1.17
0.99
0.95
1.06
1.29
1.54
1.73
1.79
1.75
1.63
1.51
1.45
1.50
1.64
1.84
2.02
2.12
2.10
1.99
1.83
1.68
1.56
1.47
1.42
1.37
1.33
1.27
1.20
1.14
1.10
1.08
1.11
1.18
1.27
1.37
1.44
1.49
1.51
1.53
1.51
1.44
1.32
1.19
1.12
1.18
1.37
1.62
1.85
1.96
1.94
1.82
1.66
1.49
1.33
1.16
0.97
0.78
0.64
0.59
0.65
0.80
1.00
1.21
1.38
1.47
1.43
1.23
0.90
0.48
0.08
-0.23
-0.41
-0.50
-0.55
-0.63
-0.75
-0.90
-1.05
-1.15
-1.19
-1.16
-1.09
-1.01
-0.95
-0.93
-0.95
-0.99
-1.00
-0.97
-0.92
-0.89
-0.95
-1.14
-1.46
-1.85
-2.23
-2.53
-2.71
-2.76
-2.69
-2.49
-2.18
-1.79
-1.41
-1.09
-0.87
-0.71
-0.48
-0.02
0.78
1.87
3.09
4.17
4.92
5.28
5.33
5.22
5.08
4.92
4.67
4.27
3.71
3.12
2.63
2.36
2.30
2.36
2.42
2.38
2.21
1.94
1.62
1.28
0.93
0.58
0.26
0.02
-0.12
-0.16
-0.12
-0.05
0.02
0.14
0.35
0.68
1.09
1.47
1.67
1.64
1.42
1.15
0.97
0.99
1.15
1.32
1.33
1.13
0.77
0.42
0.23
0.26
0.44
0.64
0.73
0.64
0.42
0.15
-0.10
-0.31
-0.46
-0.57
-0.63
-0.60
-0.50
-0.34
-0.17
-0.00
0.17
0.35
0.53
0.69
0.78
0.77
0.68
0.55
0.42
0.31
0.24
0.23
0.29
0.46
0.71
1.00
1.25
1.36
1.31
1.09
0.78
0.45
0.17
-0.04
-0.14
-0.17
-0.13
-0.07
-0.02
0.02
0.07
0.13
0.20
0.28
0.31
0.27
0.16
0.02
-0.08
-0.10
-0.06
0.02
0.08
0.07
-0.01
-0.12
-0.24
-0.33
-0.36
-0.36
-0.33
-0.29
-0.23
-0.13
0.03
0.23
0.45
0.60
0.64
0.57
0.41
0.27
0.21
0.25
0.36
0.45
0.46
0.36
0.20
0.05
-0.04
-0.04
0.05
0.19
0.34
0.45
0.48
0.39
0.20
-0.05
-0.25
-0.32
-0.22
-0.01
0.18
0.24
0.14
-0.07
-0.22
-0.22
-0.05
0.22
0.41
0.43
0.24
-0.08
-0.41
-0.61
-0.65
-0.56
-0.40
-0.25
-0.13
-0.04
0.06
0.17
0.30
0.45
0.58
0.64
0.60
0.44
0.21
-0.03
-0.20
-0.28
-0.29
-0.27
-0.25
-0.21
-0.12
0.05
0.29
0.53
0.66
0.59
0.34
0.01
-0.28
-0.38
-0.25
0.06
0.43
0.71
0.76
0.55
0.13
-0.34
-0.69
-0.76
-0.52
-0.03
0.56
1.07
1.36
1.38
1.15
0.75
0.32
-0.03
-0.21
-0.18
0.04
0.38
0.73
1.01
1.13
1.04
0.72
0.22
-0.37
-0.92
-1.28
-1.34
-1.08
-0.62
-0.14
0.17
0.23
0.10
-0.12
-0.30
-0.40
-0.44
-0.47
-0.53
-0.57
-0.55
-0.42
-0.23
-0.06
0.01
-0.09
-0.32
-0.59
-0.77
-0.76
-0.55
-0.22
0.10
0.31
0.36
0.26
0.10
-0.06
-0.20
-0.31
-0.38
-0.38
-0.24
0.03
0.36
0.61
0.66
0.47
0.16
-0.08
-0.09
0.17
0.60
0.97
1.12
1.00
0.68
0.32
0.06
-0.05
-0.02
0.08
0.19
0.30
0.42
0.54
0.62
0.62
0.48
0.23
-0.05
-0.28
-0.38
-0.35
-0.27
-0.21
-0.23
-0.32
-0.42
-0.47
-0.43
-0.33
-0.20
-0.05
0.13
0.36
0.60
0.79
0.85
0.71
0.40
0.03
-0.25
-0.31
-0.12
0.25
0.63
0.82
0.74
0.39
-0.09
-0.48
-0.65
-0.55
-0.27
0.07
0.33
0.48
0.51
0.47
0.40
0.27
0.08
-0.16
-0.39
-0.54
-0.54
-0.34
0.01
0.41
0.72
0.84
0.70
0.35
-0.14
-0.63
-1.03
-1.27
-1.34
-1.23
-0.95
-0.55
-0.09
0.30
0.50
0.42
0.10
-0.33
-0.69
-0.83
-0.72
-0.48
-0.27
-0.20
-0.27
-0.37
-0.33
-0.08
0.34
0.79
1.07
1.09
0.87
0.55
0.28
0.19
0.27
0.45
0.65
0.79
0.88
0.96
1.03
1.08
1.03
0.84
0.46
-0.05
-0.56
-0.93
-1.06
-0.92
-0.60
-0.21
0.10
0.29
0.35
0.33
0.28
0.23
0.14
0.01
-0.15
-0.28
-0.31
-0.19
0.05
0.33
0.52
0.55
0.40
0.17
-0.05
-0.17
-0.18
-0.16
-0.22
-0.43
-0.76
-1.12
-1.36
-1.42
-1.27
-1.02
-0.76
-0.58
-0.51
-0.49
-0.48
-0.43
-0.33
-0.18
0.05
0.34
0.67
0.97
1.17
1.18
1.01
0.71
0.38
0.13
0.01
0.02
0.11
0.22
0.31
0.32
0.24
0.07
-0.16
-0.39
-0.58
-0.67
-0.66
-0.57
-0.46
-0.39
-0.36
-0.38
-0.40
-0.35
-0.20
0.06
0.36
0.58
0.64
0.50
0.25
0.02
-0.06
0.06
0.28
0.45
0.42
0.18
-0.19
-0.53
-0.72
-0.72
-0.59
-0.41
-0.22
-0.03
0.20
0.48
0.78
1.00
1.07
0.97
0.77
0.58
0.51
0.56
0.67
0.71
0.61
0.38
0.10
-0.11
-0.15
0.01
0.31
0.65
0.90
0.99
0.88
0.62
0.29
0.00
-0.18
-0.21
-0.13
-0.01
0.11
0.16
0.17
0.14
0.11
0.10
0.11
0.12
0.13
0.14
0.14
0.11
-0.00
-0.20
-0.50
-0.84
-1.16
-1.39
-1.49
-1.47
-1.42
-1.37
-1.32
-1.21
-0.96
-0.52
0.01
0.50
0.80
0.87
0.76
0.59
0.46
0.38
0.27
0.05
-0.30
-0.68
-0.95
-1.00
-0.80
-0.40
0.09
0.57
0.97
1.22
1.30
1.16
0.81
0.32
-0.18
-0.55
-0.68
-0.59
-0.35
-0.12
0.00
-0.03
-0.18
-0.35
-0.47
-0.51
-0.48
-0.39
-0.25
-0.08
0.11
0.28
0.35
0.31
0.17
-0.03
-0.21
-0.29
-0.27
-0.16
-0.01
0.15
0.30
0.42
0.50
0.55
0.56
0.53
0.45
0.32
0.14
-0.09
-0.36
-0.63
-0.82
-0.92
-0.89
-0.77
-0.61
-0.43
-0.26
-0.09
0.09
0.27
0.42
0.51
0.50
0.38
0.23
0.10
0.07
0.13
0.23
0.32
0.35
0.32
0.24
0.17
0.11
0.08
0.05
0.01
-0.02
-0.05
-0.10
-0.19
-0.33
-0.50
-0.61
-0.60
-0.39
-0.05
0.33
0.62
0.73
0.68
0.53
0.40
0.34
0.33
0.30
0.17
-0.08
-0.40
-0.68
-0.84
-0.81
-0.63
-0.33
0.03
0.40
0.73
0.96
1.00
0.77
0.27
-0.41
-1.11
-1.62
-1.78
-1.57
-1.08
-0.48
0.03
0.36
0.50
0.55
0.59
0.68
0.79
0.81
0.67
0.36
-0.01
-0.31
-0.40
-0.24
0.09
0.49
0.80
0.97
0.98
0.92
0.81
0.67
0.48
0.22
-0.08
-0.33
-0.44
-0.38
-0.21
-0.05
-0.03
-0.18
-0.44
-0.68
-0.80
-0.74
-0.56
-0.35
-0.23
-0.25
-0.40
-0.64
-0.86
-1.01
-0.99
-0.81
-0.47
-0.07
0.31
0.58
0.69
0.66
0.55
0.44
0.37
0.36
0.38
0.40
0.41
0.41
0.42
0.48
0.60
0.74
0.87
0.96
0.97
0.87
0.68
0.41
0.11
-0.18
-0.44
-0.61
-0.67
-0.61
-0.47
-0.29
-0.11
0.02
0.10
0.11
0.06
0.00
-0.03
0.01
0.10
0.18
0.16
-0.03
-0.36
-0.70
-0.91
-0.89
-0.64
-0.28
-0.00
0.08
-0.06
-0.32
-0.59
-0.76
-0.80
-0.72
-0.57
-0.42
-0.30
-0.21
-0.11
-0.01
0.10
0.18
0.20
0.15
0.08
0.06
0.15
0.34
0.56
0.71
0.71
0.55
0.32
0.14
0.08
0.16
0.30
0.44
0.50
0.46
0.36
0.23
0.13
0.07
0.04
0.01
-0.06
-0.16
-0.26
-0.28
-0.20
-0.04
0.11
0.15
0.04
-0.20
-0.47
-0.67
-0.74
-0.68
-0.54
-0.40
-0.30
-0.23
-0.19
-0.15
-0.09
0.01
0.13
0.24
0.30
0.28
0.18
0.04
-0.09
-0.16
-0.14
-0.04
0.12
0.30
0.45
0.56
0.59
0.54
0.44
0.34
0.28
0.30
0.41
0.58
0.75
0.86
0.83
0.63
0.26
-0.23
-0.70
-1.00
-1.04
-0.79
-0.33
0.17
0.54
0.66
0.54
0.24
-0.10
-0.34
-0.44
-0.40
-0.31
-0.25
-0.27
-0.37
-0.49
-0.59
-0.61
-0.56
-0.45
-0.32
-0.17
-0.01
0.14
0.26
0.32
0.30
0.22
0.12
0.09
0.19
0.41
0.70
0.94
1.03
0.92
0.62
0.20
-0.24
-0.62
-0.87
-0.98
-0.96
-0.83
-0.66
-0.47
-0.31
-0.16
-0.03
0.10
0.22
0.31
0.36
0.36
0.29
0.16
-0.01
-0.19
-0.36
-0.48
-0.50
-0.39
-0.13
0.26
0.68
1.04
1.25
1.22
0.98
0.57
0.14
-0.19
-0.34
-0.29
-0.12
0.06
0.16
0.12
-0.05
-0.30
-0.55
-0.75
-0.86
-0.86
-0.77
-0.59
-0.39
-0.20
-0.04
0.07
0.14
0.17
0.17
0.15
0.11
0.09
0.09
0.13
0.19
0.23
0.23
0.20
0.15
0.08
-0.01
-0.11
-0.25
-0.42
-0.60
-0.74
-0.79
-0.68
-0.37
0.11
0.65
1.09
1.27
1.13
0.76
0.30
-0.06
-0.21
-0.17
-0.05
0.05
0.05
-0.03
-0.12
-0.14
-0.08
0.02
0.06
-0.01
-0.20
-0.43
-0.55
-0.48
-0.19
0.26
0.71
1.03
1.10
0.93
0.56
0.09
-0.36
-0.75
-1.00
-1.08
-1.00
-0.74
-0.34
0.13
0.58
0.89
0.98
0.82
0.49
0.11
-0.15
-0.22
-0.12
0.04
0.15
0.14
0.04
-0.09
-0.14
-0.07
0.09
0.28
0.41
0.42
0.31
0.09
-0.21
-0.53
-0.81
-1.01
-1.07
-0.97
-0.73
-0.38
-0.02
0.30
0.52
0.61
0.57
0.42
0.21
-0.03
-0.24
-0.40
-0.52
-0.60
-0.64
-0.62
-0.53
-0.33
-0.04
0.28
0.51
0.58
0.45
0.16
-0.16
-0.37
-0.39
-0.21
0.09
0.40
0.64
0.77
0.82
0.82
0.78
0.73
0.66
0.56
0.41
0.22
0.02
-0.16
-0.27
-0.29
-0.20
-0.06
0.07
0.16
0.21
0.24
0.27
0.30
0.26
0.08
-0.25
-0.70
-1.12
-1.36
-1.34
-1.07
-0.67
-0.28
-0.02
0.09
0.12
0.15
0.22
0.28
0.27
0.13
-0.09
-0.30
-0.37
-0.29
-0.09
0.13
0.28
0.32
0.27
0.17
0.06
-0.01
-0.02
0.09
0.33
0.67
0.98
1.14
1.03
0.68
0.19
-0.27
-0.58
-0.66
-0.53
-0.25
0.12
0.48
0.73
0.80
0.68
0.47
0.33
0.45
0.90
1.62
2.44
3.20
3.86
4.52
5.38
6.64
8.39
10.54
12.87
15.12
17.08
18.66
19.88
20.82
21.56
22.14
22.56
22.76
22.73
22.51
22.27
22.21
22.54
23.25
24.11
24.65
24.36
22.90
20.24
16.66
12.57
8.34
4.15
0.10
-3.76
-7.29
-10.35
-12.92
-15.15
-17.37
-19.86
-22.69
-25.60
-28.13
-29.83
-30.43
-30.00
-28.78
-27.12
-25.28
-23.38
-21.46
-19.51
-17.60
-15.80
-14.24
-12.98
-11.96
-11.04
-10.02
-8.79
-7.38
-5.96
-4.79
-4.05
-3.73
-3.63
-3.50
-3.07
-2.27
-1.19
-0.07
0.84
1.36
1.46
1.29
1.04
0.93
1.07
1.47
2.03
2.58
3.01
3.23
3.24
3.03
2.63
2.11
1.62
1.29
1.21
1.25
1.05
0.06
-2.20
-6.01
-11.30
-17.60
-24.24
-30.52
-35.98
-40.47
-44.20
-47.51
-50.61
-53.43
-55.51
-56.19
-54.79
-50.91
-44.54
-36.05
-26.13
-15.76
-6.02
2.04
7.66
10.67
11.75
12.22
13.63
17.09
22.71
29.57
36.15
41.02
43.55
44.07
43.52
42.92
42.73
42.76
42.40
41.14
39.03
36.64
34.89
34.46
35.58
37.90
40.74
43.34
45.13
45.85
45.48
44.29
42.70
41.21
40.28
40.17
40.71
41.13
40.09
36.01
27.76
15.26
-0.15
-16.11
-30.01
-39.95
-45.39
-47.14
-46.66
-45.26
-43.51
-41.24
-37.98
-33.53
-28.20
-22.71
-17.77
-13.75
-10.59
-7.95
-5.43
-2.80
-0.11
2.35
4.21
5.10
4.87
3.66
1.88
0.04
-1.52
-2.78
-4.08
-5.86
-8.39
-11.57
-15.04
-18.30
-21.04
-23.20
-24.89
-26.24
-27.24
-27.81
-27.85
-27.35
-26.42
-25.22
-23.94
-22.78
-21.95
-21.55
-21.44
-21.23
-20.34
-18.33
-15.06
-10.82
-6.19
-1.82
1.78
4.28
5.47
5.29
3.77
1.14
-2.19
-5.72
-9.06
-12.05
-14.76
-17.44
-20.23
-23.21
-26.28
-29.25
-31.63
-32.74
-31.68
-27.72
-20.70
-11.34
-1.18
7.83
14.16
17.23
17.54
16.36
15.03
14.43
14.77
15.74
16.95
18.19
19.51
20.98
22.51
23.78
24.33
23.82
22.24
19.97
17.62
15.78
14.75
14.51
14.72
14.94
14.83
14.26
13.32
12.20
11.11
10.19
9.46
8.91
8.44
7.97
7.39
6.67
5.86
5.08
4.49
4.22
4.22
4.32
4.26
3.88
3.21
2.43
1.79
1.44
1.28
1.04
0.45
-0.62
-2.05
-3.49
-4.57
-4.96
-4.56
-3.46
-1.89
-0.14
1.50
2.78
3.54
3.73
3.45
2.89
2.26
1.72
1.32
1.05
0.85
0.69
0.55
0.44
0.35
0.26
0.18
0.18
0.33
0.67
1.14
1.58
1.78
1.63
1.19
0.64
0.22
0.08
0.17
0.36
0.49
0.48
0.37
0.20
0.02
-0.20
-0.47
-0.77
-1.02
-1.13
-1.09
-0.94
-0.80
-0.74
-0.76
-0.81
-0.81
-0.73
-0.63
-0.57
-0.58
-0.62
-0.59
-0.44
-0.16
0.15
0.40
0.50
0.43
0.28
0.14
0.10
0.20
0.41
0.68
0.94
1.11
1.14
1.00
0.71
0.33
-0.04
-0.32
-0.43
-0.38
-0.22
-0.02
0.13
0.21
0.24
0.23
0.19
0.10
-0.05
-0.28
-0.58
-0.88
-1.07
-1.06
-0.81
-0.39
0.07
0.42
0.58
0.57
0.51
0.54
0.69
0.88
0.97
0.87
0.61
0.31
0.14
0.19
0.40
0.63
0.76
0.75
0.65
0.52
0.41
0.28
0.05
-0.31
-0.79
-1.25
-1.57
-1.63
-1.43
-1.03
-0.61
-0.31
-0.25
-0.43
-0.76
-1.07
-1.21
-1.11
-0.80
-0.40
-0.04
0.17
0.24
0.24
0.27
0.38
0.54
0.72
0.87
0.99
1.08
1.15
1.14
1.00
0.71
0.31
-0.07
-0.33
-0.39
-0.27
-0.08
0.08
0.16
0.13
0.04
-0.07
-0.14
-0.11
0.05
0.34
0.70
1.01
1.13
1.01
0.70
0.32
0.01
-0.16
-0.18
-0.12
-0.01
0.11
0.25
0.38
0.48
0.48
0.37
0.18
-0.02
-0.15
-0.21
-0.27
-0.46
-0.82
-1.35
-1.93
-2.44
-2.78
-2.94
-3.00
-3.02
-3.07
-3.12
-3.14
-3.08
-2.97
-2.85
-2.76
-2.75
-2.83
-2.98
-3.19
-3.42
-3.63
-3.76
-3.75
-3.56
-3.23
-2.84
-2.51
-2.36
-2.42
-2.66
-2.98
-3.24
-3.32
-3.17
-2.78
-2.24
-1.65
-1.07
-0.53
0.03
0.65
1.35
2.10
2.84
3.48
4.02
4.50
4.98
5.51
6.04
6.48
6.70
6.66
6.40
6.06
5.80
5.73
5.83
5.97
6.01
5.84
5.48
5.04
4.74
4.75
5.20
6.07
7.22
8.44
9.45
10.11
10.37
10.41
10.55
11.17
12.50
14.50
16.85
19.01
20.51
21.15
21.19
21.21
21.89
23.62
26.37
29.66
32.78
35.24
36.92
38.13
39.38
41.16
43.73
47.16
51.31
55.76
59.45
60.64
57.16
47.32
30.90
9.76
-12.50
-31.77
-45.06
-51.50
-52.45
-50.41
-47.71
-45.58
-44.03
-42.52
-40.65
-38.57
-36.76
-35.57
-34.89
-34.20
-32.83
-30.42
-27.11
-23.50
-20.27
-17.90
-16.43
-15.50
-14.55
-13.15
-11.14
-8.76
-6.49
-4.80
-3.98
-4.00
-4.57
-5.30
-5.90
-6.29
-6.57
-6.96
-7.60
-8.47
-9.40
-10.12
-10.45
-10.27
-9.65
-8.72
-7.63
-6.53
-5.47
-4.50
-3.62
-2.84
-2.21
-1.75
-1.49
-1.38
-1.34
-1.29
-1.15
-0.88
-0.46
0.09
0.74
1.46
2.15
2.68
2.89
2.61
1.79
0.47
-1.17
-2.91
-4.49
-5.75
-6.59
-7.02
-7.11
-6.97
-6.69
-6.35
-6.00
-5.66
-5.33
-5.02
-4.73
-4.50
-4.37
-4.36
-4.47
-4.67
-4.90
-5.12
-5.33
-5.56
-5.87
-6.28
-6.77
-7.24
-7.62
-7.86
-7.96
-8.01
-8.13
-8.43
-8.98
-9.80
-10.79
-11.83
-12.71
-13.27
-13.41
-13.16
-12.70
-12.25
-12.01
-12.05
-12.24
-12.31
-11.88
-10.65
-8.49
-5.49
-1.94
1.74
5.14
8.00
10.27
12.01
13.37
14.46
15.32
16.00
16.58
17.14
17.76
18.42
19.00
19.30
19.17
18.60
17.68
16.64
15.69
15.00
14.60
14.46
14.50
14.62
14.78
14.98
15.22
15.52
15.85
16.15
16.31
16.26
15.92
15.27
14.27
12.89
11.09
8.87
6.29
3.47
0.57
-2.26
-4.94
-7.46
-9.86
-12.18
-14.35
-16.23
-17.62
-18.36
-18.42
-17.90
-17.02
-16.05
-15.14
-14.43
-13.94
-13.68
-13.68
-13.95
-14.47
-15.16
-15.93
-16.65
-17.28
-17.86
-18.52
-19.40
-20.61
-22.15
-23.83
-25.29
-26.09
-25.85
-24.43
-22.00
-19.01
-16.03
-13.49
-11.63
-10.41
-9.63
-9.07
-8.54
-7.87
-6.90
-5.41
-3.23
-0.29
3.32
7.30
11.20
14.57
17.08
18.56
19.11
18.93
18.30
17.45
16.49
15.41
14.15
12.67
11.06
9.45
8.04
6.93
6.14
5.60
5.17
4.76
4.34
3.94
3.67
3.63
3.85
4.32
4.92
5.52
5.97
6.20
6.20
6.03
5.81
5.66
5.68
5.91
6.38
7.10
7.99
8.97
9.92
10.65
11.03
10.94
10.36
9.32
7.96
6.46
5.03
3.89
3.19
2.98
3.19
3.60
3.97
4.06
3.79
3.23
2.60
2.09
1.82
1.76
1.76
1.69
1.49
1.25
1.10
1.18
1.55
2.12
2.74
3.25
3.54
3.58
3.42
3.13
2.80
2.48
2.23
2.08
2.08
2.26
2.63
3.18
3.84
4.53
5.12
5.56
5.84
6.00
6.14
6.34
6.66
7.12
7.70
8.39
9.18
10.05
10.98
11.94
12.92
13.90
14.85
15.73
16.50
17.14
17.67
18.15
18.72
19.48
20.47
21.60
22.68
23.40
23.38
22.21
19.49
14.95
8.58
0.71
-7.97
-16.56
-24.17
-30.12
-34.08
-36.12
-36.53
-35.80
-34.40
-32.72
-31.05
-29.48
-28.00
-26.47
-24.75
-22.79
-20.72
-18.79
-17.36
-16.71
-16.89
-17.68
-18.61
-19.11
-18.76
-17.46
-15.50
-13.47
-12.08
-11.90
-13.05
-15.16
-17.28
-18.08
-16.25
-10.91
-2.06
9.16
20.73
30.24
35.66
36.08
31.94
24.81
16.77
9.60
4.28
0.94
-0.86
-1.67
-1.83
-1.42
-0.49
0.78
2.02
2.83
2.99
2.58
1.99
1.69
1.97
2.80
3.89
4.79
5.12
4.71
3.70
2.43
1.30
0.65
0.55
0.85
1.20
1.28
0.95
0.26
-0.55
-1.19
-1.51
-1.57
-1.59
-1.83
-2.49
-3.62
-5.12
-6.80
-8.46
-9.94
-11.14
-12.00
-12.53
-12.74
-12.61
-12.07
-10.99
-9.27
-6.90
-4.01
-0.87
2.17
4.81
6.91
8.43
9.48
10.14
10.46
10.48
10.22
9.80
9.36
9.04
8.93
8.98
9.10
9.20
9.20
9.09
8.86
8.53
8.10
7.58
6.99
6.35
5.68
4.97
4.21
3.37
2.47
1.59
0.80
0.20
-0.21
-0.44
-0.56
-0.59
-0.55
-0.41
-0.14
0.24
0.70
1.12
1.36
1.24
0.64
-0.45
-1.94
-3.57
-5.05
-6.09
-6.54
-6.38
-5.76
-4.89
-4.00
-3.23
-2.64
-2.23
-1.97
-1.80
-1.66
-1.49
-1.29
-1.10
-0.95
-0.88
-0.89
-0.95
-1.02
-1.09
-1.22
-1.46
-1.83
-2.28
-2.73
-3.13
-3.49
-3.91
-4.48
-5.30
-6.36
-7.73
-9.48
-11.76
-14.71
-18.26
-22.12
-25.82
-28.83
-30.81
-31.68
-31.66
-31.01
-29.93
-28.36
-26.10
-22.92
-18.69
-13.47
-7.41
-0.66
6.64
14.30
22.07
29.59
36.56
42.82
48.42
53.55
58.39
62.98
67.22
70.97
74.21
77.06
79.80
82.71
86.03
89.98
94.78
100.42
106.39
111.39
113.54
111.10
103.36
91.32
77.66
65.78
58.59
57.35
61.45
68.95
77.72
86.36
94.55
102.67
111.19
120.23
129.60
139.27
149.57
160.96
173.20
184.70
192.26
191.98
180.62
156.97
122.20
79.11
30.76
-20.48
-72.99
-124.93
-173.36
-214.17
-243.19
-258.00
-259.08
-249.79
-234.94
-218.86
-204.07
-191.06
-179.05
-167.23
-155.44
-144.24
-134.35
-126.03
-118.90
-112.13
-104.92
-96.88
-88.20
-79.48
-71.46
-64.63
-59.05
-54.40
-50.09
-45.56
-40.50
-34.99
-29.39
-24.21
-19.83
-16.40
-13.78
-11.69
-9.83
-7.99
-6.14
-4.38
-2.87
-1.69
-0.82
-0.16
0.43
1.06
1.78
2.53
3.18
3.60
3.69
3.44
2.92
2.26
1.62
1.12
0.83
0.75
0.80
0.89
0.89
0.72
0.38
-0.05
-0.46
-0.71
-0.73
-0.55
-0.25
0.04
0.24
0.32
0.31
0.27
0.25
0.24
0.25
0.25
0.21
0.08
-0.14
-0.41
-0.63
-0.66
-0.44
-0.04
0.39
0.65
0.61
0.34
-0.02
-0.27
-0.31
-0.15
0.12
0.38
0.56
0.60
0.51
0.28
-0.08
-0.46
-0.76
-0.85
-0.69
-0.37
0.00
0.30
0.43
0.41
0.26
0.07
-0.12
-0.21
-0.17
0.02
0.35
0.72
1.05
1.24
1.24
1.07
0.80
0.49
0.21
0.00
-0.13
-0.21
-0.26
-0.30
-0.32
-0.32
-0.30
-0.27
-0.29
-0.38
-0.52
-0.65
-0.70
-0.63
-0.48
-0.32
-0.20
-0.12
-0.03
0.12
0.34
0.58
0.77
0.86
0.85
0.78
0.73
0.73
0.82
0.98
1.20
1.44
1.64
1.77
1.82
1.82
1.83
1.88
1.98
2.08
2.10
2.00
1.84
1.74
1.85
2.25
2.86
3.54
4.05
4.26
4.16
3.85
3.52
3.30
3.26
3.37
3.55
3.72
3.79
3.70
3.40
2.87
2.13
1.27
0.41
-0.31
-0.83
-1.14
-1.35
-1.55
-1.87
-2.37
-3.01
-3.74
-4.43
-4.96
-5.19
-5.05
-4.55
-3.79
-2.99
-2.43
-2.41
-3.18
-4.85
-7.38
-10.52
-13.87
-16.98
-19.46
-21.06
-21.78
-21.76
-21.26
-20.51
-19.72
-19.01
-18.45
-18.03
-17.74
-17.58
-17.59
-17.90
-18.66
-19.97
-21.77
-23.78
-25.59
-26.88
-27.64
-28.28
-29.48
-31.95
-36.10
-41.80
-48.36
-54.85
-60.43
-64.73
-68.05
-71.18
-75.00
-79.82
-85.03
-89.05
-89.87
-85.89
-76.68
-63.32
-48.09
-33.78
-22.84
-16.79
-15.77
-18.32
-21.36
-20.64
-11.94
7.23
36.26
71.24
106.05
134.79
153.97
163.54
166.21
165.74
164.89
164.22
162.27
156.62
145.31
127.83
105.25
79.70
53.42
28.01
4.13
-18.18
-38.83
-57.04
-71.37
-80.31
-83.07
-80.17
-73.28
-64.47
-55.38
-46.75
-38.58
-30.66
-22.92
-15.41
-8.10
-0.45
8.53
19.88
34.10
50.72
68.43
85.62
100.94
113.46
122.11
125.22
120.52
106.05
81.68
50.03
16.13
-14.31
-37.20
-51.51
-59.19
-63.49
-67.04
-70.60
-73.17
-73.01
-68.92
-60.79
-49.49
-36.37
-22.71
-9.54
2.41
12.74
21.30
28.10
33.15
36.46
37.98
37.86
36.62
35.03
33.83
33.24
32.71
31.05
27.00
19.83
9.80
-1.93
-13.76
-24.21
-32.42
-38.20
-41.82
-43.68
-44.11
-43.29
-41.36
-38.44
-34.65
-30.11
-24.98
-19.58
-14.46
-10.42
-8.19
-8.19
-10.32
-13.93
-18.14
-22.17
-25.58
-28.38
-31.06
-34.40
-39.39
-47.01
-57.87
-71.86
-88.02
-104.70
-119.94
-132.00
-139.76
-142.89
-141.82
-137.35
-130.06
-119.77
-105.28
-84.83
-57.22
-22.97
15.03
52.03
83.08
104.78
116.58
120.44
119.52
116.47
112.44
107.29
100.59
92.58
84.30
77.16
72.03
68.72
66.20
63.19
58.87
53.24
47.05
41.28
36.68
33.42
31.14
29.08
26.56
23.24
19.21
14.94
11.01
7.86
5.57
3.86
2.28
0.48
-1.46
-3.01
-3.31
-1.56
2.55
8.62
15.64
22.27
27.35
30.23
30.87
29.73
27.49
24.82
22.18
19.79
17.68
15.78
14.04
12.43
11.01
9.85
8.97
8.35
7.92
7.66
7.48
7.22
6.52
4.93
2.05
-2.20
-7.40
-12.74
-17.21
-20.04
-20.87
-19.84
-17.41
-14.10
-10.39
-6.60
-3.02
0.09
2.50
4.09
4.95
5.29
5.40
5.52
5.73
5.98
6.12
6.04
5.70
5.18
4.60
4.14
3.90
3.93
4.15
4.45
4.70
4.84
4.90
5.02
5.35
6.01
7.01
8.25
9.53
10.68
11.59
12.22
12.66
13.01
13.35
13.76
14.22
14.70
15.17
15.62
16.11
16.68
17.40
18.31
19.43
20.78
22.43
24.42
26.81
29.52
32.31
34.82
36.61
37.23
36.34
33.71
29.21
22.81
14.68
5.24
-4.80
-14.46
-22.80
-29.13
-33.31
-35.69
-36.95
-37.76
-38.51
-39.25
-39.82
-40.05
-39.88
-39.42
-38.80
-38.09
-37.22
-36.06
-34.51
-32.57
-30.39
-28.13
-25.98
-23.97
-22.12
-20.33
-18.53
-16.67
-14.77
-12.90
-11.20
-9.78
-8.72
-7.97
-7.36
-6.67
-5.71
-4.40
-2.83
-1.17
0.35
1.62
2.60
3.37
4.01
4.56
4.99
5.28
5.40
5.40
5.32
5.21
5.06
4.86
4.62
4.33
4.04
3.76
3.47
3.14
2.76
2.36
2.04
1.90
1.94
2.12
2.27
2.28
2.08
1.70
1.25
0.83
0.52
0.35
0.33
0.44
0.64
0.87
1.00
0.91
0.53
-0.11
-0.87
-1.54
-1.98
-2.09
-1.97
-1.81
-1.85
-2.32
-3.30
-4.74
-6.44
-8.12
-9.56
-10.66
-11.49
-12.25
-13.16
-14.34
-15.71
-17.03
-18.02
-18.58
-18.86
-19.25
-20.23
-22.10
-24.78
-27.81
-30.54
-32.41
-33.30
-33.65
-34.34
-36.33
-40.23
-45.88
-52.37
-58.28
-62.32
-63.99
-63.80
-63.18
-63.75
-66.60
-71.68
-77.67
-82.08
-81.63
-72.88
-53.15
-21.64
19.70
66.16
111.43
149.51
176.77
192.87
200.26
202.56
202.78
202.44
201.52
199.12
194.20
185.91
173.69
157.55
138.32
117.59
96.99
77.15
57.15
35.03
9.34
-19.31
-47.79
-71.61
-87.13
-93.37
-92.37
-87.89
-83.31
-80.11
-77.77
-74.89
-70.57
-65.23
-60.29
-57.18
-56.42
-57.35
-58.58
-58.78
-57.29
-54.41
-51.12
-48.44
-47.00
-46.77
-47.29
-47.92
-48.26
-48.26
-48.17
-48.40
-49.31
-51.10
-53.87
-57.61
-62.24
-67.65
-73.63
-79.89
-86.09
-91.90
-97.07
-101.58
-105.68
-109.81
-114.47
-120.06
-126.63
-133.69
-140.02
-143.41
-140.92
-129.49
-107.05
-73.67
-32.03
13.05
55.99
92.16
119.19
137.16
147.88
153.71
156.51
157.38
156.80
155.07
152.63
149.98
147.46
145.22
143.22
141.32
139.44
137.54
135.55
133.42
131.12
128.75
126.55
124.93
124.26
124.69
126.02
127.66
128.51
126.94
120.74
107.60
85.94
55.94
20.17
-16.78
-49.62
-74.21
-88.97
-95.07
-95.54
-93.61
-91.40
-89.52
-87.59
-85.14
-82.25
-79.47
-77.31
-75.75
-74.06
-71.25
-66.52
-59.74
-51.63
-43.38
-36.25
-30.97
-27.58
-25.43
-23.60
-21.33
-18.34
-14.90
-11.61
-9.09
-7.62
-7.09
-7.00
-6.77
-5.97
-4.51
-2.73
-1.18
-0.40
-0.67
-1.84
-3.37
-4.56
-4.88
-4.31
-3.47
-3.45
-5.34
-9.73
-16.31
-23.96
-31.17
-36.66
-39.96
-41.47
-42.02
-42.31
-42.46
-41.98
-40.27
-37.09
-32.61
-27.10
-20.29
-11.18
1.45
18.18
38.14
58.97
77.65
91.91
101.12
106.11
108.11
107.45
103.08
93.30
77.19
55.79
32.21
10.43
-6.35
-16.95
-22.29
-24.47
-25.46
-26.21
-26.64
-26.23
-24.78
-22.69
-20.77
-19.70
-19.64
-20.17
-20.56
-20.12
-18.61
-16.26
-13.63
-11.37
-9.89
-9.33
-9.50
-10.06
-10.64
-11.01
-11.09
-10.97
-10.82
-10.82
-11.12
-11.78
-12.73
-13.86
-15.00
-16.03
-16.90
-17.64
-18.33
-19.14
-20.26
-21.80
-23.85
-26.37
-29.21
-32.17
-35.00
-37.54
-39.75
-41.76
-43.78
-46.03
-48.59
-51.32
-53.70
-54.79
-53.30
-47.98
-38.20
-24.33
-7.91
8.82
23.66
35.14
42.99
47.88
50.91
52.94
54.40
55.42
56.20
57.34
59.62
63.67
69.52
76.42
83.16
88.53
91.88
93.50
94.50
96.34
100.18
106.34
114.13
122.16
129.04
133.98
137.17
139.67
142.95
148.29
156.51
167.70
181.11
194.96
206.33
211.71
208.14
194.52
172.63
146.96
123.46
107.43
101.48
104.55
112.36
119.00
118.91
108.47
86.42
53.47
11.48
-37.09
-89.30
-141.42
-188.89
-226.94
-251.71
-261.68
-258.38
-245.96
-229.68
-213.97
-201.14
-191.20
-182.73
-174.10
-164.42
-153.81
-143.02
-132.84
-123.64
-115.33
-107.47
-99.62
-91.60
-83.59
-75.97
-69.12
-63.16
-57.85
-52.76
-47.45
-41.74
-35.79
-30.03
-24.95
-20.86
-17.76
-15.40
-13.41
-11.47
-9.46
-7.42
-5.52
-3.93
-2.77
-1.97
-1.39
-0.83
-0.14
0.70
1.60
2.35
2.80
2.89
2.67
2.31
1.99
1.80
1.75
1.74
1.68
1.53
1.32
1.14
1.07
1.12
1.25
1.33
1.28
1.10
0.83
0.59
0.44
0.38
0.35
0.26
0.09
-0.10
-0.24
-0.26
-0.16
-0.02
0.06
0.03
-0.09
-0.19
-0.19
-0.03
0.24
0.54
0.79
0.99
1.16
1.34
1.53
1.69
1.76
1.72
1.58
1.42
1.28
1.17
1.04
0.82
0.49
0.11
-0.22
-0.40
-0.41
-0.29
-0.15
-0.08
-0.13
-0.28
-0.43
-0.53
-0.53
-0.48
-0.40
-0.36
-0.34
-0.33
-0.32
-0.31
-0.34
-0.43
-0.54
-0.62
-0.62
-0.54
-0.43
-0.39
-0.44
-0.55
-0.64
-0.63
-0.53
-0.44
-0.46
-0.65
-0.96
-1.26
-1.43
-1.38
-1.16
-0.85
-0.53
-0.24
0.01
0.24
0.44
0.59
0.64
0.60
0.48
0.32
0.16
0.02
-0.07
-0.11
-0.12
-0.13
-0.16
-0.22
-0.26
-0.23
-0.07
0.23
0.59
0.90
1.06
1.03
0.83
0.57
0.34
0.22
0.21
0.26
0.31
0.33
0.35
0.41
0.56
0.78
1.03
1.20
1.20
1.04
0.74
0.42
0.16
-0.01
-0.12
-0.22
-0.34
-0.45
-0.49
-0.40
-0.21
-0.01
0.07
-0.02
-0.29
-0.62
-0.87
-0.94
-0.81
-0.54
-0.24
-0.00
0.15
0.23
0.27
0.29
0.28
0.23
0.17
0.19
0.32
0.59
0.90
1.10
1.05
0.71
0.15
-0.47
-0.97
-1.27
-1.34
-1.25
-1.06
-0.79
-0.47
-0.18
0.01
-0.00
-0.22
-0.56
-0.88
-1.02
-0.97
-0.80
-0.68
-0.74
-1.04
-1.51
-2.01
-2.40
-2.58
-2.49
-2.18
-1.73
-1.24
-0.82
-0.60
-0.64
-0.93
-1.37
-1.81
-2.14
-2.33
-2.43
-2.52
-2.68
-2.90
-3.13
-3.29
-3.33
-3.29
-3.26
-3.34
-3.58
-4.01
-4.57
-5.18
-5.75
-6.23
-6.59
-6.79
-6.82
-6.64
-6.22
-5.49
-4.46
-3.18
-1.80
-0.48
0.60
1.34
1.70
1.71
1.47
1.12
0.83
0.78
1.04
1.57
2.27
2.99
3.63
4.20
4.78
5.38
5.96
6.39
6.52
6.26
5.65
4.80
3.81
2.73
1.56
0.34
-0.88
-1.99
-2.91
-3.64
-4.28
-4.99
-5.90
-7.06
-8.43
-9.90
-11.36
-12.72
-13.99
-15.21
-16.51
-18.03
-19.84
-21.92
-24.14
-26.29
-28.22
-29.96
-31.72
-33.84
-36.61
-40.07
-43.98
-47.84
-51.13
-53.45
-54.69
-54.97
-54.53
-53.56
-52.02
-49.63
-46.04
-41.18
-35.45
-29.83
-25.66
-24.19
-26.10
-31.18
-38.35
-46.10
-52.97
-58.13
-61.60
-64.10
-66.79
-70.82
-76.97
-85.24
-94.47
-102.07
-104.16
-96.44
-75.72
-41.49
3.02
51.36
95.73
129.58
149.68
156.74
154.31
146.80
137.58
128.30
119.20
110.14
101.40
93.70
87.73
83.59
80.55
77.38
73.06
67.26
60.47
53.80
48.32
44.65
42.64
41.48
40.13
37.77
34.15
29.70
25.27
21.73
19.58
18.75
18.64
18.41
17.38
15.28
12.33
9.10
6.20
4.11
2.93
2.46
2.30
2.07
1.58
0.88
0.20
-0.21
-0.24
0.05
0.44
0.71
0.74
0.59
0.38
0.24
0.16
0.07
-0.19
-0.64
-1.23
-1.81
-2.26
-2.52
-2.67
-2.81
-2.97
-3.12
-3.20
-3.13
-2.90
-2.56
-2.16
-1.78
-1.44
-1.11
-0.80
-0.51
-0.28
-0.12
-0.08
-0.16
-0.38
-0.68
-1.02
-1.27
-1.39
-1.35
-1.16
-0.88
-0.57
-0.22
0.14
0.53
0.92
1.29
1.63
2.00
2.44
3.00
3.67
4.36
4.96
5.39
5.62
5.68
5.61
5.42
5.11
4.61
3.75
2.37
0.34
-2.32
-5.39
-8.44
-11.02
-12.79
-13.70
-14.03
-14.21
-14.73
-15.80
-17.36
-19.10
-20.60
-21.55
-21.93
-22.03
-22.38
-23.55
-25.86
-29.18
-32.86
-36.03
-37.89
-38.22
-37.52
-36.89
-37.65
-40.66
-46.03
-52.98
-60.27
-66.65
-71.50
-74.95
-77.76
-80.95
-85.33
-91.23
-98.21
-104.87
-108.67
-106.16
-93.77
-69.20
-32.83
11.70
58.15
99.63
130.87
149.83
157.73
157.76
153.30
146.49
137.89
127.08
113.60
97.69
80.38
63.15
47.44
34.22
23.71
15.60
9.33
4.42
0.79
-1.36
-1.83
-0.85
0.82
2.09
2.04
0.40
-2.31
-5.00
-6.64
-6.69
-5.28
-3.07
-0.88
0.69
1.47
1.67
1.75
2.14
3.04
4.39
5.85
7.03
7.60
7.45
6.71
5.71
4.78
4.21
4.09
4.32
4.70
5.04
5.18
5.11
4.90
4.70
4.66
4.85
5.26
5.75
6.14
6.26
6.09
5.78
5.62
5.88
6.69
7.96
9.40
10.67
11.55
11.97
12.10
12.24
12.68
13.64
15.21
17.32
19.77
22.40
25.09
27.80
30.56
33.35
36.08
38.66
41.14
43.61
45.98
47.64
47.37
43.77
35.98
24.41
10.85
-2.15
-12.35
-18.79
-21.95
-23.21
-23.88
-24.70
-25.76
-27.00
-28.66
-31.25
-35.13
-39.97
-44.60
-47.42
-47.12
-43.37
-36.92
-29.42
-22.58
-17.57
-14.70
-13.45
-12.89
-12.25
-11.22
-10.05
-9.30
-9.44
-10.48
-11.95
-13.14
-13.50
-12.89
-11.61
-10.16
-8.97
-8.18
-7.62
-6.99
-6.09
-4.90
-3.61
-2.49
-1.69
-1.25
-1.05
-0.96
-0.87
-0.74
-0.61
-0.57
-0.67
-0.92
-1.24
-1.47
-1.44
-1.07
-0.38
0.45
1.22
1.73
1.90
1.81
1.60
1.41
1.33
1.36
1.45
1.54
1.59
1.59
1.53
1.42
1.26
1.06
0.82
0.55
0.26
-0.08
-0.46
-0.89
-1.29
-1.60
-1.75
-1.72
-1.55
-1.32
-1.16
-1.12
-1.21
-1.31
-1.33
-1.17
-0.81
-0.34
0.16
0.61
1.01
1.38
1.74
2.07
2.29
2.33
2.16
1.83
1.52
1.39
1.51
1.84
2.19
2.39
2.32
2.03
1.68
1.46
1.47
1.69
2.02
2.28
2.39
2.32
2.15
2.03
2.11
2.47
3.14
4.00
4.89
5.57
5.90
5.85
5.53
5.19
5.14
5.56
6.46
7.62
8.68
9.27
9.19
8.52
7.63
7.04
7.24
8.50
10.58
12.77
13.95
12.95
8.99
2.02
-7.13
-17.02
-26.11
-33.26
-38.08
-40.93
-42.64
-44.08
-45.86
-48.09
-50.25
-51.34
-50.13
-45.59
-37.34
-25.96
-12.95
-0.29
10.30
17.84
22.33
24.43
25.02
24.72
23.79
22.28
20.28
18.11
16.23
15.02
14.55
14.53
14.46
13.93
12.83
11.39
10.09
9.31
9.16
9.42
9.64
9.38
8.43
6.92
5.20
3.70
2.75
2.45
2.69
3.18
3.60
3.68
3.31
2.56
1.59
0.65
-0.06
-0.47
-0.62
-0.66
-0.79
-1.15
-1.76
-2.54
-3.33
-3.99
-4.45
-4.70
-4.83
-4.92
-5.09
-5.37
-5.80
-6.35
-6.97
-7.61
-8.23
-8.83
-9.41
-10.02
-10.71
-11.51
-12.44
-13.46
-14.52
-15.59
-16.63
-17.62
-18.56
-19.49
-20.50
-21.71
-23.19
-24.87
-26.44
-27.29
-26.72
-24.13
-19.33
-12.68
-5.02
2.63
9.39
14.78
18.80
21.69
23.78
25.26
26.14
26.34
25.85
24.81
23.47
22.09
20.82
19.63
18.44
17.12
15.68
14.24
13.02
12.17
11.78
11.76
11.94
12.11
12.09
11.82
11.31
10.70
10.15
9.85
9.91
10.29
10.80
11.20
11.30
11.08
10.77
10.71
11.21
12.34
13.90
15.54
16.93
17.93
18.60
19.19
20.02
21.29
23.14
25.52
28.27
31.12
33.77
36.03
37.93
39.77
42.08
45.43
50.08
55.84
62.00
67.68
72.15
75.29
77.63
80.13
83.63
88.35
93.74
98.60
101.67
102.18
100.19
96.64
93.10
91.34
92.83
98.05
105.89
113.41
116.13
109.14
88.63
53.45
5.94
-48.28
-101.68
-146.99
-179.10
-196.20
-199.79
-193.58
-181.91
-168.27
-154.60
-141.37
-128.34
-115.42
-103.15
-92.43
-83.89
-77.39
-72.01
-66.58
-60.42
-53.75
-47.55
-42.98
-40.58
-39.90
-39.69
-38.55
-35.61
-30.96
-25.49
-20.41
-16.69
-14.69
-14.07
-14.04
-13.78
-12.77
-10.95
-8.67
-6.48
-4.84
-3.93
-3.63
-3.60
-3.50
-3.09
-2.31
-1.30
-0.30
0.46
0.83
0.80
0.54
0.26
0.17
0.33
0.66
0.95
1.05
0.90
0.58
0.26
0.04
-0.11
-0.31
-0.69
-1.24
-1.77
-2.03
-1.84
-1.21
-0.38
0.31
0.59
0.40
-0.10
-0.65
-1.05
-1.21
-1.18
-1.09
-1.02
-1.00
-0.98
-0.89
-0.70
-0.40
-0.07
0.24
0.45
0.57
0.61
0.63
0.66
0.69
0.68
0.55
0.28
-0.06
-0.36
-0.49
-0.39
-0.11
0.22
0.46
0.54
0.50
0.44
0.45
0.54
0.68
0.78
0.77
0.63
0.37
0.07
-0.21
-0.41
-0.48
-0.43
-0.30
-0.13
0.01
0.13
0.22
0.31
0.39
0.43
0.44
0.39
0.30
0.19
0.08
-0.04
-0.15
-0.23
-0.24
-0.16
-0.01
0.14
0.17
0.05
-0.19
-0.45
-0.58
-0.52
-0.28
0.02
0.26
0.34
0.26
0.12
0.02
0.09
0.34
0.70
1.05
1.26
1.29
1.18
1.03
0.91
0.85
0.78
0.63
0.36
0.07
-0.16
-0.22
-0.14
-0.02
-0.01
-0.17
-0.45
-0.69
-0.75
-0.55
-0.16
0.24
0.49
0.51
0.30
-0.01
-0.31
-0.50
-0.53
-0.41
-0.20
0.06
0.33
0.55
0.70
0.77
0.75
0.65
0.47
0.25
0.05
-0.08
-0.06
0.13
0.42
0.69
0.80
0.65
0.22
-0.38
-0.96
-1.31
-1.32
-0.99
-0.44
0.10
0.43
0.40
-0.02
-0.75
-1.59
-2.34
-2.81
-2.90
-2.61
-2.02
-1.30
-0.61
-0.09
0.22
0.32
0.30
0.25
0.21
0.21
0.23
0.23
0.18
0.12
0.10
0.21
0.49
0.93
1.43
1.87
2.10
2.08
1.84
1.49
1.17
0.96
0.88
0.89
0.87
0.74
0.47
0.10
-0.29
-0.58
-0.70
-0.62
-0.37
-0.00
0.39
0.75
1.01
1.09
0.97
0.63
0.14
-0.41
-0.92
-1.25
-1.33
-1.15
-0.73
-0.15
0.41
0.77
0.79
0.40
-0.31
-1.18
-1.96
-2.45
-2.56
-2.32
-1.87
-1.38
-0.99
-0.80
-0.81
-0.95
-1.10
-1.16
-1.05
-0.79
-0.46
-0.21
-0.11
-0.19
-0.35
-0.53
-0.65
-0.70
-0.71
-0.73
-0.79
-0.89
-0.96
-0.95
-0.79
-0.45
0.04
0.58
1.09
1.47
1.71
1.85
1.99
2.17
2.37
2.51
2.53
2.43
2.27
2.13
2.03
1.94
1.75
1.42
0.93
0.36
-0.19
-0.66
-1.00
-1.19
-1.22
-1.08
-0.78
-0.40
-0.07
0.11
0.08
-0.13
-0.39
-0.58
-0.59
-0.39
-0.06
0.31
0.60
0.76
0.79
0.75
0.72
0.76
0.84
0.94
0.99
0.94
0.80
0.60
0.39
0.21
0.07
-0.04
-0.15
-0.23
-0.27
-0.25
-0.16
-0.05
0.03
0.01
-0.14
-0.36
-0.59
-0.75
-0.81
-0.80
-0.78
-0.82
-0.90
-1.00
-1.06
-1.05
-0.95
-0.76
-0.51
-0.22
0.05
0.27
0.35
0.24
-0.03
-0.38
-0.65
-0.71
-0.50
-0.04
0.53
1.08
1.47
1.63
1.58
1.37
1.06
0.70
0.32
-0.03
-0.34
-0.57
-0.71
-0.77
-0.77
-0.73
-0.69
-0.64
-0.59
-0.54
-0.47
-0.42
-0.38
-0.39
-0.46
-0.57
-0.69
-0.76
-0.73
-0.62
-0.44
-0.24
-0.08
0.02
0.03
-0.03
-0.17
-0.35
-0.54
-0.72
-0.86
-0.92
-0.88
-0.75
-0.53
-0.28
-0.04
0.14
0.22
0.24
0.28
0.40
0.65
0.97
1.25
1.37
1.27
1.03
0.79
0.70
0.86
1.19
1.58
1.83
1.87
1.71
1.44
1.18
1.01
0.93
0.88
0.81
0.70
0.59
0.51
0.50
0.54
0.60
0.60
0.46
0.12
-0.42
-1.09
-1.78
-2.31
-2.60
-2.64
-2.52
-2.34
-2.18
-2.00
-1.74
-1.38
-0.94
-0.55
-0.27
-0.12
-0.04
0.07
0.27
0.53
0.76
0.87
0.83
0.67
0.44
0.18
-0.07
-0.28
-0.41
-0.43
-0.32
-0.12
0.07
0.15
0.05
-0.20
-0.54
-0.84
-1.00
-0.99
-0.80
-0.51
-0.17
0.17
0.52
0.87
1.22
1.56
1.84
1.99
1.98
1.81
1.50
1.11
0.72
0.39
0.18
0.11
0.19
0.39
0.68
1.01
1.34
1.63
1.84
1.92
1.85
1.65
1.34
0.99
0.69
0.50
0.45
0.51
0.63
0.71
0.68
0.51
0.21
-0.14
-0.46
-0.70
-0.85
-0.95
-1.04
-1.13
-1.17
-1.11
-0.91
-0.63
-0.36
-0.19
-0.18
-0.33
-0.59
-0.91
-1.24
-1.54
-1.73
-1.76
-1.60
-1.27
-0.89
-0.61
-0.58
-0.84
-1.31
-1.83
-2.26
-2.48
-2.52
-2.40
-2.19
-1.90
-1.51
-1.05
-0.55
-0.10
0.26
0.50
0.66
0.77
0.84
0.83
0.75
0.60
0.47
0.44
0.56
0.78
1.02
1.19
1.26
1.23
1.15
1.07
1.04
1.08
1.22
1.43
1.62
1.71
1.62
1.38
1.11
0.97
1.06
1.33
1.64
1.77
1.62
1.26
0.85
0.56
0.45
0.45
0.41
0.23
-0.13
-0.57
-0.96
-1.21
-1.32
-1.34
-1.34
-1.32
-1.25
-1.03
-0.64
-0.12
0.42
0.84
1.01
0.93
0.67
0.38
0.23
0.25
0.42
0.60
0.65
0.52
0.24
-0.05
-0.21
-0.18
0.02
0.28
0.51
0.68
0.81
0.93
1.00
0.94
0.65
0.12
-0.53
-1.11
-1.41
-1.33
-0.93
-0.38
0.15
0.51
0.61
0.43
-0.01
-0.64
-1.33
-1.88
-2.11
-1.91
-1.30
-0.41
0.51
1.21
1.57
1.55
1.25
0.83
0.44
0.16
0.00
-0.06
-0.05
0.02
0.19
0.48
0.88
1.28
1.53
1.55
1.29
0.85
0.39
0.09
-0.00
0.07
0.16
0.12
-0.10
-0.46
-0.85
-1.13
-1.25
-1.22
-1.09
-0.90
-0.67
-0.42
-0.20
-0.11
-0.19
-0.44
-0.76
-0.98
-1.01
-0.85
-0.62
-0.46
-0.43
-0.51
-0.56
-0.49
-0.29
-0.04
0.12
0.11
-0.05
-0.27
-0.42
-0.42
-0.29
-0.11
0.03
0.08
0.07
0.08
0.18
0.39
0.69
0.99
1.22
1.31
1.25
1.07
0.82
0.57
0.37
0.27
0.26
0.30
0.34
0.35
0.31
0.21
0.09
-0.06
-0.24
-0.43
-0.63
-0.77
-0.79
-0.67
-0.41
-0.08
0.22
0.39
0.37
0.18
-0.14
-0.48
-0.72
-0.77
-0.62
-0.31
0.05
0.36
0.55
0.63
0.62
0.55
0.43
0.30
0.16
0.08
0.09
0.19
0.32
0.35
0.21
-0.10
-0.49
-0.79
-0.86
-0.66
-0.23
0.27
0.69
0.92
0.95
0.79
0.50
0.15
-0.22
-0.55
-0.79
-0.90
-0.88
-0.77
-0.63
-0.51
-0.42
-0.35
-0.26
-0.12
0.04
0.17
0.22
0.20
0.14
0.08
0.04
0.01
-0.04
-0.13
-0.21
-0.24
-0.18
-0.08
0.01
-0.01
-0.17
-0.42
-0.66
-0.79
-0.79
-0.71
-0.65
-0.69
-0.86
-1.10
-1.36
-1.56
-1.66
-1.68
-1.64
-1.54
-1.36
-1.10
-0.75
-0.33
0.11
0.53
0.88
1.13
1.29
1.36
1.36
1.33
1.29
1.23
1.18
1.14
1.13
1.15
1.24
1.37
1.54
1.68
1.72
1.59
1.26
0.81
0.33
-0.05
-0.26
-0.27
-0.17
-0.05
0.01
-0.06
-0.22
-0.43
-0.60
-0.67
-0.61
-0.46
-0.27
-0.10
0.02
0.10
0.17
0.25
0.34
0.41
0.39
0.25
-0.03
-0.41
-0.84
-1.23
-1.50
-1.60
-1.54
-1.35
-1.11
-0.92
-0.83
-0.83
-0.89
-0.94
-0.94
-0.88
-0.78
-0.67
-0.58
-0.54
-0.59
-0.74
-0.99
-1.27
-1.50
-1.58
-1.45
-1.18
-0.91
-0.81
-1.00
-1.46
-2.02
-2.44
-2.55
-2.26
-1.63
-0.80
0.11
1.01
1.88
2.73
3.58
4.34
4.93
5.22
5.14
4.70
4.00
3.19
2.44
1.86
1.51
1.34
1.29
1.29
1.25
1.14
0.94
0.63
0.28
-0.02
-0.15
-0.05
0.20
0.42
0.41
0.05
-0.54
-1.13
-1.44
-1.33
-0.89
-0.35
0.04
0.13
-0.03
-0.33
-0.63
-0.86
-1.03
-1.17
-1.26
-1.28
-1.17
-0.91
-0.54
-0.13
0.22
0.45
0.54
0.53
0.47
0.39
0.33
0.28
0.22
0.17
0.16
0.21
0.32
0.44
0.48
0.39
0.18
-0.10
-0.34
-0.45
-0.40
-0.22
-0.01
0.13
0.15
0.03
-0.17
-0.33
-0.38
-0.29
-0.10
0.12
0.29
0.36
0.34
0.27
0.23
0.23
0.25
0.21
0.08
-0.13
-0.33
-0.39
-0.27
-0.03
0.21
0.28
0.13
-0.22
-0.62
-0.92
-1.02
-0.89
-0.62
-0.29
0.05
0.34
0.56
0.69
0.70
0.58
0.35
0.08
-0.15
-0.29
-0.30
-0.23
-0.17
-0.17
-0.27
-0.42
-0.54
-0.56
-0.49
-0.35
-0.23
-0.15
-0.12
-0.11
-0.08
-0.07
-0.10
-0.19
-0.33
-0.46
-0.49
-0.39
-0.15
0.12
0.29
0.23
-0.10
-0.62
-1.19
-1.67
-1.98
-2.12
-2.16
-2.15
-2.12
-2.02
-1.78
-1.41
-0.93
-0.43
0.02
0.40
0.74
1.05
1.31
1.46
1.46
1.30
1.08
0.90
0.87
1.04
1.33
1.66
1.90
2.00
1.96
1.78
1.50
1.12
0.71
0.34
0.08
-0.02
-0.01
0.00
-0.05
-0.19
-0.33
-0.35
-0.17
0.20
0.63
0.96
1.10
1.04
0.87
0.67
0.54
0.47
0.43
0.39
0.34
0.33
0.38
0.53
0.74
0.95
1.09
1.10
0.96
0.68
0.29
-0.19
-0.71
-1.23
-1.67
-2.01
-2.25
-2.41
-2.52
-2.55
-2.45
-2.16
-1.68
-1.12
-0.62
-0.34
-0.36
-0.62
-0.97
-1.17
-1.09
-0.68
-0.07
0.54
0.97
1.12
1.04
0.84
0.67
0.64
0.76
0.96
1.14
1.27
1.37
1.51
1.76
2.13
2.52
2.81
2.91
2.81
2.62
2.46
2.40
2.38
2.32
2.12
1.79
1.47
1.32
1.46
1.85
2.38
2.89
3.27
3.49
3.58
3.59
3.49
3.21
2.68
1.91
0.96
-0.02
-0.85
-1.43
-1.70
-1.69
-1.43
-0.96
-0.29
0.54
1.46
2.34
3.01
3.39
3.52
3.52
3.55
3.67
3.80
3.79
3.48
2.82
1.89
0.84
-0.16
-0.99
-1.60
-2.01
-2.28
-2.49
-2.67
-2.84
-2.95
-2.94
-2.79
-2.48
-2.07
-1.61
-1.16
-0.79
-0.55
-0.48
-0.66
-1.12
-1.87
-2.87
-4.02
-5.22
-6.33
-7.20
-7.68
-7.66
-7.12
-6.17
-5.02
-3.93
-3.08
-2.55
-2.33
-2.33
-2.45
-2.61
-2.72
-2.73
-2.59
-2.33
-1.96
-1.58
-1.24
-1.00
-0.84
-0.75
-0.68
-0.57
-0.36
-0.03
0.42
0.91
1.32
1.53
1.48
1.20
0.82
0.51
0.36
0.41
0.59
0.80
0.92
0.91
0.79
0.64
0.58
0.68
0.95
1.31
1.61
1.70
1.52
1.10
0.58
0.16
-0.01
0.14
0.58
1.15
1.65
1.91
1.83
1.47
1.00
0.62
0.47
0.53
0.70
0.83
0.80
0.56
0.12
-0.49
-1.30
-2.28
-3.35
-4.39
-5.23
-5.74
-5.89
-5.80
-5.65
-5.67
-6.00
-6.69
-7.58
-8.43
-8.97
-9.05
-8.67
-8.04
-7.45
-7.21
-7.51
-8.34
-9.51
-10.66
-11.32
-11.07
-9.60
-6.89
-3.21
0.95
5.01
8.50
11.13
12.77
13.44
13.20
12.16
10.49
8.45
6.33
4.42
2.92
1.94
1.46
1.41
1.70
2.29
3.18
4.37
5.86
7.62
9.54
11.44
13.10
14.28
14.82
14.66
13.90
12.75
11.51
10.42
9.60
9.02
8.57
8.11
7.46
6.53
5.22
3.48
1.33
-1.09
-3.51
-5.63
-7.16
-7.97
-8.09
-7.67
-6.91
-5.94
-4.83
-3.58
-2.19
-0.72
0.71
1.93
2.79
3.18
3.07
2.52
1.66
0.67
-0.33
-1.26
-2.20
-3.27
-4.61
-6.27
-8.19
-10.25
-12.28
-14.20
-16.01
-17.72
-19.34
-20.78
-21.89
-22.54
-22.68
-22.38
-21.74
-20.86
-19.72
-18.23
-16.25
-13.71
-10.64
-7.22
-3.78
-0.69
1.67
3.07
3.48
3.07
2.16
1.16
0.48
0.51
1.59
3.93
7.57
12.30
17.69
23.18
28.32
32.82
36.56
39.48
41.41
41.96
40.71
37.40
32.17
25.59
18.54
11.89
6.25
1.79
-1.63
-4.28
-6.38
-8.00
-9.14
-9.79
-10.02
-9.93
-9.61
-9.08
-8.37
-7.52
-6.68
-6.06
-5.80
-5.90
-6.20
-6.47
-6.50
-6.14
-5.36
-4.13
-2.49
-0.53
1.54
3.41
4.76
5.38
5.30
4.68
3.83
2.99
2.31
1.85
1.57
1.42
1.33
1.20
0.92
0.40
-0.34
-1.19
-1.91
-2.34
-2.35
-2.01
-1.46
-0.86
-0.30
0.24
0.84
1.57
2.41
3.29
4.09
4.73
5.20
5.54
5.84
6.14
6.46
6.77
7.06
7.35
7.65
7.97
8.23
8.31
8.02
7.24
5.92
4.15
2.13
0.10
-1.73
-3.25
-4.44
-5.32
-5.93
-6.29
-6.43
-6.42
-6.36
-6.38
-6.53
-6.77
-6.95
-6.93
-6.66
-6.23
-5.80
-5.47
-5.24
-5.01
-4.66
-4.17
-3.65
-3.27
-3.14
-3.28
-3.58
-3.90
-4.12
-4.23
-4.26
-4.24
-4.17
-4.03
-3.79
-3.48
-3.14
-2.84
-2.60
-2.42
-2.23
-1.98
-1.63
-1.21
-0.77
-0.38
-0.10
0.07
0.11
0.01
-0.22
-0.56
-0.93
-1.23
-1.35
-1.27
-1.03
-0.73
-0.47
-0.29
-0.15
-0.03
0.11
0.22
0.27
0.24
0.16
0.10
0.15
0.33
0.61
0.90
1.10
1.10
0.88
0.48
0.00
-0.42
-0.68
-0.69
-0.50
-0.18
0.13
0.35
0.43
0.37
0.20
-0.09
-0.49
-0.97
-1.51
-2.04
-2.46
-2.72
-2.84
-2.91
-3.05
-3.33
-3.74
-4.19
-4.57
-4.84
-4.99
-5.07
-5.09
-4.99
-4.67
-4.03
-3.05
-1.81
-0.47
0.81
1.94
2.90
3.70
4.37
4.92
5.33
5.64
5.87
6.05
6.18
6.21
6.10
5.79
5.31
4.70
4.05
3.43
2.89
2.46
2.12
1.84
1.58
1.31
0.99
0.63
0.25
-0.12
-0.46
-0.75
-0.97
-1.10
-1.16
-1.13
-1.05
-0.93
-0.80
-0.67
-0.58
-0.53
-0.52
-0.53
-0.51
-0.41
-0.20
0.07
0.34
0.50
0.53
0.44
0.26
0.06
-0.13
-0.28
-0.38
-0.42
-0.38
-0.27
-0.11
0.09
0.31
0.54
0.74
0.86
0.86
0.72
0.44
0.10
-0.23
-0.46
-0.54
-0.50
-0.38
-0.27
-0.26
-0.38
-0.65
-1.01
-1.38
-1.66
-1.73
-1.59
-1.29
-0.93
-0.62
-0.44
-0.38
-0.42
-0.50
-0.60
-0.73
-0.88
-1.01
-1.04
-0.90
-0.59
-0.20
0.14
0.27
0.17
-0.08
-0.31
-0.38
-0.24
0.04
0.32
0.50
0.55
0.55
0.57
0.65
0.76
0.82
0.77
0.63
0.45
0.33
0.27
0.24
0.16
0.02
-0.15
-0.24
-0.18
0.03
0.28
0.40
0.29
-0.07
-0.56
-1.02
-1.30
-1.33
-1.14
-0.81
-0.46
-0.19
-0.04
-0.03
-0.14
-0.32
-0.50
-0.61
-0.59
-0.41
-0.08
0.32
0.72
1.01
1.12
1.03
0.78
0.44
0.11
-0.15
-0.29
-0.32
-0.22
-0.03
0.23
0.48
0.63
0.66
0.60
0.53
0.54
0.63
0.74
0.78
0.67
0.41
0.11
-0.16
-0.33
-0.44
-0.55
-0.70
-0.84
-0.86
-0.65
-0.19
0.43
1.01
1.37
1.38
1.06
0.52
-0.09
-0.60
-0.94
-1.08
-1.06
-0.92
-0.74
-0.59
-0.52
-0.57
-0.72
-0.91
-1.07
-1.13
-1.02
-0.75
-0.35
0.11
0.54
0.83
0.90
0.76
0.46
0.13
-0.14
-0.26
-0.25
-0.16
-0.03
0.14
0.35
0.61
0.85
0.99
0.93
0.67
0.28
-0.10
-0.36
-0.41
-0.28
-0.03
0.27
0.55
0.78
0.96
1.04
1.00
0.80
0.46
0.08
-0.25
-0.46
-0.54
-0.49
-0.39
-0.28
-0.18
-0.11
-0.07
-0.11
-0.22
-0.39
-0.56
-0.64
-0.59
-0.44
-0.28
-0.21
-0.31
-0.53
-0.77
-0.91
-0.86
-0.64
-0.34
-0.07
0.09
0.16
0.19
0.23
0.28
0.30
0.26
0.12
-0.08
-0.26
-0.38
-0.41
-0.39
-0.34
-0.27
-0.19
-0.08
0.05
0.16
0.22
0.21
0.16
0.08
0.02
0.02
0.06
0.10
0.09
-0.04
-0.29
-0.62
-0.95
-1.19
-1.30
-1.38
-1.53
-1.85
-2.34
-2.86
-3.18
-3.18
-2.87
-2.43
-2.14
-2.21
-2.73
-3.57
-4.50
-5.29
-5.78
-5.95
-5.88
-5.73
-5.70
-5.96
-6.58
-7.53
-8.55
-9.32
-9.43
-8.57
-6.64
-3.74
-0.23
3.45
6.79
9.39
11.02
11.64
11.41
10.57
9.45
8.32
7.39
6.74
6.37
6.17
5.98
5.66
5.12
4.37
3.47
2.56
1.76
1.12
0.67
0.39
0.25
0.21
0.24
0.30
0.31
0.22
-0.01
-0.33
-0.66
-0.92
-1.09
-1.20
-1.35
-1.60
-1.95
-2.29
-2.46
-2.34
-1.87
-1.12
-0.22
0.70
1.51
2.17
2.64
2.91
2.97
2.80
2.40
1.84
1.19
0.54
-0.04
-0.50
-0.84
-1.02
-1.05
-0.91
-0.64
-0.34
-0.15
-0.24
-0.71
-1.57
-2.65
-3.75
-4.64
-5.20
-5.46
-5.58
-5.84
-6.49
-7.70
-9.52
-11.77
-14.08
-15.90
-16.70
-16.07
-13.92
-10.50
-6.36
-2.24
1.22
3.60
4.94
5.65
6.38
7.80
10.26
13.73
17.77
21.82
25.42
28.39
30.83
32.92
34.57
35.37
34.61
31.66
26.26
18.62
9.38
-0.68
-10.82
-20.39
-28.77
-35.27
-39.26
-40.37
-38.69
-34.90
-30.02
-25.05
-20.69
-17.17
-14.42
-12.26
-10.57
-9.33
-8.47
-7.76
-6.91
-5.66
-3.90
-1.81
0.29
2.02
3.09
3.42
3.10
2.38
1.64
1.40
2.19
4.48
8.43
13.74
19.70
25.35
29.81
32.65
33.93
34.05
33.44
32.29
30.49
27.79
24.04
19.41
14.37
9.54
5.45
2.34
0.16
-1.42
-2.75
-4.14
-5.68
-7.29
-8.80
-10.04
-11.03
-11.93
-12.95
-14.23
-15.71
-17.16
-18.33
-19.04
-19.26
-19.08
-18.56
-17.65
-16.15
-13.82
-10.55
-6.47
-1.96
2.51
6.56
10.08
13.19
16.16
19.16
22.21
25.13
27.66
29.58
30.74
31.11
30.63
29.22
26.83
23.44
19.20
14.39
9.40
4.59
0.25
-3.43
-6.40
-8.69
-10.44
-11.83
-13.02
-14.05
-14.85
-15.25
-15.13
-14.47
-13.48
-12.45
-11.65
-11.22
-11.08
-11.03
-10.84
-10.42
-9.79
-9.05
-8.33
-7.69
-7.14
-6.63
-6.10
-5.54
-4.96
-4.44
-4.04
-3.78
-3.61
-3.45
-3.20
-2.83
-2.40
-2.00
-1.69
-1.46
-1.21
-0.87
-0.38
0.13
0.49
0.55
0.28
-0.20
-0.70
-1.03
-1.11
-0.99
-0.76
-0.55
-0.43
-0.41
-0.49
-0.65
-0.87
-1.07
-1.17
-1.08
-0.75
-0.24
0.34
0.81
1.04
0.97
0.66
0.23
-0.15
-0.38
-0.41
-0.32
-0.18
-0.10
-0.09
-0.13
-0.15
-0.15
-0.16
-0.24
-0.43
-0.69
-0.91
-0.94
-0.70
-0.20
0.40
0.92
1.20
1.16
0.84
0.39
-0.07
-0.42
-0.60
-0.63
-0.57
-0.45
-0.29
-0.07
0.20
0.47
0.65
0.66
0.50
0.23
-0.05
-0.23
-0.29
-0.29
-0.27
-0.28
-0.25
-0.13
0.11
0.41
0.64
0.68
0.48
0.15
-0.13
-0.20
0.00
0.40
0.82
1.08
1.08
0.85
0.50
0.14
-0.14
-0.31
-0.41
-0.48
-0.56
-0.66
-0.73
-0.74
-0.62
-0.36
-0.02
0.28
0.43
0.38
0.17
-0.05
-0.15
-0.11
0.00
0.07
0.02
-0.11
-0.19
-0.12
0.11
0.39
0.56
0.51
0.27
-0.05
-0.32
-0.48
-0.57
-0.69
-0.88
-1.12
-1.28
-1.27
-1.02
-0.57
-0.05
0.41
0.75
0.93
1.01
1.03
1.02
0.99
0.92
0.81
0.68
0.55
0.44
0.37
0.33
0.30
0.23
0.07
-0.21
-0.55
-0.87
-1.02
-0.93
-0.60
-0.17
0.21
0.41
0.40
0.24
0.06
-0.08
-0.15
-0.20
-0.27
-0.37
-0.43
-0.43
-0.34
-0.20
-0.05
0.10
0.25
0.41
0.57
0.68
0.69
0.57
0.34
0.04
-0.24
-0.43
-0.51
-0.46
-0.31
-0.11
0.08
0.20
0.23
0.16
0.04
-0.10
-0.25
-0.41
-0.56
-0.65
-0.62
-0.40
-0.02
0.39
0.68
0.72
0.50
0.10
-0.33
-0.68
-0.95
-1.17
-1.41
-1.70
-2.02
-2.36
-2.74
-3.24
-3.92
-4.80
-5.80
-6.76
-7.51
-8.01
-8.31
-8.61
-9.12
-9.99
-11.20
-12.60
-13.96
-15.09
-15.97
-16.73
-17.62
-18.88
-20.64
-22.82
-25.21
-27.53
-29.66
-31.69
-33.91
-36.72
-40.37
-44.82
-49.67
-54.28
-58.07
-60.78
-62.71
-64.62
-67.42
-71.73
-77.55
-84.17
-90.53
-95.64
-99.09
-101.17
-102.56
-104.01
-105.99
-108.61
-111.68
-114.54
-115.76
-112.90
-102.87
-83.05
-52.81
-14.45
26.98
65.25
95.16
114.19
122.92
123.94
120.33
114.31
106.99
98.78
90.15
82.01
75.57
71.86
71.25
73.30
76.75
80.03
81.69
80.93
77.88
73.51
69.12
65.73
63.65
62.38
61.00
58.73
55.35
51.26
47.20
43.80
41.26
39.28
37.29
34.74
31.44
27.63
23.84
20.62
18.28
16.76
15.70
14.63
13.23
11.43
9.41
7.51
6.00
4.99
4.41
4.03
3.63
3.04
2.25
1.34
0.44
-0.34
-0.95
-1.43
-1.85
-2.26
-2.71
-3.18
-3.61
-3.89
-3.93
-3.63
-2.97
-1.95
-0.68
0.73
2.16
3.52
4.76
5.93
7.13
8.47
10.01
11.73
13.40
14.68
15.19
14.72
13.34
11.44
9.59
8.32
7.86
8.03
8.32
8.17
7.30
5.89
4.55
4.04
4.84
6.93
9.68
12.22
13.84
14.28
13.87
13.31
13.35
14.43
16.78
20.43
25.14
30.10
33.66
33.51
27.41
14.44
-4.20
-25.19
-44.27
-57.89
-64.62
-65.40
-62.67
-58.88
-55.38
-52.16
-48.57
-44.27
-39.77
-36.21
-34.66
-35.44
-37.83
-40.42
-41.61
-40.36
-36.56
-31.11
-25.42
-20.96
-18.64
-18.60
-20.26
-22.78
-25.57
-28.41
-31.43
-34.58
-37.27
-38.38
-36.86
-32.43
-25.77
-18.19
-10.68
-3.29
4.82
14.60
26.09
38.05
48.37
55.13
57.64
56.63
53.74
50.47
47.56
44.86
41.88
38.35
34.56
31.05
28.31
26.43
25.08
23.74
21.95
19.59
16.89
14.27
12.16
10.80
10.13
9.87
9.67
9.22
8.39
7.26
6.03
4.92
4.07
3.50
3.12
2.77
2.36
1.84
1.29
0.83
0.56
0.55
0.75
1.08
1.45
1.78
2.08
2.38
2.69
2.97
3.19
3.35
3.51
3.85
4.58
5.83
7.52
9.36
10.90
11.77
11.80
11.27
10.74
10.90
12.19
14.59
17.57
20.29
22.02
22.48
22.07
21.69
22.32
24.58
28.34
32.83
36.96
39.85
41.21
41.48
41.56
42.46
44.96
49.55
56.30
64.55
72.65
77.81
76.71
66.66
47.06
20.19
-9.28
-35.87
-55.38
-66.25
-69.68
-68.46
-65.34
-61.91
-58.51
-54.84
-50.81
-46.89
-43.84
-42.16
-41.69
-41.64
-40.95
-38.85
-35.27
-30.84
-26.63
-23.61
-22.26
-22.31
-22.93
-23.10
-22.07
-19.73
-16.53
-13.28
-10.71
-9.17
-8.51
-8.26
-7.88
-7.05
-5.79
-4.32
-2.97
-1.97
-1.38
-1.14
-1.12
-1.21
-1.33
-1.45
-1.57
-1.67
-1.75
-1.83
-1.95
-2.14
-2.38
-2.62
-2.81
-2.91
-2.95
-2.93
-2.84
-2.68
-2.41
-2.07
-1.75
-1.54
-1.53
-1.69
-1.94
-2.12
-2.16
-2.05
-1.85
-1.62
-1.40
-1.18
-0.93
-0.66
-0.39
-0.19
-0.07
-0.01
0.02
0.04
0.01
-0.12
-0.37
-0.68
-0.93
-0.97
-0.72
-0.23
0.35
0.84
1.13
1.19
1.10
0.98
0.91
0.89
0.88
0.79
0.56
0.20
-0.20
-0.52
-0.65
-0.55
-0.28
0.04
0.28
0.38
0.35
0.25
0.15
0.09
0.09
0.13
0.19
0.26
0.32
0.37
0.37
0.31
0.21
0.12
0.06
0.07
0.12
0.18
0.22
0.24
0.26
0.30
0.33
0.34
0.29
0.14
-0.08
-0.31
-0.47
-0.49
-0.36
-0.11
0.15
0.32
0.34
0.18
-0.08
-0.34
-0.51
-0.50
-0.31
0.04
0.47
0.89
1.23
1.39
1.33
1.03
0.51
-0.12
-0.68
-1.01
-0.99
-0.62
-0.05
0.50
0.83
0.80
0.44
-0.14
-0.71
-1.07
-1.09
-0.75
-0.17
0.49
1.03
1.33
1.39
1.26
1.03
0.77
0.49
0.17
-0.16
-0.46
-0.63
-0.60
-0.36
0.00
0.37
0.58
0.55
0.32
-0.01
-0.28
-0.37
-0.25
-0.04
0.11
0.08
-0.14
-0.45
-0.74
-0.92
-0.96
-0.92
-0.82
-0.65
-0.36
0.05
0.51
0.84
0.88
0.58
0.03
-0.53
-0.88
-0.89
-0.59
-0.17
0.20
0.39
0.40
0.31
0.22
0.17
0.13
0.06
-0.07
-0.24
-0.37
-0.39
-0.26
-0.01
0.29
0.54
0.70
0.74
0.65
0.47
0.25
0.02
-0.18
-0.33
-0.41
-0.40
-0.33
-0.26
-0.24
-0.32
-0.49
-0.66
-0.73
-0.63
-0.37
-0.03
0.31
0.55
0.69
0.74
0.73
0.67
0.54
0.34
0.08
-0.21
-0.45
-0.61
-0.67
-0.66
-0.62
-0.54
-0.42
-0.23
0.02
0.25
0.41
0.42
0.30
0.13
0.03
0.06
0.22
0.45
0.66
0.83
0.97
1.08
1.12
1.02
0.73
0.29
-0.20
-0.57
-0.70
-0.57
-0.25
0.14
0.46
0.64
0.65
0.50
0.26
-0.02
-0.29
-0.52
-0.70
-0.83
-0.89
-0.89
-0.82
-0.71
-0.60
-0.53
-0.50
-0.48
-0.40
-0.18
0.16
0.55
0.85
0.91
0.68
0.26
-0.18
-0.44
-0.46
-0.31
-0.14
-0.13
-0.33
-0.65
-0.91
-0.94
-0.73
-0.36
-0.03
0.12
0.07
-0.12
-0.29
-0.34
-0.20
0.06
0.37
0.59
0.67
0.58
0.39
0.20
0.09
0.09
0.18
0.31
0.38
0.37
0.27
0.14
0.05
0.05
0.15
0.31
0.43
0.44
0.29
-0.02
-0.40
-0.78
-1.09
-1.26
-1.26
-1.08
-0.74
-0.27
0.25
0.69
0.95
0.95
0.71
0.31
-0.15
-0.55
-0.78
-0.83
-0.70
-0.44
-0.12
0.18
0.41
0.55
0.61
0.62
0.64
0.70
0.80
0.89
0.89
0.75
0.43
-0.00
-0.43
-0.71
-0.73
-0.49
-0.10
0.30
0.57
0.67
0.64
0.55
0.45
0.34
0.16
-0.12
-0.47
-0.78
-0.91
-0.78
-0.38
0.18
0.75
1.17
1.33
1.20
0.85
0.39
-0.09
-0.48
-0.74
-0.88
-0.92
-0.92
-0.88
-0.82
-0.70
-0.51
-0.26
0.05
0.35
0.58
0.72
0.75
0.69
0.58
0.41
0.18
-0.13
-0.51
-0.93
-1.30
-1.54
-1.61
-1.53
-1.37
-1.16
-0.95
-0.73
-0.46
-0.16
0.12
0.34
0.45
0.49
0.50
0.52
0.56
0.58
0.52
0.37
0.20
0.07
0.05
0.16
0.34
0.50
0.58
0.56
0.47
0.38
0.35
0.41
0.52
0.62
0.66
0.60
0.44
0.22
-0.01
-0.20
-0.31
-0.30
-0.18
0.02
0.28
0.51
0.67
0.72
0.62
0.37
-0.02
-0.49
-0.93
-1.21
-1.23
-0.91
-0.35
0.27
0.73
0.88
0.71
0.33
-0.05
-0.28
-0.31
-0.21
-0.11
-0.14
-0.31
-0.58
-0.82
-0.93
-0.85
-0.60
-0.25
0.12
0.44
0.71
0.92
1.08
1.17
1.13
0.89
0.46
-0.05
-0.50
-0.73
-0.71
-0.48
-0.20
-0.05
-0.10
-0.32
-0.58
-0.75
-0.78
-0.68
-0.52
-0.37
-0.27
-0.22
-0.20
-0.21
-0.28
-0.40
-0.51
-0.53
-0.42
-0.17
0.11
0.29
0.29
0.12
-0.09
-0.20
-0.13
0.07
0.27
0.31
0.13
-0.20
-0.54
-0.74
-0.73
-0.50
-0.15
0.17
0.35
0.30
0.03
-0.40
-0.85
-1.22
-1.42
-1.48
-1.48
-1.55
-1.78
-2.21
-2.78
-3.43
-4.05
-4.62
-5.15
-5.72
-6.42
-7.30
-8.37
-9.52
-10.63
-11.56
-12.24
-12.65
-12.85
-13.00
-13.26
-13.78
-14.58
-15.42
-15.75
-14.82
-11.86
-6.50
1.01
9.67
18.05
24.67
28.53
29.37
27.64
24.24
20.14
16.09
12.48
9.50
7.22
5.73
5.07
5.23
6.00
7.02
7.89
8.29
8.13
7.59
7.00
6.71
6.94
7.67
8.72
9.82
10.75
11.42
11.86
12.25
12.84
13.89
15.59
17.94
20.71
23.51
25.90
27.61
28.79
29.92
31.70
34.73
39.20
44.81
50.79
56.23
60.41
63.10
64.76
66.44
69.58
75.34
83.90
94.00
103.13
108.27
107.19
99.59
87.36
73.93
63.11
57.74
58.81
65.24
74.06
80.88
80.66
68.78
42.55
2.59
-46.68
-97.91
-143.05
-175.96
-194.23
-199.31
-195.12
-186.01
-175.13
-164.07
-153.40
-143.52
-135.16
-129.20
-126.08
-125.38
-125.69
-125.19
-122.33
-116.41
-107.74
-97.51
-87.31
-78.62
-72.44
-69.09
-68.27
-69.34
-71.72
-75.20
-80.07
-86.83
-95.80
-106.70
-118.53
-130.04
-140.35
-149.46
-158.18
-167.26
-176.29
-183.05
-183.73
-174.25
-151.88
-116.29
-69.56
-15.24
42.74
100.72
155.34
203.29
241.42
267.43
280.64
282.48
276.09
265.02
251.53
235.60
215.04
187.08
150.41
106.67
60.54
17.94
-16.27
-40.22
-55.41
-65.51
-74.19
-83.23
-91.85
-97.54
-97.62
-90.74
-77.40
-59.57
-39.60
-19.35
0.38
19.66
38.77
57.50
74.76
88.81
98.09
102.12
101.91
99.76
98.21
98.79
101.08
102.68
100.04
89.98
71.40
45.94
17.72
-8.06
-26.80
-35.87
-34.97
-25.71
-10.62
7.73
27.15
45.95
62.81
76.75
87.18
93.86
97.00
97.01
94.51
90.37
85.76
81.54
77.53
71.86
61.25
42.41
13.97
-22.14
-60.83
-95.58
-121.07
-135.11
-139.06
-136.54
-131.39
-126.22
-122.22
-119.80
-119.13
-119.85
-120.21
-116.73
-105.11
-82.46
-49.38
-10.55
26.71
55.39
71.66
76.24
73.43
68.89
67.19
70.49
78.26
87.89
95.44
96.57
87.71
67.30
36.88
1.18
-33.20
-59.92
-74.99
-77.79
-70.51
-56.48
-38.69
-19.01
1.41
21.39
39.30
53.54
63.49
69.95
74.43
77.58
77.89
71.82
55.54
27.59
-9.37
-48.98
-83.70
-107.86
-119.48
-119.70
-110.86
-94.51
-71.02
-40.85
-6.19
28.71
58.84
80.64
93.21
97.62
95.06
85.32
66.76
38.08
0.40
-41.83
-81.86
-113.07
-131.13
-134.83
-125.47
-105.52
-77.68
-44.63
-9.22
25.31
55.88
80.27
97.76
109.12
115.85
119.10
118.67
112.93
99.59
77.17
46.16
9.49
-28.21
-62.11
-88.70
-106.85
-117.54
-122.57
-122.97
-118.01
-105.59
-83.72
-52.38
-14.45
24.79
59.68
86.35
104.16
115.43
123.36
129.55
132.34
127.46
110.50
79.95
38.86
-5.81
-46.06
-76.22
-95.00
-105.28
-111.78
-118.16
-124.85
-128.95
-125.93
-112.14
-86.88
-52.85
-15.19
20.61
50.50
73.03
89.13
101.10
111.38
121.25
130.30
136.26
135.74
125.51
104.06
72.68
35.57
-1.41
-32.75
-55.30
-69.08
-76.37
-79.95
-81.26
-79.97
-74.91
-65.88
-54.71
-44.88
-39.49
-39.11
-40.74
-38.91
-28.23
-6.22
25.42
61.50
95.67
122.63
139.28
144.46
138.13
120.83
94.01
60.68
25.47
-6.29
-30.24
-44.43
-49.67
-48.62
-44.34
-39.09
-34.00
-29.44
-25.54
-22.46
-20.31
-18.84
-17.53
-15.75
-13.12
-9.70
-5.99
-2.64
-0.06
1.88
3.82
6.64
10.95
16.75
23.27
29.37
34.03
36.96
38.72
40.49
43.49
48.32
54.68
61.47
67.30
71.12
72.72
72.88
73.20
75.63
81.81
92.16
105.22
117.42
123.58
118.16
97.05
59.27
7.86
-50.48
-107.03
-153.49
-184.12
-196.97
-193.78
-178.84
-157.37
-134.27
-113.35
-97.27
-87.55
-84.68
-87.88
-95.11
-103.32
-109.32
-110.95
-107.90
-101.88
-95.79
-92.55
-93.71
-98.82
-105.63
-111.02
-112.37
-108.59
-100.51
-90.60
-82.21
-78.57
-81.73
-91.74
-106.02
-119.49
-125.57
-118.21
-94.22
-54.98
-6.49
42.43
83.25
110.55
123.45
124.87
119.53
111.56
103.29
95.36
87.69
80.43
74.28
70.05
67.91
67.09
66.05
63.29
58.18
51.25
43.99
38.23
35.21
35.15
37.12
39.54
40.90
40.30
37.78
34.12
30.38
27.43
25.57
24.53
23.70
22.50
20.62
18.12
15.41
12.96
11.08
9.85
9.11
8.59
8.03
7.29
6.39
5.43
4.58
3.96
3.62
3.52
3.55
3.55
3.42
3.14
2.78
2.47
2.30
2.28
2.32
2.24
1.95
1.42
0.78
0.21
-0.15
-0.29
-0.33
-0.41
-0.64
-1.00
-1.36
-1.56
-1.57
-1.44
-1.36
-1.48
-1.86
-2.38
-2.78
-2.87
-2.56
-1.99
-1.44
-1.16
-1.27
-1.68
-2.18
-2.53
-2.60
-2.41
-2.08
-1.71
-1.34
-0.95
-0.48
0.01
0.41
0.56
0.37
-0.11
-0.65
-1.03
-1.06
-0.73
-0.18
0.35
0.67
0.71
0.50
0.17
-0.16
-0.42
-0.58
-0.65
-0.63
-0.54
-0.42
-0.30
-0.25
-0.27
-0.38
-0.53
-0.70
-0.83
-0.88
-0.82
-0.67
-0.49
-0.37
-0.36
-0.45
-0.58
-0.62
-0.52
-0.30
-0.07
0.06
0.02
-0.15
-0.32
-0.38
-0.27
-0.04
0.21
0.35
0.34
0.21
0.07
0.02
0.11
0.26
0.36
0.31
0.06
-0.35
-0.82
-1.26
-1.58
-1.75
-1.74
-1.58
-1.30
-0.97
-0.68
-0.52
-0.53
-0.71
-1.00
-1.32
-1.58
-1.73
-1.75
-1.65
-1.48
-1.27
-1.07
-0.92
-0.83
-0.82
-0.86
-0.91
-0.89
-0.74
-0.41
0.05
0.61
1.14
1.58
1.90
2.09
2.15
2.10
1.95
1.74
1.53
1.33
1.16
1.00
0.81
0.60
0.38
0.22
0.14
0.19
0.34
0.57
0.85
1.15
1.43
1.66
1.78
1.74
1.56
1.28
0.99
0.78
0.70
0.76
0.89
0.99
1.01
0.92
0.74
0.53
0.32
0.11
-0.09
-0.31
-0.53
-0.69
-0.77
-0.77
-0.72
-0.69
-0.74
-0.86
-1.02
-1.12
-1.09
-0.91
-0.62
-0.33
-0.16
-0.16
-0.32
-0.55
-0.72
-0.73
-0.59
-0.39
-0.26
-0.27
-0.39
-0.52
-0.58
-0.51
-0.37
-0.26
-0.27
-0.44
-0.71
-0.99
-1.16
-1.16
-0.96
-0.62
-0.23
0.12
0.35
0.44
0.40
0.25
0.00
-0.33
-0.71
-1.07
-1.30
-1.35
-1.23
-1.00
-0.74
-0.49
-0.23
0.11
0.58
1.12
1.59
1.84
1.76
1.43
0.99
0.64
0.51
0.57
0.69
0.69
0.48
0.10
-0.29
-0.51
-0.47
-0.22
0.06
0.23
0.20
0.01
-0.22
-0.41
-0.50
-0.52
-0.51
-0.48
-0.39
-0.18
0.11
0.40
0.56
0.48
0.17
-0.26
-0.63
-0.75
-0.59
-0.17
0.32
0.72
0.91
0.85
0.60
0.24
-0.09
-0.34
-0.46
-0.46
-0.36
-0.16
0.12
0.43
0.72
0.87
0.81
0.55
0.14
-0.26
-0.50
-0.51
-0.31
-0.00
0.28
0.43
0.43
0.33
0.17
0.01
-0.15
-0.31
-0.43
-0.48
-0.43
-0.32
-0.20
-0.15
-0.18
-0.23
-0.23
-0.12
0.09
0.29
0.40
0.34
0.16
-0.05
-0.13
-0.01
0.32
0.76
1.16
1.38
1.34
1.09
0.75
0.42
0.20
0.09
0.03
0.00
0.01
0.10
0.26
0.46
0.59
0.57
0.39
0.09
-0.22
-0.43
-0.47
-0.37
-0.20
-0.09
-0.14
-0.42
-0.93
-1.53
-2.06
-2.30
-2.17
-1.70
-1.07
-0.51
-0.17
-0.10
-0.21
-0.33
-0.34
-0.20
0.05
0.32
0.55
0.68
0.68
0.52
0.20
-0.23
-0.68
-0.97
-0.93
-0.53
0.16
0.92
1.50
1.75
1.65
1.31
0.91
0.56
0.30
0.15
0.09
0.11
0.19
0.31
0.38
0.34
0.18
-0.09
-0.37
-0.59
-0.73
-0.78
-0.78
-0.75
-0.67
-0.52
-0.27
0.08
0.48
0.88
1.27
1.62
1.90
2.10
2.15
2.04
1.79
1.51
1.34
1.40
1.73
2.23
2.69
2.90
2.71
2.17
1.47
0.92
0.78
1.18
2.05
3.15
4.17
4.85
5.11
5.05
4.95
5.11
5.72
6.77
8.02
9.12
9.77
9.93
9.81
9.87
10.57
12.13
14.43
17.01
19.24
20.68
21.15
20.90
20.37
20.04
20.28
21.33
23.29
25.95
28.64
30.13
28.85
23.59
14.13
1.66
-11.51
-22.81
-30.41
-33.87
-34.05
-32.43
-30.29
-28.25
-26.28
-24.15
-21.86
-19.71
-18.16
-17.48
-17.57
-17.93
-17.99
-17.25
-15.62
-13.38
-11.09
-9.29
-8.27
-7.97
-8.00
-7.88
-7.27
-6.15
-4.78
-3.60
-2.92
-2.83
-3.09
-3.32
-3.18
-2.55
-1.60
-0.64
0.01
0.22
0.02
-0.36
-0.76
-1.04
-1.19
-1.20
-1.07
-0.77
-0.32
0.20
0.64
0.87
0.82
0.58
0.27
0.03
-0.10
-0.15
-0.20
-0.32
-0.52
-0.71
-0.78
-0.64
-0.27
0.26
0.76
1.07
1.04
0.69
0.14
-0.39
-0.71
-0.73
-0.51
-0.16
0.21
0.54
0.86
1.20
1.58
1.94
2.20
2.28
2.15
1.88
1.59
1.35
1.20
1.08
0.93
0.71
0.43
0.14
-0.08
-0.20
-0.22
-0.19
-0.18
-0.26
-0.48
-0.80
-1.18
-1.53
-1.79
-1.96
-2.07
-2.19
-2.36
-2.55
-2.67
-2.61
-2.32
-1.84
-1.26
-0.75
-0.40
-0.24
-0.21
-0.24
-0.29
-0.34
-0.41
-0.49
-0.54
-0.52
-0.38
-0.15
0.11
0.31
0.40
0.40
0.37
0.35
0.37
0.40
0.37
0.27
0.09
-0.12
-0.29
-0.43
-0.56
-0.71
-0.91
-1.10
-1.21
-1.13
-0.87
-0.50
-0.17
0.01
0.01
-0.10
-0.22
-0.22
-0.07
0.17
0.37
0.43
0.34
0.15
-0.01
-0.04
0.10
0.36
0.64
0.84
0.92
0.86
0.68
0.43
0.17
-0.06
-0.17
-0.14
0.03
0.29
0.55
0.75
0.85
0.88
0.86
0.82
0.79
0.79
0.85
0.97
1.14
1.30
1.38
1.39
1.38
1.44
1.61
1.88
2.14
2.25
2.11
1.71
1.18
0.66
0.30
0.14
0.18
0.32
0.46
0.54
0.54
0.50
0.45
0.40
0.28
0.02
-0.39
-0.90
-1.35
-1.60
-1.59
-1.35
-1.03
-0.79
-0.73
-0.82
-0.96
-1.02
-0.96
-0.83
-0.69
-0.63
-0.67
-0.73
-0.74
-0.67
-0.53
-0.42
-0.37
-0.37
-0.34
-0.17
0.20
0.73
1.31
1.83
2.21
2.46
2.62
2.71
2.73
2.60
2.32
1.90
1.40
0.90
0.44
0.04
-0.31
-0.59
-0.77
-0.81
-0.69
-0.41
-0.07
0.20
0.27
0.08
-0.33
-0.85
-1.30
-1.59
-1.70
-1.71
-1.71
-1.72
-1.69
-1.51
-1.10
-0.51
0.13
0.65
0.91
0.89
0.64
0.30
0.00
-0.14
-0.08
0.18
0.54
0.89
1.12
1.15
1.05
0.93
0.94
1.13
1.47
1.81
2.02
2.08
2.07
2.19
2.62
3.42
4.45
5.45
6.15
6.41
6.36
6.32
6.69
7.74
9.52
11.71
13.82
15.30
15.86
15.59
15.01
14.83
15.72
17.88
20.97
24.17
26.64
27.87
27.94
27.50
27.38
28.32
30.71
34.68
39.98
45.84
50.69
52.22
48.05
36.79
19.06
-2.27
-23.00
-39.22
-48.80
-52.04
-51.04
-48.33
-45.59
-43.22
-40.74
-37.68
-34.16
-30.90
-28.72
-27.89
-27.98
-28.10
-27.38
-25.38
-22.41
-19.17
-16.51
-14.94
-14.48
-14.69
-14.95
-14.70
-13.69
-12.07
-10.26
-8.74
-7.89
-7.77
-8.15
-8.62
-8.75
-8.31
-7.38
-6.26
-5.34
-4.91
-5.03
-5.50
-6.03
-6.35
-6.38
-6.20
-6.04
-6.10
-6.48
-7.13
-7.94
-8.73
-9.44
-10.01
-10.49
-10.89
-11.21
-11.41
-11.47
-11.34
-11.04
-10.56
-9.97
-9.33
-8.67
-7.97
-7.07
-5.81
-4.00
-1.61
1.24
4.19
6.83
8.78
9.85
10.07
9.62
8.74
7.63
6.40
5.13
3.81
2.45
1.04
-0.41
-1.88
-3.32
-4.63
-5.69
-6.42
-6.83
-7.11
-7.56
-8.50
-10.15
-12.44
-14.95
-16.90
-17.38
-15.62
-11.33
-4.92
2.61
9.95
15.91
19.77
21.51
21.60
20.73
19.50
18.22
16.96
15.75
14.69
13.97
13.75
14.01
14.53
14.91
14.82
14.10
12.88
11.49
10.26
9.40
8.87
8.48
7.96
7.17
6.14
5.06
4.19
3.73
3.72
4.00
4.32
4.44
4.21
3.67
2.97
2.27
1.72
1.35
1.12
0.92
0.65
0.26
-0.24
-0.78
-1.28
-1.69
-1.99
-2.21
-2.40
-2.55
-2.63
-2.56
-2.34
-2.03
-1.77
-1.68
-1.82
-2.13
-2.47
-2.71
-2.78
-2.69
-2.55
-2.47
-2.56
-2.90
-3.48
-4.27
-5.15
-5.98
-6.63
-7.03
-7.18
-7.15
-6.99
-6.71
-6.27
-5.61
-4.72
-3.66
-2.58
-1.61
-0.81
-0.18
0.37
0.90
1.41
1.83
2.11
2.22
2.21
2.19
2.24
2.41
2.72
3.16
3.73
4.44
5.24
6.06
6.79
7.33
7.64
7.73
7.64
7.45
7.20
6.89
6.56
6.22
5.92
5.66
5.43
5.18
4.87
4.47
3.97
3.37
2.71
2.02
1.36
0.81
0.42
0.24
0.23
0.33
0.44
0.49
0.47
0.42
0.38
0.41
0.51
0.62
0.66
0.61
0.45
0.24
0.07
-0.02
0.02
0.17
0.38
0.56
0.62
0.53
0.28
-0.11
-0.56
-0.99
-1.33
-1.53
-1.60
-1.57
-1.53
-1.55
-1.69
-1.95
-2.27
-2.56
-2.74
-2.75
-2.61
-2.34
-2.03
-1.71
-1.42
-1.19
-1.06
-1.03
-1.09
-1.19
-1.27
-1.29
-1.23
-1.12
-1.00
-0.88
-0.76
-0.60
-0.40
-0.14
0.14
0.42
0.66
0.83
0.87
0.77
0.52
0.18
-0.14
-0.30
-0.21
0.14
0.62
1.09
1.40
1.51
1.47
1.40
1.35
1.34
1.29
1.15
0.90
0.57
0.26
0.06
-0.03
-0.05
-0.10
-0.25
-0.53
-0.87
-1.15
-1.31
-1.31
-1.21
-1.07
-0.97
-0.92
-0.89
-0.78
-0.56
-0.21
0.21
0.62
0.94
1.12
1.14
1.00
0.71
0.28
-0.24
-0.79
-1.28
-1.63
-1.79
-1.74
-1.50
-1.12
-0.69
-0.32
-0.07
0.02
0.00
-0.06
-0.09
-0.05
0.03
0.09
0.07
-0.05
-0.25
-0.45
-0.58
-0.62
-0.54
-0.37
-0.14
0.09
0.27
0.35
0.31
0.19
0.04
-0.10
-0.23
-0.38
-0.61
-0.96
-1.42
-1.94
-2.45
-2.88
-3.21
-3.46
-3.70
-4.02
-4.47
-5.09
-5.85
-6.70
-7.56
-8.36
-9.15
-10.00
-11.03
-12.28
-13.69
-15.07
-16.22
-17.01
-17.50
-17.96
-18.74
-20.12
-22.18
-24.72
-27.37
-29.66
-31.22
-31.89
-31.77
-31.15
-30.47
-30.17
-30.56
-31.67
-33.14
-34.18
-33.84
-31.29
-26.22
-19.06
-10.84
-2.83
3.97
9.19
13.10
16.37
19.65
23.28
27.24
31.26
35.04
38.36
41.05
42.94
43.84
43.63
42.32
40.08
37.26
34.21
31.26
28.62
26.39
24.57
23.03
21.59
20.05
18.30
16.38
14.42
12.64
11.18
10.10
9.28
8.60
7.92
7.19
6.43
5.68
4.97
4.29
3.62
2.92
2.20
1.49
0.81
0.19
-0.35
-0.78
-1.08
-1.24
-1.27
-1.19
-1.06
-0.94
-0.90
-0.96
-1.11
-1.29
-1.41
-1.40
-1.24
-0.99
-0.76
-0.63
-0.65
-0.76
-0.86
-0.86
-0.68
-0.37
-0.03
0.20
0.20
-0.02
-0.42
-0.84
-1.14
-1.23
-1.08
-0.75
-0.37
-0.03
0.20
0.27
0.20
0.03
-0.21
-0.44
-0.58
-0.57
-0.38
-0.07
0.26
0.47
0.48
0.27
-0.08
-0.46
-0.75
-0.88
-0.83
-0.63
-0.33
0.02
0.37
0.68
0.92
1.09
1.20
1.28
1.35
1.45
1.59
1.77
1.97
2.18
2.42
2.66
2.90
3.12
3.27
3.29
3.14
2.79
2.26
1.63
1.04
0.60
0.40
0.42
0.55
0.64
0.58
0.33
-0.01
-0.32
-0.47
-0.46
-0.34
-0.21
-0.13
-0.15
-0.26
-0.46
-0.74
-1.11
-1.58
-2.10
-2.56
-2.85
-2.89
-2.66
-2.23
-1.73
-1.27
-0.93
-0.70
-0.53
-0.35
-0.11
0.18
0.46
0.68
0.79
0.82
0.84
0.93
1.15
1.51
1.95
2.36
2.61
2.61
2.37
1.96
1.49
1.05
0.63
0.23
-0.14
-0.44
-0.58
-0.52
-0.28
0.01
0.19
0.16
-0.11
-0.49
-0.86
-1.11
-1.20
-1.16
-1.04
-0.88
-0.68
-0.47
-0.29
-0.13
0.04
0.31
0.77
1.44
2.20
2.87
3.24
3.32
3.30
3.51
4.30
5.80
7.86
10.06
11.92
13.08
13.51
13.51
13.66
14.54
16.52
19.48
22.86
25.80
27.62
28.11
27.77
27.63
28.78
31.81
36.55
42.01
46.95
50.40
52.09
52.57
52.84
54.04
57.06
62.52
70.56
80.46
90.10
95.90
93.62
79.99
54.53
20.42
-16.25
-48.69
-72.03
-84.86
-89.08
-88.25
-85.49
-82.27
-78.55
-73.77
-67.95
-61.99
-57.15
-54.18
-52.82
-51.98
-50.29
-46.95
-42.05
-36.51
-31.59
-28.24
-26.67
-26.34
-26.23
-25.39
-23.32
-20.19
-16.67
-13.54
-11.42
-10.45
-10.34
-10.53
-10.45
-9.76
-8.43
-6.75
-5.13
-3.94
-3.36
-3.30
-3.52
-3.69
-3.60
-3.21
-2.64
-2.02
-1.51
-1.15
-0.92
-0.75
-0.60
-0.47
-0.38
-0.35
-0.38
-0.45
-0.50
-0.52
-0.49
-0.42
-0.34
-0.27
-0.21
-0.16
-0.12
-0.07
-0.04
-0.05
-0.07
-0.09
-0.06
0.03
0.17
0.28
0.29
0.17
-0.05
-0.30
-0.46
-0.48
-0.37
-0.21
-0.08
-0.00
0.04
0.10
0.22
0.37
0.47
0.46
0.34
0.20
0.13
0.19
0.36
0.56
0.76
0.92
1.08
1.22
1.32
1.31
1.13
0.80
0.39
0.02
-0.22
-0.34
-0.39
-0.44
-0.53
-0.65
-0.75
-0.82
-0.85
-0.87
-0.87
-0.83
-0.72
-0.57
-0.43
-0.37
-0.45
-0.71
-1.13
-1.67
-2.31
-3.00
-3.73
-4.45
-5.11
-5.65
-6.02
-6.25
-6.39
-6.59
-6.96
-7.57
-8.42
-9.40
-10.39
-11.29
-12.10
-12.83
-13.54
-14.23
-14.88
-15.45
-15.93
-16.31
-16.66
-17.01
-17.42
-17.92
-18.52
-19.21
-19.94
-20.60
-20.94
-20.69
-19.51
-17.14
-13.45
-8.51
-2.58
3.92
10.47
16.49
21.50
25.16
27.33
28.08
27.64
26.35
24.53
22.49
20.47
18.60
16.96
15.59
14.45
13.47
12.57
11.69
10.82
9.95
9.08
8.24
7.39
6.55
5.74
5.01
4.40
3.94
3.58
3.27
2.94
2.58
2.24
1.96
1.76
1.63
1.54
1.46
1.45
1.59
1.93
2.45
3.01
3.45
3.63
3.55
3.30
2.98
2.69
2.45
2.25
2.06
1.88
1.76
1.73
1.81
1.98
2.20
2.41
2.57
2.61
2.49
2.21
1.78
1.31
0.92
0.70
0.66
0.76
0.92
1.04
1.11
1.17
1.24
1.34
1.40
1.35
1.15
0.79
0.37
-0.02
-0.29
-0.43
-0.49
-0.53
-0.60
-0.68
-0.72
-0.68
-0.59
-0.55
-0.69
-1.07
-1.62
-2.15
-2.46
-2.43
-2.09
-1.59
-1.15
-0.89
-0.83
-0.86
-0.82
-0.67
-0.41
-0.13
0.09
0.20
0.21
0.18
0.15
0.15
0.19
0.27
0.35
0.43
0.49
0.53
0.54
0.49
0.31
-0.03
-0.54
-1.18
-1.85
-2.43
-2.84
-3.04
-3.06
-2.98
-2.88
-2.82
-2.84
-2.94
-3.12
-3.34
-3.58
-3.79
-3.91
-3.95
-3.93
-3.96
-4.13
-4.55
-5.27
-6.22
-7.31
-8.39
-9.39
-10.29
-11.15
-12.04
-12.99
-13.95
-14.82
-15.47
-15.80
-15.72
-15.21
-14.28
-12.93
-11.20
-9.10
-6.66
-3.97
-1.13
1.64
4.09
5.95
7.01
7.19
6.52
5.20
3.53
1.91
0.84
0.84
2.27
5.20
9.25
13.73
17.76
20.62
21.94
21.80
20.60
18.84
16.89
14.96
13.09
11.30
9.66
8.24
7.11
6.24
5.53
4.84
4.11
3.33
2.57
1.91
1.39
0.98
0.62
0.25
-0.14
-0.52
-0.84
-1.06
-1.15
-1.16
-1.13
-1.12
-1.20
-1.39
-1.66
-1.92
-2.04
-1.91
-1.47
-0.73
0.17
1.04
1.72
2.13
2.30
2.34
2.36
2.42
2.47
2.46
2.36
2.20
2.07
2.03
2.08
2.12
2.06
1.84
1.49
1.12
0.85
0.76
0.85
1.07
1.32
1.52
1.57
1.44
1.13
0.71
0.33
0.08
0.05
0.17
0.36
0.49
0.53
0.52
0.55
0.67
0.88
1.06
1.11
0.93
0.56
0.07
-0.37
-0.66
-0.76
-0.70
-0.57
-0.44
-0.36
-0.34
-0.32
-0.28
-0.20
-0.09
0.02
0.12
0.18
0.22
0.25
0.29
0.34
0.35
0.29
0.16
-0.03
-0.23
-0.39
-0.46
-0.45
-0.37
-0.25
-0.11
0.02
0.08
0.05
-0.09
-0.29
-0.45
-0.51
-0.45
-0.31
-0.22
-0.24
-0.38
-0.55
-0.61
-0.47
-0.13
0.27
0.59
0.71
0.61
0.37
0.07
-0.19
-0.40
-0.58
-0.74
-0.86
-0.89
-0.77
-0.50
-0.15
0.18
0.38
0.37
0.17
-0.16
-0.50
-0.75
-0.86
-0.82
-0.67
-0.47
-0.24
-0.04
0.13
0.23
0.24
0.14
-0.03
-0.21
-0.33
-0.39
-0.39
-0.40
-0.45
-0.54
-0.63
-0.66
-0.60
-0.47
-0.33
-0.26
-0.25
-0.29
-0.28
-0.18
0.04
0.33
0.58
0.71
0.70
0.56
0.36
0.14
-0.09
-0.33
-0.57
-0.78
-0.90
-0.89
-0.75
-0.51
-0.25
-0.03
0.10
0.15
0.14
0.11
0.07
0.05
0.05
0.06
0.11
0.19
0.28
0.37
0.41
0.37
0.27
0.12
-0.01
-0.07
-0.03
0.08
0.24
0.37
0.44
0.41
0.30
0.15
0.03
-0.02
0.02
0.10
0.18
0.21
0.19
0.16
0.14
0.17
0.22
0.29
0.36
0.40
0.41
0.39
0.37
0.39
0.50
0.70
0.95
1.16
1.23
1.11
0.81
0.37
-0.10
-0.52
-0.82
-0.99
-1.03
-1.00
-0.93
-0.84
-0.71
-0.51
-0.26
-0.03
0.07
-0.05
-0.38
-0.81
-1.19
-1.37
-1.32
-1.11
-0.83
-0.57
-0.34
-0.12
0.10
0.29
0.42
0.43
0.37
0.31
0.33
0.46
0.66
0.83
0.87
0.75
0.51
0.23
-0.00
-0.15
-0.24
-0.32
-0.43
-0.55
-0.62
-0.59
-0.45
-0.23
-0.01
0.14
0.22
0.22
0.19
0.13
0.05
-0.07
-0.23
-0.42
-0.62
-0.79
-0.93
-1.00
-0.96
-0.80
-0.51
-0.14
0.25
0.53
0.63
0.50
0.16
-0.27
-0.67
-0.90
-0.90
-0.70
-0.43
-0.23
-0.22
-0.41
-0.70
-0.96
-1.09
-1.07
-0.94
-0.78
-0.64
-0.52
-0.41
-0.32
-0.28
-0.27
-0.26
-0.23
-0.12
0.07
0.29
0.47
0.54
0.46
0.24
-0.07
-0.40
-0.64
-0.74
-0.65
-0.39
-0.02
0.33
0.58
0.67
0.65
0.59
0.57
0.66
0.88
1.19
1.54
1.86
2.12
2.28
2.34
2.29
2.16
2.00
1.89
1.89
1.98
2.07
2.05
1.84
1.47
1.01
0.62
0.35
0.22
0.19
0.26
0.42
0.67
0.93
1.08
0.97
0.58
0.02
-0.51
-0.82
-0.85
-0.67
-0.44
-0.27
-0.19
-0.15
-0.14
-0.17
-0.30
-0.58
-0.97
-1.35
-1.60
-1.66
-1.55
-1.34
-1.09
-0.86
-0.63
-0.44
-0.30
-0.23
-0.24
-0.32
-0.41
-0.48
-0.48
-0.44
-0.38
-0.34
-0.32
-0.33
-0.34
-0.34
-0.31
-0.24
-0.13
-0.01
0.07
0.08
-0.00
-0.12
-0.20
-0.18
-0.04
0.18
0.38
0.46
0.36
0.15
-0.09
-0.23
-0.20
-0.04
0.14
0.23
0.14
-0.10
-0.37
-0.51
-0.42
-0.14
0.24
0.57
0.73
0.70
0.51
0.22
-0.06
-0.28
-0.38
-0.33
-0.14
0.12
0.35
0.42
0.29
-0.02
-0.39
-0.67
-0.76
-0.66
-0.42
-0.11
0.18
0.42
0.58
0.60
0.45
0.13
-0.28
-0.64
-0.80
-0.68
-0.26
0.35
0.98
1.49
1.77
1.80
1.64
1.42
1.25
1.21
1.29
1.43
1.54
1.59
1.59
1.56
1.55
1.56
1.62
1.71
1.87
2.13
2.51
2.94
3.35
3.64
3.82
3.97
4.22
4.66
5.25
5.85
6.27
6.43
6.43
6.57
7.17
8.48
10.46
12.80
15.01
16.63
17.46
17.65
17.68
18.21
19.72
22.35
25.72
29.15
31.90
33.55
34.15
34.21
34.49
35.67
38.28
42.47
47.90
53.52
57.46
57.30
50.80
36.96
16.81
-6.59
-29.08
-46.91
-58.02
-62.56
-62.31
-59.49
-55.82
-51.98
-48.02
-43.87
-39.80
-36.37
-34.08
-33.02
-32.71
-32.36
-31.20
-28.87
-25.57
-21.94
-18.78
-16.68
-15.78
-15.75
-15.92
-15.61
-14.45
-12.50
-10.19
-8.08
-6.57
-5.77
-5.46
-5.23
-4.72
-3.73
-2.32
-0.77
0.60
1.54
1.95
1.97
1.82
1.70
1.69
1.75
1.78
1.72
1.57
1.41
1.34
1.41
1.56
1.74
1.85
1.88
1.83
1.70
1.51
1.27
0.99
0.74
0.54
0.45
0.43
0.44
0.40
0.28
0.10
-0.08
-0.18
-0.20
-0.17
-0.15
-0.21
-0.35
-0.51
-0.65
-0.76
-0.86
-1.00
-1.20
-1.38
-1.46
-1.31
-0.91
-0.33
0.27
0.72
0.92
0.86
0.63
0.32
0.02
-0.22
-0.41
-0.52
-0.54
-0.42
-0.18
0.15
0.47
0.69
0.75
0.64
0.43
0.19
0.03
-0.02
0.04
0.19
0.36
0.52
0.63
0.72
0.78
0.82
0.79
0.64
0.36
-0.05
-0.50
-0.86
-1.03
-0.94
-0.64
-0.25
0.08
0.29
0.37
0.41
0.49
0.60
0.68
0.62
0.36
-0.04
-0.40
-0.58
-0.51
-0.26
-0.02
0.08
-0.00
-0.18
-0.30
-0.27
-0.09
0.12
0.25
0.25
0.14
0.02
-0.05
-0.05
0.01
0.08
0.12
0.12
0.13
0.17
0.26
0.41
0.57
0.71
0.80
0.85
0.84
0.77
0.64
0.44
0.16
-0.16
-0.47
-0.69
-0.76
-0.64
-0.37
-0.05
0.15
0.11
-0.21
-0.71
-1.20
-1.47
-1.42
-1.09
-0.69
-0.39
-0.32
-0.42
-0.55
-0.59
-0.51
-0.36
-0.28
-0.33
-0.47
-0.60
-0.61
-0.46
-0.22
-0.01
0.06
-0.03
-0.19
-0.26
-0.12
0.24
0.71
1.08
1.20
0.98
0.50
-0.05
-0.47
-0.57
-0.33
0.18
0.71
1.04
0.99
0.60
0.05
-0.43
-0.62
-0.50
-0.17
0.17
0.37
0.38
0.26
0.10
-0.08
-0.29
-0.56
-0.86
-1.13
-1.28
-1.25
-1.04
-0.72
-0.35
-0.01
0.25
0.38
0.40
0.33
0.26
0.24
0.30
0.41
0.51
0.53
0.46
0.34
0.22
0.12
0.03
-0.10
-0.26
-0.39
-0.40
-0.24
0.08
0.46
0.80
1.04
1.21
1.35
1.53
1.70
1.77
1.64
1.30
0.83
0.38
0.09
-0.03
-0.06
-0.16
-0.40
-0.75
-1.11
-1.31
-1.30
-1.11
-0.84
-0.60
-0.46
-0.39
-0.36
-0.34
-0.35
-0.43
-0.61
-0.83
-0.99
-0.95
-0.67
-0.23
0.21
0.50
0.56
0.45
0.33
0.32
0.48
0.72
0.89
0.87
0.62
0.27
-0.01
-0.08
0.09
0.37
0.56
0.46
0.05
-0.56
-1.12
-1.42
-1.38
-1.08
-0.70
-0.40
-0.19
0.02
0.40
1.02
1.81
2.57
3.10
3.25
3.02
2.52
1.92
1.35
0.89
0.58
0.43
0.47
0.69
1.05
1.50
1.91
2.18
2.27
2.16
1.96
1.81
1.83
2.06
2.45
2.84
3.06
3.02
2.75
2.38
2.07
1.93
1.96
2.07
2.17
2.23
2.32
2.55
2.98
3.54
4.08
4.38
4.26
3.67
2.71
1.60
0.62
0.00
-0.18
0.02
0.40
0.76
0.98
1.08
1.19
1.50
2.16
3.21
4.54
5.95
7.23
8.18
8.67
8.71
8.48
8.26
8.38
9.09
10.35
11.81
12.79
12.49
10.27
5.83
-0.65
-8.59
-17.20
-25.81
-33.99
-41.57
-48.51
-54.67
-59.60
-62.66
-63.26
-61.25
-57.21
-52.33
-47.93
-44.84
-43.01
-41.61
-39.57
-36.16
-31.04
-23.87
-13.83
0.37
19.79
44.15
71.32
97.80
120.26
136.99
148.09
154.21
154.82
147.41
128.70
97.19
55.38
9.99
-30.43
-59.10
-73.80
-77.23
-74.85
-71.82
-70.71
-71.20
-71.40
-69.68
-65.72
-60.39
-54.95
-50.16
-46.04
-42.01
-37.41
-31.87
-25.47
-18.70
-12.14
-6.18
-0.73
4.81
11.35
19.73
30.19
42.17
54.32
64.97
72.59
76.37
76.45
73.82
69.98
66.52
64.69
65.13
67.81
72.02
76.44
79.22
78.11
70.84
55.74
32.74
4.03
-26.06
-52.15
-69.66
-76.49
-73.69
-64.78
-54.09
-44.95
-38.75
-35.10
-32.92
-31.37
-30.39
-30.29
-31.12
-32.33
-32.87
-31.81
-28.92
-24.87
-20.84
-18.00
-16.92
-17.40
-18.62
-19.61
-19.66
-18.57
-16.73
-14.90
-13.90
-14.28
-16.03
-18.51
-20.72
-21.68
-20.86
-18.46
-15.28
-12.34
-10.44
-9.82
-10.17
-10.94
-11.66
-12.12
-12.21
-11.76
-10.38
-7.53
-2.82
3.79
11.80
20.33
28.38
35.14
40.20
43.53
45.36
45.99
45.65
44.47
42.60
40.31
38.01
36.18
35.09
34.56
33.91
32.13
28.38
22.43
14.94
7.33
1.38
-1.44
-0.46
4.00
10.74
18.14
24.62
29.12
31.28
31.33
30.01
28.13
26.41
25.32
25.16
25.81
26.45
25.26
19.67
7.34
-12.57
-38.39
-66.08
-90.60
-107.82
-116.17
-116.91
-113.02
-107.43
-101.62
-95.28
-87.21
-76.58
-63.70
-49.94
-36.89
-25.45
-15.57
-6.57
2.21
10.83
18.58
24.53
28.02
29.14
28.58
27.30
26.00
24.88
23.72
22.18
20.08
17.57
15.03
12.93
11.75
11.78
13.11
15.45
18.22
20.65
22.07
22.13
20.93
18.83
16.31
13.75
11.34
9.16
7.27
5.77
4.73
4.12
3.79
3.56
3.28
2.94
2.62
2.45
2.45
2.58
2.71
2.75
2.64
2.37
1.99
1.53
1.05
0.57
0.18
-0.04
-0.07
0.07
0.29
0.43
0.40
0.16
-0.21
-0.58
-0.82
-0.82
-0.59
-0.19
0.25
0.63
0.86
0.93
0.84
0.60
0.21
-0.31
-0.92
-1.57
-2.18
-2.70
-3.08
-3.32
-3.38
-3.21
-2.81
-2.21
-1.57
-1.08
-0.88
-1.01
-1.35
-1.73
-1.98
-2.03
-1.92
-1.75
-1.58
-1.46
-1.37
-1.27
-1.21
-1.22
-1.38
-1.71
-2.18
-2.70
-3.19
-3.55
-3.78
-3.91
-4.04
-4.30
-4.76
-5.45
-6.30
-7.18
-7.93
-8.41
-8.55
-8.44
-8.28
-8.39
-9.05
-10.36
-12.21
-14.24
-16.00
-17.19
-17.84
-18.33
-19.27
-21.18
-24.27
-28.25
-32.52
-36.37
-39.37
-41.57
-43.55
-46.17
-50.17
-55.85
-62.80
-70.02
-76.36
-81.00
-83.92
-85.90
-88.31
-92.49
-99.20
-108.19
-118.01
-126.13
-129.19
-123.56
-106.25
-76.12
-34.81
13.04
60.72
101.37
130.05
145.11
148.18
142.97
133.52
122.79
112.32
102.58
93.77
86.23
80.44
76.55
74.06
71.92
68.92
64.30
58.09
51.08
44.43
39.14
35.60
33.48
31.94
30.08
27.36
23.76
19.79
16.15
13.37
11.64
10.73
10.17
9.45
8.29
6.66
4.81
3.09
1.84
1.20
1.07
1.17
1.16
0.79
0.03
-0.93
-1.78
-2.21
-2.11
-1.58
-0.89
-0.33
-0.11
-0.28
-0.71
-1.18
-1.52
-1.63
-1.52
-1.27
-0.99
-0.79
-0.71
-0.79
-1.03
-1.40
-1.85
-2.31
-2.70
-2.99
-3.14
-3.20
-3.22
-3.28
-3.43
-3.68
-4.00
-4.32
-4.53
-4.62
-4.61
-4.66
-4.93
-5.54
-6.50
-7.63
-8.67
-9.38
-9.66
-9.63
-9.57
-9.85
-10.73
-12.22
-14.07
-15.86
-17.20
-17.96
-18.39
-19.07
-20.66
-23.57
-27.72
-32.52
-37.06
-40.60
-42.80
-43.87
-44.49
-45.39
-47.20
-50.30
-54.80
-60.29
-65.57
-68.47
-66.24
-56.63
-39.02
-15.22
10.88
34.64
52.48
63.08
67.45
67.87
66.50
64.49
61.91
58.46
54.21
49.80
46.10
43.67
42.34
41.37
39.86
37.22
33.47
29.18
25.15
22.01
19.99
18.88
18.18
17.35
16.07
14.29
12.24
10.31
8.83
7.98
7.72
7.80
7.83
7.46
6.54
5.19
3.76
2.64
2.09
2.10
2.38
2.57
2.41
1.89
1.17
0.47
-0.07
-0.47
-0.84
-1.23
-1.61
-1.84
-1.79
-1.43
-0.90
-0.40
-0.11
-0.08
-0.26
-0.50
-0.70
-0.80
-0.82
-0.85
-0.93
-1.05
-1.18
-1.27
-1.30
-1.27
-1.21
-1.14
-1.05
-0.95
-0.83
-0.71
-0.65
-0.66
-0.72
-0.77
-0.71
-0.51
-0.22
0.06
0.20
0.17
0.03
-0.09
-0.11
0.01
0.20
0.38
0.46
0.44
0.38
0.32
0.28
0.22
0.13
-0.00
-0.13
-0.22
-0.25
-0.23
-0.17
-0.06
0.10
0.34
0.61
0.86
1.00
1.01
0.90
0.77
0.73
0.89
1.27
1.83
2.48
3.08
3.53
3.75
3.73
3.56
3.37
3.32
3.54
4.06
4.77
5.49
6.00
6.21
6.18
6.20
6.59
7.62
9.32
11.42
13.42
14.84
15.49
15.63
15.91
17.14
19.82
23.85
28.47
32.56
35.18
36.12
36.14
36.69
39.21
44.43
51.88
60.01
66.91
71.19
72.71
72.62
72.95
75.67
82.03
92.28
105.53
119.93
132.55
139.77
138.04
125.25
102.01
72.19
42.08
18.04
3.78
-1.62
-3.50
-9.15
-24.31
-50.32
-83.59
-117.44
-145.37
-163.72
-172.63
-174.94
-173.99
-171.83
-168.66
-163.69
-156.54
-148.07
-140.15
-134.62
-132.11
-131.77
-131.81
-130.55
-127.45
-123.31
-119.93
-119.10
-121.71
-127.35
-134.62
-141.91
-148.37
-154.24
-160.50
-167.76
-175.11
-179.65
-177.13
-163.34
-135.68
-94.09
-41.13
18.74
80.10
137.62
186.84
224.72
250.13
263.89
268.37
266.70
261.83
255.83
249.88
244.54
240.32
237.92
238.06
241.14
246.64
252.67
255.92
252.21
237.71
210.66
172.68
128.84
86.33
51.95
29.88
20.45
20.89
27.14
35.87
45.48
55.89
67.59
80.60
93.92
105.57
112.97
113.49
104.94
85.85
55.79
15.65
-32.16
-83.66
-133.62
-176.42
-207.35
-223.78
-225.94
-216.73
-200.66
-182.34
-165.20
-150.89
-139.68
-131.07
-124.39
-118.98
-114.15
-109.07
-102.93
-95.26
-86.22
-76.52
-67.23
-59.25
-53.05
-48.52
-45.19
-42.44
-39.85
-37.24
-34.67
-32.21
-29.92
-27.71
-25.47
-23.15
-20.81
-18.57
-16.53
-14.73
-13.16
-11.82
-10.80
-10.16
-9.92
-9.92
-9.89
-9.55
-8.79
-7.71
-6.62
-5.81
-5.52
-5.79
-6.53
-7.64
-9.04
-10.72
-12.63
-14.60
-16.39
-17.70
-18.36
-18.40
-18.08
-17.69
-17.52
-17.64
-17.97
-18.27
-18.33
-18.04
-17.44
-16.80
-16.49
-16.86
-18.01
-19.59
-20.86
-20.88
-18.85
-14.50
-8.19
-0.83
6.47
12.60
16.78
18.64
18.28
16.23
13.35
10.55
8.58
7.76
7.92
8.55
9.03
8.94
8.31
7.56
7.35
8.28
10.57
13.92
17.51
20.32
21.47
20.50
17.46
12.70
6.66
-0.26
-7.64
-14.92
-21.36
-26.24
-29.15
-30.22
-30.10
-29.68
-29.67
-30.40
-31.80
-33.60
-35.53
-37.47
-39.38
-41.10
-42.34
-42.73
-42.03
-40.31
-37.93
-35.27
-32.37
-28.69
-23.36
-15.65
-5.61
5.67
16.27
24.13
27.85
27.26
23.48
18.40
13.94
11.34
10.82
11.55
12.08
10.85
6.86
0.00
-8.84
-18.17
-26.44
-32.70
-36.97
-40.11
-43.51
-48.66
-56.70
-68.18
-82.59
-97.82
-109.98
-113.93
-104.85
-80.39
-42.35
3.23
47.84
83.57
105.92
114.89
114.05
108.18
100.96
93.90
86.91
79.52
71.98
65.36
60.87
58.98
59.05
59.53
58.91
56.37
52.12
47.24
43.01
40.30
39.16
38.86
38.31
36.59
33.36
29.03
24.55
20.90
18.69
17.93
18.03
18.12
17.50
15.87
13.48
10.94
8.97
8.02
8.14
8.97
9.90
10.40
10.17
9.31
8.21
7.36
7.19
7.86
9.29
11.19
13.18
14.88
16.02
16.49
16.39
16.02
15.81
16.16
17.31
19.19
21.36
23.16
23.90
23.22
21.33
18.97
17.19
16.89
18.43
21.48
25.16
28.51
30.81
31.85
31.80
30.96
29.63
27.98
26.04
23.64
20.15
14.54
5.66
-7.17
-23.55
-41.81
-59.47
-74.11
-84.33
-90.09
-92.43
-92.66
-91.67
-89.69
-86.63
-82.66
-78.55
-75.49
-74.64
-76.51
-80.65
-85.81
-90.56
-93.84
-95.53
-96.52
-98.21
-101.99
-108.50
-117.31
-126.84
-134.61
-137.55
-132.52
-116.87
-89.26
-50.35
-3.14
47.44
95.59
136.25
166.28
185.00
193.82
195.20
191.72
185.54
178.37
171.68
166.82
164.80
165.73
168.28
169.49
165.32
152.04
127.81
93.82
54.46
15.91
-16.05
-38.11
-50.33
-55.52
-57.44
-58.92
-60.88
-62.59
-62.73
-60.47
-55.95
-49.89
-43.07
-35.89
-28.48
-21.08
-14.33
-9.20
-6.65
-7.06
-9.98
-14.22
-18.31
-21.02
-21.75
-20.56
-18.01
-14.83
-11.72
-9.15
-7.39
-6.47
-6.20
-6.27
-6.30
-6.02
-5.36
-4.43
-3.47
-2.74
-2.37
-2.36
-2.55
-2.77
-2.85
-2.69
-2.26
-1.62
-0.89
-0.23
0.19
0.27
0.02
-0.46
-0.97
-1.30
-1.32
-1.00
-0.48
0.06
0.45
0.60
0.52
0.34
0.19
0.19
0.38
0.73
1.16
1.56
1.84
1.98
2.00
1.97
1.97
1.98
1.99
1.90
1.65
1.22
0.64
-0.02
-0.71
-1.36
-1.91
-2.26
-2.34
-2.11
-1.67
-1.19
-0.86
-0.79
-0.89
-0.92
-0.59
0.34
1.86
3.78
5.75
7.45
8.70
9.51
10.08
10.68
11.51
12.62
13.86
14.96
15.64
15.79
15.54
15.23
15.30
16.12
17.84
20.31
23.12
25.62
27.16
27.14
25.24
21.50
16.38
10.66
5.23
0.71
-2.72
-5.37
-7.68
-9.70
-10.72
-9.32
-3.93
6.27
20.74
37.60
54.29
68.57
79.35
86.79
91.92
95.91
99.60
103.23
106.65
109.42
111.03
111.07
109.47
106.82
104.71
105.52
111.53
123.66
140.37
157.45
169.07
169.67
155.65
126.33
83.76
31.94
-24.18
-79.32
-128.37
-166.88
-191.83
-202.46
-200.60
-190.20
-176.03
-162.13
-150.81
-142.48
-136.26
-130.95
-125.62
-119.87
-113.66
-107.14
-100.51
-93.99
-87.79
-82.15
-77.25
-73.17
-69.83
-66.96
-64.14
-60.96
-57.21
-52.94
-48.51
-44.34
-40.70
-37.53
-34.45
-31.01
-26.80
-21.62
-15.40
-8.13
0.21
9.43
19.08
28.35
36.26
42.06
45.47
46.78
46.75
46.20
45.80
45.93
46.64
47.69
48.57
48.37
45.96
40.35
31.16
19.01
5.50
-7.25
-17.42
-24.06
-27.32
-28.17
-27.81
-27.09
-26.37
-25.58
-24.64
-23.64
-22.91
-22.75
-23.23
-24.07
-24.71
-24.67
-23.69
-21.92
-19.80
-17.87
-16.48
-15.65
-15.17
-14.67
-13.83
-12.56
-10.92
-9.10
-7.28
-5.51
-3.72
-1.80
0.33
2.61
4.81
6.61
7.69
7.85
7.10
5.71
4.15
2.98
2.67
3.37
4.81
6.39
7.43
7.52
6.70
5.40
4.10
3.01
1.85
0.08
-2.74
-6.61
-10.99
-15.09
-18.33
-20.58
-22.24
-23.97
-26.34
-29.63
-33.74
-38.23
-42.51
-46.03
-48.53
-50.21
-51.78
-54.21
-58.32
-64.27
-71.44
-78.60
-84.42
-88.21
-90.14
-91.32
-93.32
-97.65
-105.28
-116.15
-128.85
-140.58
-147.33
-144.64
-128.79
-98.11
-54.05
-1.27
53.33
102.39
140.18
163.89
173.92
172.97
164.51
151.57
136.16
119.51
102.70
87.01
73.83
64.11
57.77
53.68
50.11
45.69
40.13
34.41
30.24
29.21
31.84
37.19
43.29
47.91
49.51
47.78
43.60
38.42
33.55
29.65
26.66
24.12
21.57
18.91
16.35
14.23
12.77
11.95
11.46
10.89
9.87
8.20
5.89
3.22
0.52
-1.86
-3.71
-5.04
-5.94
-6.57
-6.99
-7.24
-7.33
-7.32
-7.38
-7.70
-8.43
-9.61
-11.11
-12.64
-13.95
-14.82
-15.21
-15.31
-15.43
-15.98
-17.28
-19.42
-22.16
-24.94
-27.09
-28.16
-28.19
-27.80
-27.96
-29.56
-32.98
-37.77
-42.92
-47.25
-50.00
-51.13
-51.37
-51.81
-53.58
-57.44
-63.70
-71.86
-80.35
-86.32
-86.19
-76.86
-57.21
-29.09
3.02
33.68
58.61
76.31
88.02
96.39
103.60
110.14
115.01
116.82
115.18
111.20
106.94
104.32
104.05
105.49
107.15
107.61
106.20
103.16
99.17
95.00
91.00
87.11
83.10
78.75
73.75
67.36
58.14
44.23
24.28
-1.49
-30.73
-59.41
-83.33
-99.68
-108.08
-110.30
-109.07
-106.62
-103.85
-100.52
-96.11
-90.79
-85.73
-82.63
-82.79
-86.41
-92.42
-99.05
-104.56
-108.01
-109.61
-110.51
-112.23
-116.04
-122.47
-131.13
-140.65
-148.82
-152.70
-149.14
-135.44
-110.34
-74.78
-32.03
12.99
55.10
90.22
116.23
133.03
141.81
144.27
141.97
136.28
128.50
120.03
112.28
106.20
102.01
99.10
96.30
92.49
87.05
80.10
72.40
64.95
58.55
53.53
49.76
46.75
43.82
40.34
35.88
30.36
24.19
18.19
13.35
10.45
9.75
10.80
12.66
14.35
15.20
15.15
14.59
14.11
14.10
14.65
15.53
16.41
17.10
17.63
18.18
18.83
19.33
19.03
17.18
13.28
7.44
0.49
-6.22
-11.29
-13.76
-13.37
-10.59
-6.39
-1.86
2.05
4.86
6.50
7.29
7.81
8.70
10.55
13.89
19.07
26.00
33.71
40.08
42.24
37.62
25.26
6.71
-14.24
-33.01
-46.07
-52.20
-52.61
-49.77
-45.96
-42.21
-38.35
-33.81
-28.49
-23.17
-19.06
-17.08
-17.29
-18.83
-20.47
-21.08
-20.22
-18.21
-15.86
-13.95
-12.92
-12.64
-12.56
-12.08
-10.87
-9.05
-7.11
-5.61
-4.90
-4.94
-5.34
-5.61
-5.37
-4.53
-3.31
-2.11
-1.30
-1.05
-1.28
-1.69
-1.93
-1.78
-1.20
-0.39
0.36
0.79
0.81
0.46
-0.06
-0.59
-1.03
-1.33
-1.47
-1.46
-1.27
-0.96
-0.62
-0.40
-0.43
-0.75
-1.26
-1.79
-2.12
-2.13
-1.81
-1.32
-0.90
-0.78
-1.09
-1.76
-2.55
-3.15
-3.27
-2.89
-2.20
-1.64
-1.62
-2.39
-3.85
-5.59
-7.07
-7.88
-7.97
-7.68
-7.59
-8.23
-9.80
-12.01
-14.21
-15.66
-16.02
-15.46
-14.73
-14.84
-16.65
-20.63
-26.71
-34.35
-42.38
-49.03
-52.06
-49.33
-39.74
-23.99
-4.80
13.73
27.58
34.27
33.67
27.73
19.37
11.12
4.29
-1.06
-5.36
-8.84
-11.05
-11.21
-8.74
-3.83
2.53
8.94
14.23
18.14
21.33
24.90
29.63
35.45
41.34
45.83
47.79
47.03
44.50
41.92
41.07
43.03
47.80
54.23
60.56
65.15
67.14
66.84
65.47
64.64
65.62
69.01
74.62
81.52
88.05
91.81
90.00
80.28
61.85
36.28
7.38
-20.02
-41.87
-56.28
-63.87
-66.88
-67.66
-67.61
-66.95
-65.29
-62.52
-59.14
-56.06
-53.95
-52.83
-52.00
-50.60
-48.02
-44.28
-40.06
-36.29
-33.74
-32.65
-32.58
-32.70
-32.03
-29.96
-26.39
-21.80
-16.95
-12.59
-9.18
-6.74
-5.01
-3.54
-2.04
-0.42
1.16
2.42
3.11
3.12
2.57
1.72
0.90
0.37
0.25
0.42
0.67
0.75
0.54
0.07
-0.52
-1.07
-1.50
-1.82
-2.11
-2.43
-2.77
-3.09
-3.34
-3.49
-3.52
-3.46
-3.27
-2.95
-2.50
-1.95
-1.37
-0.84
-0.42
-0.15
-0.05
-0.11
-0.26
-0.41
-0.42
-0.20
0.28
0.95
1.66
2.24
2.60
2.76
2.82
2.89
3.02
3.18
3.30
3.32
3.27
3.19
3.19
3.33
3.58
3.89
4.14
4.24
4.15
3.87
3.45
2.97
2.52
2.15
1.92
1.80
1.75
1.73
1.68
1.56
1.36
1.07
0.75
0.44
0.21
0.13
0.18
0.33
0.50
0.60
0.58
0.45
0.24
0.01
-0.20
-0.37
-0.51
-0.60
-0.63
-0.58
-0.40
-0.11
0.24
0.54
0.70
0.66
0.49
0.29
0.17
0.19
0.30
0.42
0.47
0.44
0.39
0.38
0.44
0.54
0.61
0.59
0.49
0.34
0.21
0.13
0.10
0.06
-0.02
-0.16
-0.35
-0.50
-0.59
-0.61
-0.58
-0.54
-0.53
-0.53
-0.52
-0.46
-0.34
-0.19
-0.02
0.14
0.28
0.39
0.45
0.43
0.34
0.23
0.15
0.17
0.28
0.42
0.46
0.32
-0.00
-0.41
-0.75
-0.91
-0.85
-0.66
-0.47
-0.37
-0.36
-0.34
-0.21
0.08
0.41
0.62
0.55
0.19
-0.28
-0.62
-0.66
-0.36
0.13
0.58
0.82
0.80
0.57
0.25
-0.10
-0.42
-0.68
-0.86
-0.89
-0.75
-0.48
-0.13
0.16
0.32
0.31
0.15
-0.09
-0.33
-0.48
-0.48
-0.34
-0.08
0.19
0.38
0.42
0.32
0.15
-0.01
-0.08
-0.04
0.08
0.22
0.32
0.39
0.42
0.43
0.43
0.40
0.33
0.21
0.02
-0.19
-0.39
-0.52
-0.54
-0.45
-0.30
-0.15
-0.05
-0.04
-0.11
-0.21
-0.29
-0.31
-0.27
-0.21
-0.21
-0.30
-0.45
-0.59
-0.66
-0.60
-0.44
-0.23
-0.04
0.09
0.21
0.35
0.53
0.69
0.76
0.66
0.42
0.11
-0.15
-0.29
-0.29
-0.22
-0.15
-0.13
-0.17
-0.21
-0.20
-0.13
-0.01
0.12
0.20
0.22
0.17
0.11
0.05
-0.01
-0.12
-0.32
-0.62
-0.99
-1.35
-1.62
-1.73
-1.64
-1.37
-0.98
-0.54
-0.17
0.02
-0.06
-0.44
-1.05
-1.74
-2.37
-2.82
-3.09
-3.30
-3.60
-4.13
-4.94
-5.94
-6.95
-7.70
-8.00
-7.82
-7.36
-7.01
-7.19
-8.11
-9.71
-11.59
-13.22
-14.17
-14.30
-13.81
-13.21
-13.02
-13.64
-15.21
-17.56
-20.22
-22.43
-23.13
-21.20
-15.80
-6.81
4.91
17.58
29.12
37.81
42.93
44.84
44.58
43.12
40.89
37.69
33.14
27.16
20.38
13.89
8.78
5.57
3.99
3.24
2.44
1.09
-0.67
-2.29
-3.24
-3.31
-2.76
-2.16
-2.02
-2.53
-3.50
-4.48
-5.04
-4.99
-4.42
-3.63
-2.96
-2.62
-2.64
-2.89
-3.15
-3.22
-3.02
-2.59
-2.10
-1.71
-1.53
-1.55
-1.65
-1.67
-1.51
-1.18
-0.78
-0.46
-0.30
-0.34
-0.50
-0.68
-0.80
-0.75
-0.54
-0.19
0.18
0.45
0.53
0.41
0.16
-0.11
-0.31
-0.42
-0.46
-0.44
-0.36
-0.19
0.10
0.50
0.91
1.22
1.31
1.17
0.85
0.48
0.18
0.03
0.05
0.17
0.27
0.27
0.15
-0.03
-0.17
-0.19
-0.09
0.07
0.21
0.29
0.34
0.43
0.61
0.83
0.99
0.97
0.69
0.23
-0.25
-0.59
-0.69
-0.57
-0.34
-0.11
0.08
0.22
0.36
0.48
0.52
0.45
0.27
0.06
-0.06
-0.01
0.19
0.43
0.59
0.57
0.40
0.14
-0.12
-0.31
-0.40
-0.40
-0.31
-0.20
-0.11
-0.11
-0.21
-0.31
-0.32
-0.15
0.17
0.51
0.68
0.58
0.25
-0.14
-0.41
-0.47
-0.34
-0.16
-0.02
0.04
0.08
0.16
0.28
0.36
0.29
0.03
-0.39
-0.78
-0.98
-0.89
-0.54
-0.10
0.24
0.37
0.27
0.04
-0.18
-0.30
-0.26
-0.12
0.07
0.21
0.26
0.21
0.08
-0.08
-0.20
-0.27
-0.30
-0.32
-0.35
-0.38
-0.39
-0.32
-0.21
-0.10
-0.07
-0.15
-0.27
-0.33
-0.23
0.04
0.39
0.70
0.84
0.79
0.58
0.31
0.09
-0.02
-0.02
0.06
0.18
0.31
0.40
0.43
0.35
0.18
-0.06
-0.32
-0.53
-0.68
-0.76
-0.81
-0.84
-0.84
-0.82
-0.76
-0.70
-0.66
-0.62
-0.55
-0.39
-0.11
0.24
0.50
0.54
0.32
-0.06
-0.39
-0.52
-0.38
-0.10
0.14
0.18
-0.01
-0.31
-0.56
-0.60
-0.41
-0.04
0.38
0.76
1.03
1.21
1.30
1.31
1.23
1.04
0.77
0.48
0.27
0.21
0.32
0.51
0.65
0.62
0.37
-0.06
-0.54
-0.95
-1.17
-1.18
-1.01
-0.75
-0.49
-0.31
-0.27
-0.37
-0.60
-0.87
-1.09
-1.18
-1.11
-0.91
-0.67
-0.48
-0.39
-0.38
-0.41
-0.41
-0.38
-0.35
-0.37
-0.49
-0.67
-0.85
-0.92
-0.84
-0.63
-0.38
-0.17
-0.03
0.07
0.17
0.31
0.44
0.50
0.46
0.35
0.29
0.40
0.72
1.18
1.58
1.78
1.68
1.32
0.84
0.40
0.12
0.04
0.12
0.28
0.46
0.56
0.57
0.46
0.25
-0.02
-0.29
-0.53
-0.71
-0.85
-0.97
-1.06
-1.11
-1.09
-0.98
-0.78
-0.54
-0.30
-0.12
0.00
0.07
0.10
0.13
0.14
0.14
0.11
0.06
0.02
0.04
0.11
0.24
0.37
0.43
0.40
0.29
0.15
0.05
0.05
0.15
0.32
0.50
0.65
0.74
0.79
0.82
0.85
0.89
0.93
0.92
0.81
0.57
0.20
-0.24
-0.65
-0.94
-1.09
-1.12
-1.12
-1.12
-1.13
-1.13
-1.08
-1.01
-0.94
-0.90
-0.89
-0.84
-0.71
-0.47
-0.18
0.06
0.18
0.15
0.03
-0.12
-0.25
-0.37
-0.50
-0.60
-0.60
-0.42
-0.05
0.44
0.88
1.12
1.10
0.90
0.66
0.50
0.45
0.42
0.33
0.14
-0.08
-0.23
-0.22
-0.05
0.22
0.47
0.65
0.73
0.75
0.72
0.67
0.59
0.48
0.37
0.27
0.19
0.13
0.05
-0.06
-0.22
-0.40
-0.57
-0.71
-0.79
-0.80
-0.73
-0.58
-0.41
-0.27
-0.21
-0.24
-0.34
-0.44
-0.51
-0.49
-0.41
-0.28
-0.17
-0.11
-0.16
-0.31
-0.50
-0.66
-0.72
-0.63
-0.44
-0.21
-0.01
0.11
0.17
0.22
0.29
0.39
0.48
0.53
0.51
0.46
0.39
0.34
0.30
0.27
0.26
0.31
0.42
0.58
0.71
0.71
0.53
0.21
-0.11
-0.30
-0.29
-0.14
-0.01
-0.04
-0.25
-0.52
-0.69
-0.66
-0.42
-0.11
0.10
0.12
-0.03
-0.25
-0.40
-0.41
-0.31
-0.15
-0.01
0.08
0.13
0.16
0.17
0.16
0.10
0.02
-0.08
-0.14
-0.14
-0.08
0.01
0.10
0.17
0.23
0.31
0.42
0.56
0.70
0.79
0.79
0.67
0.46
0.21
-0.03
-0.21
-0.30
-0.33
-0.31
-0.25
-0.18
-0.09
0.01
0.08
0.11
0.07
-0.02
-0.15
-0.29
-0.41
-0.47
-0.45
-0.33
-0.16
-0.00
0.05
-0.05
-0.28
-0.55
-0.74
-0.79
-0.69
-0.50
-0.31
-0.19
-0.16
-0.18
-0.21
-0.20
-0.19
-0.20
-0.28
-0.47
-0.74
-1.01
-1.19
-1.16
-0.84
-0.27
0.46
1.17
1.70
1.97
1.97
1.78
1.48
1.15
0.80
0.45
0.09
-0.23
-0.45
-0.54
-0.52
-0.49
-0.52
-0.65
-0.85
-1.00
-1.02
-0.86
-0.54
-0.14
0.25
0.57
0.79
0.94
1.01
1.01
0.95
0.83
0.69
0.56
0.49
0.50
0.58
0.73
0.90
1.06
1.20
1.29
1.32
1.32
1.29
1.25
1.19
1.11
0.99
0.84
0.70
0.64
0.74
1.02
1.45
1.92
2.31
2.55
2.69
2.85
3.17
3.70
4.32
4.81
4.91
4.46
3.50
2.24
1.01
0.12
-0.23
-0.04
0.56
1.29
1.90
2.12
1.85
1.08
-0.04
-1.34
-2.63
-3.78
-4.68
-5.28
-5.52
-5.42
-5.02
-4.47
-3.92
-3.53
-3.33
-3.26
-3.18
-2.99
-2.64
-2.21
-1.81
-1.53
-1.37
-1.28
-1.14
-0.93
-0.70
-0.53
-0.52
-0.68
-0.93
-1.10
-1.04
-0.70
-0.17
0.35
0.66
0.64
0.32
-0.11
-0.46
-0.57
-0.44
-0.20
-0.02
0.00
-0.16
-0.40
-0.60
-0.67
-0.60
-0.45
-0.32
-0.27
-0.36
-0.57
-0.85
-1.10
-1.23
-1.21
-1.04
-0.84
-0.70
-0.67
-0.75
-0.93
-1.19
-1.49
-1.79
-1.99
-1.92
-1.45
-0.56
0.64
1.88
2.90
3.50
3.62
3.34
2.83
2.26
1.77
1.46
1.34
1.37
1.48
1.59
1.69
1.76
1.82
1.84
1.75
1.47
0.95
0.25
-0.51
-1.16
-1.58
-1.73
-1.66
-1.49
-1.28
-1.11
-0.97
-0.85
-0.73
-0.61
-0.48
-0.37
-0.31
-0.32
-0.40
-0.54
-0.66
-0.72
-0.66
-0.47
-0.20
0.05
0.21
0.21
0.03
-0.31
-0.74
-1.20
-1.60
-1.85
-1.90
-1.72
-1.33
-0.77
-0.13
0.48
0.95
1.20
1.22
1.05
0.80
0.58
0.46
0.48
0.61
0.79
0.98
1.14
1.26
1.34
1.38
1.37
1.33
1.26
1.16
1.02
0.83
0.58
0.29
0.00
-0.24
-0.42
-0.51
-0.54
-0.51
-0.43
-0.32
-0.22
-0.15
-0.15
-0.21
-0.33
-0.47
-0.60
-0.66
-0.63
-0.52
-0.38
-0.28
-0.30
-0.48
-0.73
-0.97
-1.05
-0.93
-0.63
-0.28
0.02
0.18
0.20
0.13
0.04
0.00
0.03
0.11
0.22
0.29
0.26
0.08
-0.25
-0.65
-1.00
-1.13
-0.98
-0.56
0.01
0.52
0.80
0.76
0.45
0.01
-0.36
-0.53
-0.45
-0.16
0.22
0.59
0.83
0.91
0.83
0.64
0.42
0.24
0.15
0.15
0.24
0.36
0.49
0.57
0.57
0.50
0.39
0.29
0.26
0.33
0.52
0.75
0.96
1.08
1.09
1.03
0.89
0.64
0.25
-0.31
-0.95
-1.51
-1.82
-1.79
-1.50
-1.12
-0.88
-0.90
-1.16
-1.51
-1.81
-1.94
-1.91
-1.81
-1.72
-1.66
-1.61
-1.48
-1.21
-0.78
-0.25
0.29
0.72
0.97
1.04
0.98
0.88
0.79
0.71
0.63
0.55
0.48
0.47
0.56
0.72
0.90
0.99
0.94
0.77
0.56
0.40
0.33
0.29
0.21
0.00
-0.31
-0.62
-0.79
-0.72
-0.39
0.08
0.51
0.75
0.76
0.60
0.40
0.26
0.23
0.26
0.26
0.19
0.04
-0.14
-0.29
-0.40
-0.49
-0.58
-0.65
-0.67
-0.56
-0.31
0.05
0.47
0.84
1.12
1.28
1.32
1.25
1.08
0.81
0.49
0.16
-0.10
-0.25
-0.30
-0.27
-0.23
-0.20
-0.19
-0.23
-0.32
-0.49
-0.75
-1.03
-1.22
-1.19
-0.90
-0.41
0.12
0.49
0.58
0.41
0.10
-0.18
-0.30
-0.20
0.07
0.44
0.79
1.03
1.10
0.98
0.72
0.41
0.16
0.01
-0.02
0.02
0.05
0.03
-0.04
-0.10
-0.05
0.16
0.53
0.97
1.37
1.59
1.56
1.26
0.77
0.21
-0.28
-0.59
-0.65
-0.50
-0.22
0.05
0.17
0.09
-0.15
-0.40
-0.52
-0.44
-0.17
0.15
0.38
0.43
0.31
0.12
-0.03
-0.09
-0.06
-0.01
0.02
0.02
0.03
0.07
0.14
0.18
0.13
-0.04
-0.34
-0.73
-1.14
-1.46
-1.62
-1.54
-1.20
-0.66
-0.04
0.48
0.76
0.73
0.47
0.13
-0.15
-0.27
-0.23
-0.08
0.10
0.22
0.25
0.16
-0.04
-0.33
-0.64
-0.89
-1.03
-1.04
-0.96
-0.83
-0.74
-0.70
-0.70
-0.67
-0.57
-0.35
-0.05
0.26
0.50
0.60
0.56
0.42
0.27
0.19
0.20
0.28
0.39
0.49
0.57
0.63
0.69
0.71
0.68
0.58
0.45
0.35
0.33
0.42
0.57
0.67
0.64
0.44
0.11
-0.24
-0.46
-0.44
-0.16
0.31
0.84
1.28
1.53
1.57
1.47
1.25
0.96
0.57
0.10
-0.42
-0.91
-1.23
-1.30
-1.11
-0.75
-0.38
-0.14
-0.11
-0.28
-0.55
-0.84
-1.05
-1.17
-1.21
-1.18
-1.11
-0.96
-0.73
-0.44
-0.11
0.16
0.33
0.40
0.40
0.38
0.38
0.38
0.34
0.22
0.04
-0.16
-0.30
-0.33
-0.27
-0.17
-0.11
-0.15
-0.23
-0.30
-0.27
-0.13
0.07
0.23
0.26
0.14
-0.09
-0.34
-0.52
-0.56
-0.46
-0.25
0.02
0.28
0.47
0.56
0.55
0.47
0.39
0.38
0.43
0.49
0.50
0.38
0.14
-0.16
-0.41
-0.51
-0.45
-0.28
-0.12
-0.01
0.05
0.14
0.32
0.60
0.86
0.92
0.67
0.13
-0.53
-1.05
-1.24
-1.05
-0.59
-0.06
0.34
0.55
0.59
0.52
0.40
0.24
0.03
-0.21
-0.41
-0.46
-0.33
-0.02
0.32
0.54
0.54
0.32
0.00
-0.26
-0.38
-0.36
-0.32
-0.35
-0.51
-0.73
-0.89
-0.91
-0.76
-0.49
-0.21
0.03
0.22
0.39
0.59
0.84
1.12
1.35
1.47
1.42
1.18
0.81
0.39
0.05
-0.14
-0.17
-0.09
0.04
0.13
0.16
0.12
0.05
-0.04
-0.17
-0.34
-0.53
-0.67
-0.70
-0.55
-0.23
0.20
0.61
0.87
0.90
0.69
0.30
-0.17
-0.60
-0.90
-1.03
-0.99
-0.85
-0.66
-0.46
-0.28
-0.09
0.10
0.27
0.36
0.33
0.18
-0.03
-0.17
-0.17
-0.01
0.19
0.28
0.15
-0.19
-0.61
-0.91
-0.98
-0.81
-0.53
-0.29
-0.19
-0.22
-0.29
-0.27
-0.09
0.20
0.48
0.62
0.53
0.25
-0.10
-0.38
-0.47
-0.37
-0.15
0.12
0.34
0.50
0.61
0.70
0.74
0.66
0.43
0.06
-0.36
-0.66
-0.73
-0.51
-0.10
0.33
0.62
0.64
0.38
-0.05
-0.48
-0.76
-0.79
-0.58
-0.25
0.02
0.11
-0.02
-0.27
-0.45
-0.40
-0.06
0.48
0.99
1.23
1.11
0.69
0.19
-0.14
-0.15
0.11
0.49
0.77
0.82
0.66
0.40
0.19
0.10
0.11
0.13
0.07
-0.12
-0.40
-0.66
-0.83
-0.86
-0.73
-0.47
-0.13
0.19
0.39
0.41
0.21
-0.13
-0.51
-0.80
-0.95
-0.92
-0.79
-0.61
-0.43
-0.28
-0.14
0.02
0.17
0.29
0.32
0.26
0.12
-0.04
-0.14
-0.07
0.19
0.61
1.06
1.36
1.39
1.13
0.72
0.32
0.10
0.12
0.32
0.53
0.60
0.45
0.12
-0.26
-0.56
-0.67
-0.57
-0.35
-0.12
-0.01
-0.09
-0.32
-0.64
-0.91
-1.05
-1.01
-0.82
-0.53
-0.20
0.15
0.47
0.70
0.79
0.67
0.36
-0.08
-0.49
-0.75
-0.78
-0.62
-0.37
-0.15
-0.02
-0.02
-0.12
-0.26
-0.41
-0.52
-0.55
-0.43
-0.15
0.27
0.73
1.08
1.18
1.01
0.62
0.14
-0.24
-0.42
-0.37
-0.16
0.09
0.30
0.40
0.39
0.30
0.17
0.02
-0.14
-0.32
-0.48
-0.58
-0.59
-0.48
-0.27
-0.02
0.21
0.34
0.33
0.20
0.01
-0.15
-0.23
-0.18
-0.03
0.14
0.29
0.35
0.32
0.18
-0.04
-0.29
-0.52
-0.66
-0.69
-0.60
-0.44
-0.25
-0.13
-0.11
-0.18
-0.30
-0.38
-0.35
-0.15
0.20
0.65
1.09
1.37
1.42
1.19
0.72
0.15
-0.40
-0.78
-0.91
-0.80
-0.51
-0.16
0.09
0.17
0.06
-0.15
-0.31
-0.31
-0.12
0.20
0.50
0.66
0.64
0.50
0.32
0.18
0.06
-0.09
-0.30
-0.52
-0.65
-0.60
-0.38
-0.08
0.14
0.20
0.12
0.01
-0.01
0.11
0.30
0.45
0.49
0.42
0.30
0.17
0.06
-0.07
-0.23
-0.39
-0.47
-0.41
-0.20
0.08
0.33
0.44
0.40
0.26
0.09
-0.01
-0.02
0.05
0.15
0.25
0.35
0.42
0.46
0.44
0.35
0.20
-0.02
-0.28
-0.54
-0.74
-0.83
-0.77
-0.59
-0.33
-0.09
0.07
0.11
0.05
-0.06
-0.14
-0.13
-0.02
0.17
0.36
0.47
0.41
0.17
-0.21
-0.64
-1.02
-1.24
-1.26
-1.13
-0.91
-0.65
-0.38
-0.12
0.13
0.35
0.47
0.45
0.30
0.07
-0.14
-0.23
-0.12
0.15
0.50
0.82
1.05
1.15
1.17
1.13
1.04
0.84
0.52
0.07
-0.41
-0.82
-1.02
-0.98
-0.72
-0.36
-0.02
0.23
0.37
0.43
0.42
0.33
0.15
-0.10
-0.33
-0.45
-0.38
-0.12
0.19
0.43
0.51
0.43
0.27
0.12
0.03
-0.01
-0.00
0.03
0.12
0.27
0.48
0.65
0.71
0.62
0.42
0.23
0.14
0.19
0.35
0.52
0.64
0.65
0.57
0.44
0.29
0.11
-0.12
-0.39
-0.65
-0.79
-0.73
-0.48
-0.14
0.13
0.19
-0.01
-0.41
-0.87
-1.26
-1.48
-1.49
-1.33
-1.03
-0.68
-0.37
-0.18
-0.19
-0.42
-0.80
-1.17
-1.40
-1.38
-1.10
-0.65
-0.13
0.38
0.79
1.07
1.20
1.16
0.96
0.66
0.36
0.17
0.17
0.38
0.71
1.01
1.16
1.12
0.96
0.81
0.82
1.05
1.50
2.11
2.78
3.45
4.11
4.76
5.40
6.01
6.58
7.12
7.63
8.13
8.62
9.05
9.37
9.54
9.59
9.65
9.89
10.43
11.28
12.20
12.86
12.87
12.03
10.46
8.49
6.56
5.04
4.10
3.70
3.62
3.54
3.04
1.73
-0.64
-4.09
-8.26
-12.52
-16.17
-18.65
-19.80
-19.79
-19.01
-17.88
-16.70
-15.57
-14.49
-13.44
-12.38
-11.33
-10.32
-9.38
-8.54
-7.79
-7.09
-6.45
-5.87
-5.39
-5.01
-4.68
-4.28
-3.70
-2.89
-1.89
-0.84
0.08
0.80
1.29
1.60
1.78
1.83
1.78
1.65
1.49
1.39
1.40
1.52
1.70
1.85
1.88
1.78
1.58
1.37
1.21
1.18
1.30
1.53
1.79
1.99
2.02
1.83
1.39
0.78
0.12
-0.44
-0.71
-0.64
-0.26
0.28
0.76
1.01
0.95
0.63
0.18
-0.25
-0.56
-0.69
-0.62
-0.39
-0.05
0.33
0.69
0.97
1.12
1.12
0.96
0.65
0.25
-0.17
-0.49
-0.67
-0.68
-0.56
-0.43
-0.35
-0.36
-0.42
-0.49
-0.49
-0.43
-0.31
-0.18
-0.04
0.08
0.16
0.17
0.12
0.04
-0.01
0.05
0.23
0.48
0.67
0.67
0.46
0.10
-0.20
-0.31
-0.17
0.12
0.36
0.41
0.23
-0.09
-0.43
-0.66
-0.76
-0.74
-0.66
-0.50
-0.26
0.05
0.40
0.68
0.78
0.66
0.36
-0.05
-0.45
-0.77
-0.96
-0.98
-0.83
-0.55
-0.22
0.08
0.29
0.38
0.40
0.43
0.50
0.61
0.75
0.84
0.88
0.86
0.80
0.68
0.49
0.22
-0.11
-0.39
-0.50
-0.37
-0.04
0.36
0.63
0.64
0.39
-0.01
-0.37
-0.55
-0.52
-0.37
-0.21
-0.15
-0.15
-0.15
-0.07
0.10
0.29
0.38
0.31
0.11
-0.11
-0.25
-0.24
-0.14
-0.07
-0.15
-0.38
-0.70
-0.95
-0.99
-0.76
-0.33
0.16
0.54
0.73
0.70
0.55
0.37
0.22
0.13
0.09
0.10
0.16
0.26
0.36
0.38
0.26
0.00
-0.34
-0.62
-0.75
-0.67
-0.44
-0.16
0.06
0.21
0.30
0.42
0.59
0.79
0.95
0.99
0.88
0.64
0.35
0.07
-0.16
-0.37
-0.57
-0.76
-0.89
-0.87
-0.67
-0.35
-0.04
0.12
0.07
-0.14
-0.37
-0.47
-0.40
-0.24
-0.12
-0.14
-0.26
-0.38
-0.32
-0.05
0.39
0.84
1.13
1.18
0.99
0.67
0.33
0.06
-0.16
-0.33
-0.52
-0.74
-0.95
-1.10
-1.13
-1.02
-0.83
-0.63
-0.50
-0.47
-0.50
-0.52
-0.46
-0.31
-0.12
0.04
0.10
0.03
-0.12
-0.26
-0.35
-0.33
-0.21
-0.02
0.23
0.53
0.85
1.20
1.53
1.79
1.92
1.86
1.59
1.13
0.53
-0.10
-0.67
-1.08
-1.28
-1.31
-1.24
-1.17
-1.18
-1.34
-1.64
-2.02
-2.40
-2.70
-2.90
-3.01
-3.10
-3.23
-3.41
-3.57
-3.63
-3.57
-3.44
-3.42
-3.73
-4.49
-5.68
-7.08
-8.35
-9.19
-9.50
-9.43
-9.39
-9.91
-11.36
-13.81
-16.87
-19.91
-22.23
-23.41
-23.59
-23.43
-23.88
-25.73
-29.26
-33.99
-38.91
-42.90
-45.29
-46.16
-46.27
-46.76
-48.63
-52.45
-58.36
-66.19
-75.19
-83.70
-88.99
-87.85
-77.92
-59.12
-34.29
-8.41
13.44
28.20
35.95
39.40
42.06
46.51
53.42
62.05
71.30
80.60
90.10
100.08
110.24
119.31
125.14
125.42
118.54
104.36
84.63
62.54
41.69
24.82
12.97
5.53
1.11
-1.29
-1.56
1.21
7.82
17.96
29.92
41.20
49.65
54.26
55.42
54.27
51.97
49.06
45.38
40.42
33.73
25.26
15.37
4.69
-6.04
-16.02
-24.53
-30.95
-34.86
-36.17
-35.20
-32.55
-28.98
-25.14
-21.49
-18.24
-15.43
-12.98
-10.77
-8.60
-6.26
-3.55
-0.41
2.86
5.66
7.22
7.00
4.99
1.83
-1.41
-3.63
-4.16
-2.98
-0.65
1.99
4.28
5.90
6.97
7.90
9.21
11.37
14.61
18.82
23.47
27.70
30.61
31.53
30.34
27.50
23.96
20.66
18.26
16.93
16.43
16.53
17.31
19.25
23.02
29.04
37.03
45.97
54.42
61.12
65.64
68.64
71.65
76.57
84.97
97.42
113.05
129.31
142.22
147.03
139.31
116.36
78.43
29.24
-24.60
-75.28
-115.90
-142.38
-154.17
-153.78
-145.34
-133.01
-119.90
-107.85
-97.69
-89.70
-83.77
-79.39
-75.66
-71.37
-65.59
-58.05
-49.36
-40.71
-33.18
-27.28
-22.75
-18.79
-14.54
-9.40
-3.08
4.44
12.99
22.22
31.59
40.61
49.09
57.33
65.92
75.06
83.64
88.78
86.53
73.53
48.99
15.84
-19.85
-51.00
-72.23
-81.81
-81.68
-76.00
-68.85
-62.67
-57.85
-53.63
-49.30
-45.02
-41.69
-40.16
-40.49
-41.76
-42.48
-41.44
-38.28
-33.72
-29.12
-25.75
-24.25
-24.33
-25.04
-25.23
-24.12
-21.58
-18.12
-14.58
-11.71
-9.90
-9.02
-8.65
-8.31
-7.71
-6.80
-5.79
-4.95
-4.46
-4.33
-4.47
-4.73
-5.01
-5.26
-5.42
-5.50
-5.49
-5.44
-5.50
-5.84
-6.55
-7.59
-8.71
-9.58
-9.94
-9.77
-9.33
-9.03
-9.28
-10.21
-11.68
-13.28
-14.56
-15.11
-14.63
-12.92
-9.82
-5.35
0.24
6.37
12.24
17.14
20.65
22.81
23.97
24.58
24.83
24.60
23.56
21.44
18.29
14.53
10.86
7.97
6.32
5.99
6.67
7.83
8.91
9.47
9.28
8.34
6.72
4.49
1.65
-1.82
-5.88
-10.35
-14.89
-19.08
-22.51
-24.93
-26.30
-26.78
-26.66
-26.18
-25.49
-24.60
-23.52
-22.27
-20.99
-19.86
-18.96
-18.27
-17.60
-16.79
-15.76
-14.65
-13.69
-13.10
-12.91
-12.93
-12.84
-12.28
-10.99
-8.89
-6.03
-2.61
1.11
4.84
8.31
11.32
13.79
15.73
17.17
18.20
18.85
19.17
19.23
19.15
19.08
19.12
19.27
19.40
19.35
18.96
18.22
17.21
16.11
15.07
14.17
13.40
12.67
11.87
10.98
10.04
9.12
8.30
7.61
7.02
6.47
5.91
5.36
4.85
4.42
4.09
3.79
3.44
2.97
2.41
1.82
1.33
0.99
0.81
0.71
0.61
0.46
0.30
0.17
0.11
0.10
0.05
-0.06
-0.24
-0.42
-0.51
-0.49
-0.41
-0.33
-0.35
-0.48
-0.69
-0.92
-1.08
-1.11
-1.00
-0.76
-0.44
-0.14
0.04
0.05
-0.11
-0.36
-0.59
-0.68
-0.59
-0.33
0.02
0.41
0.78
1.09
1.32
1.46
1.52
1.52
1.48
1.45
1.43
1.46
1.55
1.70
1.90
2.10
2.24
2.24
2.09
1.82
1.51
1.25
1.14
1.23
1.54
2.02
2.50
2.80
2.73
2.18
1.19
-0.07
-1.40
-2.65
-3.73
-4.63
-5.38
-5.96
-6.32
-6.42
-6.24
-5.78
-5.11
-4.29
-3.40
-2.52
-1.73
-1.11
-0.67
-0.39
-0.21
-0.07
0.05
0.14
0.19
0.19
0.17
0.14
0.11
0.08
0.05
0.00
-0.07
-0.16
-0.26
-0.36
-0.45
-0.48
-0.38
-0.11
0.33
0.84
1.26
1.43
1.26
0.84
0.36
0.06
0.12
0.49
0.98
1.36
1.46
1.25
0.89
0.55
0.33
0.22
0.16
0.10
0.07
0.13
0.32
0.60
0.85
0.97
0.93
0.78
0.62
0.52
0.45
0.37
0.22
-0.01
-0.30
-0.58
-0.82
-0.99
-1.10
-1.11
-1.02
-0.85
-0.67
-0.58
-0.65
-0.90
-1.28
-1.67
-1.97
-2.11
-2.04
-1.72
-1.17
-0.43
0.39
1.13
1.64
1.83
1.75
1.50
1.22
1.01
0.87
0.75
0.64
0.56
0.58
0.74
0.99
1.20
1.22
0.99
0.57
0.12
-0.19
-0.25
-0.11
0.11
0.28
0.32
0.25
0.14
0.04
-0.06
-0.19
-0.38
-0.62
-0.83
-0.95
-0.97
-0.95
-0.94
-1.01
-1.11
-1.17
-1.09
-0.84
-0.47
-0.10
0.16
0.24
0.13
-0.11
-0.37
-0.58
-0.69
-0.68
-0.56
-0.38
-0.17
0.04
0.25
0.48
0.75
1.06
1.39
1.67
1.83
1.79
1.59
1.30
1.04
0.88
0.84
0.87
0.89
0.83
0.67
0.45
0.19
-0.07
-0.32
-0.55
-0.72
-0.80
-0.74
-0.59
-0.40
-0.25
-0.17
-0.17
-0.21
-0.25
-0.29
-0.32
-0.33
-0.32
-0.24
-0.08
0.13
0.33
0.45
0.45
0.34
0.15
-0.06
-0.26
-0.45
-0.59
-0.63
-0.50
-0.17
0.32
0.83
1.18
1.27
1.09
0.78
0.50
0.38
0.43
0.55
0.64
0.61
0.47
0.26
0.02
-0.24
-0.52
-0.79
-0.99
-1.04
-0.90
-0.62
-0.32
-0.12
-0.10
-0.26
-0.51
-0.75
-0.92
-0.97
-0.87
-0.65
-0.33
0.01
0.25
0.30
0.13
-0.20
-0.52
-0.69
-0.61
-0.29
0.15
0.60
0.97
1.23
1.41
1.52
1.56
1.50
1.36
1.21
1.16
1.29
1.63
2.13
2.64
3.07
3.37
3.57
3.74
3.98
4.33
4.78
5.28
5.77
6.21
6.57
6.82
6.96
7.07
7.30
7.79
8.68
9.95
11.40
12.76
13.77
14.37
14.72
15.13
15.89
17.11
18.61
20.06
21.12
21.60
21.53
21.12
20.62
20.16
19.76
19.26
18.48
17.20
15.22
12.31
8.28
3.07
-3.11
-9.74
-16.08
-21.38
-25.13
-27.29
-28.16
-28.30
-28.16
-28.00
-27.81
-27.47
-26.84
-25.90
-24.74
-23.52
-22.35
-21.28
-20.27
-19.21
-18.02
-16.66
-15.21
-13.80
-12.54
-11.46
-10.44
-9.29
-7.87
-6.23
-4.59
-3.27
-2.49
-2.26
-2.40
-2.63
-2.76
-2.81
-2.94
-3.40
-4.32
-5.69
-7.29
-8.84
-10.10
-10.95
-11.45
-11.83
-12.41
-13.45
-15.09
-17.23
-19.57
-21.72
-23.37
-24.39
-24.96
-25.45
-26.31
-27.93
-30.44
-33.65
-37.11
-40.31
-42.91
-45.01
-47.22
-50.42
-55.43
-62.46
-70.85
-79.28
-86.22
-90.72
-92.87
-93.81
-95.22
-98.49
-104.17
-111.66
-119.33
-124.71
-124.73
-116.06
-96.02
-63.69
-21.01
26.91
72.91
109.90
133.30
142.42
140.19
131.47
120.80
110.87
102.27
94.34
86.32
78.12
70.21
63.19
57.32
52.19
47.02
41.02
33.65
24.93
15.42
5.99
-2.42
-9.20
-14.29
-18.22
-21.86
-26.09
-31.46
-38.16
-46.19
-55.45
-65.48
-74.97
-81.31
-80.96
-70.72
-49.44
-19.14
15.16
47.11
71.41
85.59
90.39
88.70
83.76
77.75
71.49
64.98
58.29
51.95
46.76
43.27
41.27
39.93
38.14
35.11
30.64
25.26
19.89
15.40
12.28
10.44
9.29
7.94
5.58
1.77
-3.44
-9.52
-15.72
-21.43
-26.40
-30.67
-34.31
-37.05
-38.11
-36.55
-31.78
-24.09
-14.58
-4.72
4.41
12.51
19.98
27.28
34.40
40.64
44.97
46.69
45.89
43.41
40.38
37.61
35.27
32.99
30.28
26.91
23.13
19.54
16.74
15.06
14.35
14.12
13.72
12.74
11.10
9.14
7.34
6.15
5.74
5.98
6.55
7.08
7.35
7.27
6.92
6.41
5.86
5.29
4.67
3.99
3.23
2.41
1.58
0.78
0.05
-0.61
-1.17
-1.61
-1.88
-1.95
-1.79
-1.44
-0.97
-0.44
0.04
0.37
0.50
0.37
0.02
-0.49
-1.01
-1.42
-1.66
-1.70
-1.60
-1.41
-1.17
-0.92
-0.72
-0.63
-0.72
-0.99
-1.32
-1.56
-1.55
-1.21
-0.65
-0.06
0.35
0.50
0.41
0.22
0.10
0.12
0.28
0.51
0.72
0.87
0.93
0.91
0.84
0.77
0.74
0.78
0.91
1.11
1.33
1.50
1.56
1.51
1.35
1.13
0.90
0.71
0.55
0.46
0.43
0.47
0.56
0.69
0.85
1.05
1.25
1.44
1.57
1.60
1.53
1.40
1.29
1.28
1.35
1.43
1.40
1.15
0.65
-0.01
-0.67
-1.17
-1.44
-1.50
-1.47
-1.45
-1.52
-1.63
-1.72
-1.72
-1.62
-1.51
-1.50
-1.62
-1.83
-1.97
-1.94
-1.70
-1.37
-1.16
-1.19
-1.46
-1.82
-2.09
-2.13
-1.95
-1.67
-1.42
-1.26
-1.19
-1.14
-1.07
-0.98
-0.93
-0.94
-0.98
-1.01
-0.94
-0.74
-0.39
0.03
0.47
0.82
1.03
1.07
0.96
0.77
0.57
0.42
0.35
0.33
0.34
0.35
0.34
0.34
0.33
0.33
0.31
0.25
0.16
0.04
-0.05
-0.08
-0.06
0.01
0.07
0.08
0.04
-0.03
-0.12
-0.18
-0.19
-0.12
-0.01
0.11
0.17
0.12
-0.06
-0.31
-0.58
-0.81
-0.99
-1.16
-1.31
-1.42
-1.42
-1.22
-0.85
-0.39
0.01
0.24
0.26
0.14
0.02
-0.03
0.00
0.03
-0.03
-0.24
-0.55
-0.83
-0.94
-0.83
-0.54
-0.21
-0.02
-0.11
-0.50
-1.08
-1.71
-2.21
-2.51
-2.62
-2.62
-2.59
-2.59
-2.62
-2.64
-2.66
-2.70
-2.80
-2.99
-3.26
-3.58
-3.92
-4.26
-4.61
-4.94
-5.14
-5.08
-4.56
-3.45
-1.79
0.23
2.23
3.82
4.69
4.75
4.10
3.03
1.86
0.89
0.28
0.06
0.12
0.31
0.43
0.36
0.03
-0.57
-1.37
-2.24
-3.00
-3.35
-2.97
-1.62
0.76
3.88
7.20
10.05
11.89
12.54
12.15
11.12
9.84
8.55
7.31
6.10
4.91
3.80
2.84
2.09
1.52
1.03
0.56
0.09
-0.32
-0.61
-0.77
-0.82
-0.82
-0.79
-0.77
-0.74
-0.74
-0.77
-0.83
-0.88
-0.85
-0.70
-0.46
-0.20
-0.02
-0.01
-0.18
-0.47
-0.80
-1.11
-1.40
-1.68
-2.01
-2.39
-2.77
-3.06
-3.13
-2.91
-2.43
-1.78
-1.10
-0.51
-0.08
0.20
0.32
0.27
0.05
-0.33
-0.74
-1.05
-1.13
-0.93
-0.50
0.01
0.50
0.87
1.08
1.11
0.95
0.62
0.18
-0.24
-0.47
-0.46
-0.21
0.12
0.35
0.39
0.25
0.06
-0.03
0.07
0.33
0.62
0.83
0.87
0.80
0.69
0.64
0.66
0.71
0.73
0.64
0.47
0.25
0.07
-0.02
-0.01
0.08
0.19
0.26
0.28
0.28
0.34
0.52
0.85
1.28
1.69
1.97
2.08
2.05
2.00
2.06
2.24
2.49
2.66
2.64
2.41
2.09
1.85
1.84
2.09
2.48
2.81
2.94
2.82
2.51
2.19
2.00
2.01
2.18
2.42
2.57
2.54
2.27
1.79
1.14
0.41
-0.34
-1.05
-1.69
-2.26
-2.76
-3.20
-3.60
-3.92
-4.14
-4.18
-4.01
-3.65
-3.18
-2.74
-2.43
-2.26
-2.17
-2.03
-1.76
-1.36
-0.96
-0.70
-0.66
-0.81
-1.01
-1.10
-0.99
-0.67
-0.25
0.18
0.49
0.65
0.67
0.61
0.52
0.47
0.49
0.60
0.77
0.91
0.96
0.89
0.73
0.57
0.49
0.52
0.59
0.61
0.49
0.24
-0.04
-0.19
-0.11
0.17
0.54
0.85
0.98
0.88
0.62
0.29
-0.02
-0.26
-0.42
-0.53
-0.61
-0.64
-0.60
-0.47
-0.28
-0.10
0.01
0.01
-0.11
-0.27
-0.42
-0.50
-0.55
-0.62
-0.77
-1.01
-1.28
-1.47
-1.51
-1.45
-1.39
-1.47
-1.75
-2.16
-2.55
-2.72
-2.58
-2.16
-1.63
-1.19
-0.97
-0.96
-1.09
-1.22
-1.26
-1.18
-1.01
-0.79
-0.55
-0.32
-0.10
0.08
0.19
0.18
0.04
-0.24
-0.59
-0.92
-1.15
-1.23
-1.15
-0.94
-0.64
-0.28
0.11
0.51
0.86
1.09
1.13
0.96
0.61
0.19
-0.18
-0.45
-0.59
-0.67
-0.72
-0.74
-0.69
-0.55
-0.33
-0.06
0.19
0.40
0.58
0.75
0.92
1.03
1.02
0.85
0.55
0.20
-0.08
-0.21
-0.17
-0.02
0.16
0.30
0.38
0.36
0.23
-0.00
-0.32
-0.63
-0.81
-0.77
-0.50
-0.14
0.15
0.24
0.10
-0.15
-0.34
-0.35
-0.21
-0.02
0.09
0.05
-0.10
-0.26
-0.39
-0.48
-0.55
-0.62
-0.65
-0.61
-0.51
-0.38
-0.28
-0.24
-0.24
-0.24
-0.18
-0.05
0.11
0.24
0.31
0.32
0.33
0.35
0.38
0.36
0.22
-0.02
-0.31
-0.52
-0.55
-0.38
-0.12
0.09
0.14
0.01
-0.24
-0.46
-0.53
-0.44
-0.23
-0.01
0.18
0.30
0.40
0.51
0.63
0.73
0.77
0.70
0.53
0.29
0.02
-0.23
-0.40
-0.48
-0.46
-0.36
-0.21
-0.07
0.02
0.02
-0.06
-0.15
-0.20
-0.14
0.04
0.29
0.54
0.72
0.79
0.76
0.68
0.63
0.59
0.54
0.42
0.21
-0.02
-0.17
-0.14
0.07
0.37
0.62
0.69
0.53
0.20
-0.21
-0.56
-0.76
-0.81
-0.70
-0.49
-0.26
-0.09
-0.04
-0.13
-0.32
-0.50
-0.57
-0.49
-0.28
-0.05
0.08
0.05
-0.12
-0.38
-0.64
-0.85
-1.00
-1.07
-1.08
-0.98
-0.79
-0.54
-0.30
-0.17
-0.14
-0.19
-0.20
-0.11
0.04
0.16
0.12
-0.13
-0.51
-0.90
-1.17
-1.28
-1.30
-1.36
-1.53
-1.81
-2.12
-2.35
-2.47
-2.49
-2.51
-2.59
-2.76
-2.99
-3.21
-3.38
-3.51
-3.63
-3.77
-3.96
-4.19
-4.40
-4.53
-4.51
-4.32
-3.95
-3.44
-2.87
-2.31
-1.79
-1.33
-0.89
-0.45
0.01
0.51
1.04
1.63
2.27
2.97
3.70
4.42
5.03
5.45
5.57
5.35
4.83
4.11
3.37
2.80
2.48
2.43
2.52
2.63
2.66
2.60
2.52
2.49
2.55
2.70
2.85
2.93
2.91
2.78
2.59
2.35
2.08
1.76
1.37
0.91
0.43
0.01
-0.28
-0.37
-0.29
-0.12
0.06
0.16
0.22
0.32
0.55
0.91
1.29
1.52
1.48
1.16
0.73
0.37
0.22
0.27
0.38
0.40
0.25
0.00
-0.22
-0.30
-0.25
-0.18
-0.21
-0.41
-0.71
-0.98
-1.11
-1.04
-0.84
-0.61
-0.50
-0.57
-0.82
-1.14
-1.42
-1.53
-1.43
-1.13
-0.73
-0.34
-0.04
0.12
0.18
0.20
0.21
0.20
0.16
0.09
0.02
0.01
0.09
0.26
0.47
0.68
0.86
0.99
1.09
1.14
1.14
1.06
0.92
0.77
0.64
0.57
0.53
0.45
0.29
0.06
-0.17
-0.36
-0.49
-0.58
-0.70
-0.89
-1.14
-1.37
-1.51
-1.54
-1.46
-1.36
-1.31
-1.39
-1.68
-2.27
-3.26
-4.70
-6.60
-8.83
-11.16
-13.32
-15.05
-16.16
-16.63
-16.57
-16.19
-15.71
-15.20
-14.42
-12.89
-10.10
-5.82
-0.34
5.53
10.75
14.46
16.35
16.71
16.16
15.32
14.52
13.76
12.90
11.85
10.70
9.60
8.61
7.66
6.57
5.25
3.76
2.34
1.25
0.62
0.38
0.36
0.33
0.17
-0.09
-0.35
-0.49
-0.40
-0.07
0.48
1.16
1.86
2.45
2.78
2.79
2.47
1.87
1.10
0.30
-0.41
-0.91
-1.15
-1.10
-0.86
-0.58
-0.40
-0.40
-0.58
-0.79
-0.88
-0.71
-0.29
0.27
0.79
1.19
1.46
1.77
2.27
3.08
4.15
5.32
6.30
6.86
6.85
6.28
5.24
3.88
2.36
0.78
-0.81
-2.34
-3.74
-4.93
-5.84
-6.43
-6.72
-6.79
-6.71
-6.56
-6.39
-6.29
-6.31
-6.49
-6.76
-6.93
-6.64
-5.60
-3.68
-1.09
1.72
4.17
5.83
6.56
6.57
6.23
5.90
5.73
5.69
5.57
5.20
4.54
3.67
2.81
2.19
2.03
2.43
3.33
4.46
5.44
5.83
5.39
4.20
2.71
1.64
1.59
2.80
4.91
7.08
8.35
8.10
6.36
3.92
1.96
1.54
3.09
6.15
9.53
11.87
12.25
10.62
7.85
5.28
4.16
5.21
8.54
13.71
19.67
24.42
24.91
17.67
0.48
-25.90
-56.77
-84.65
-102.07
-104.78
-93.55
-73.46
-51.18
-31.80
-17.16
-6.30
2.57
10.20
15.86
18.20
16.76
12.72
8.47
6.32
7.38
11.13
15.81
19.46
20.82
19.79
17.27
14.65
13.11
13.12
14.32
15.71
16.24
15.28
12.89
9.82
7.06
5.39
5.04
5.61
6.37
6.64
6.09
4.90
3.52
2.50
2.11
2.32
2.84
3.31
3.50
3.36
2.98
2.48
1.92
1.28
0.50
-0.42
-1.40
-2.29
-2.94
-3.24
-3.22
-2.99
-2.72
-2.53
-2.45
-2.41
-2.28
-1.97
-1.48
-0.93
-0.52
-0.38
-0.49
-0.72
-0.90
-0.90
-0.73
-0.51
-0.38
-0.39
-0.49
-0.57
-0.54
-0.38
-0.16
0.02
0.10
0.08
-0.01
-0.07
-0.02
0.16
0.47
0.81
1.10
1.26
1.25
1.11
0.90
0.66
0.43
0.19
-0.05
-0.26
-0.33
-0.20
0.14
0.55
0.86
0.91
0.64
0.13
-0.45
-0.94
-1.24
-1.35
-1.31
-1.16
-0.94
-0.67
-0.43
-0.27
-0.26
-0.43
-0.71
-1.01
-1.24
-1.36
-1.38
-1.36
-1.34
-1.36
-1.41
-1.47
-1.51
-1.50
-1.43
-1.26
-0.95
-0.50
0.04
0.54
0.86
0.89
0.65
0.28
0.04
0.14
0.67
1.52
2.44
3.14
3.40
3.22
2.75
2.27
2.01
2.05
2.35
2.71
2.94
2.92
2.63
2.11
1.46
0.72
-0.08
-0.89
-1.66
-2.30
-2.73
-2.93
-2.94
-2.84
-2.71
-2.58
-2.42
-2.17
-1.79
-1.29
-0.72
-0.18
0.25
0.58
0.85
1.19
1.62
2.14
2.59
2.85
2.83
2.53
2.07
1.54
1.02
0.50
-0.04
-0.60
-1.08
-1.39
-1.44
-1.26
-0.94
-0.64
-0.48
-0.48
-0.56
-0.60
-0.51
-0.27
0.02
0.24
0.28
0.13
-0.13
-0.38
-0.52
-0.51
-0.38
-0.20
-0.02
0.13
0.29
0.49
0.72
0.94
1.09
1.10
0.95
0.67
0.33
0.02
-0.17
-0.23
-0.21
-0.19
-0.26
-0.45
-0.73
-1.01
-1.21
-1.31
-1.29
-1.20
-1.06
-0.85
-0.55
-0.19
0.15
0.33
0.24
-0.09
-0.54
-0.90
-1.01
-0.81
-0.41
0.03
0.34
0.47
0.45
0.39
0.37
0.39
0.40
0.33
0.11
-0.20
-0.53
-0.77
-0.83
-0.73
-0.51
-0.26
-0.00
0.24
0.48
0.69
0.82
0.81
0.68
0.47
0.30
0.23
0.28
0.36
0.40
0.35
0.22
0.09
-0.02
-0.10
-0.21
-0.38
-0.62
-0.86
-1.04
-1.10
-1.04
-0.93
-0.83
-0.79
-0.80
-0.84
-0.86
-0.85
-0.80
-0.76
-0.77
-0.86
-1.04
-1.26
-1.47
-1.60
-1.60
-1.51
-1.38
-1.30
-1.34
-1.47
-1.59
-1.54
-1.23
-0.68
-0.01
0.59
1.01
1.25
1.43
1.71
2.15
2.74
3.35
3.85
4.19
4.39
4.53
4.68
4.83
4.99
5.14
5.28
5.44
5.61
5.78
5.97
6.29
6.92
8.00
9.54
11.33
12.95
13.99
14.28
14.04
13.83
14.31
15.88
18.50
21.59
24.32
26.01
26.53
26.35
26.43
27.71
30.67
35.00
39.81
44.05
47.00
48.47
48.80
48.53
48.08
47.90
48.52
50.47
53.68
56.79
56.97
50.85
36.15
13.32
-13.97
-40.09
-59.76
-70.31
-72.44
-69.33
-64.56
-60.38
-57.12
-53.98
-50.18
-45.87
-42.02
-39.60
-38.90
-39.32
-39.77
-39.20
-37.10
-33.58
-29.16
-24.44
-19.92
-15.92
-12.56
-9.81
-7.54
-5.64
-4.08
-2.98
-2.59
-3.13
-4.60
-6.68
-8.80
-10.34
-10.89
-10.43
-9.29
-7.99
-6.99
-6.48
-6.39
-6.40
-6.18
-5.54
-4.52
-3.36
-2.39
-1.86
-1.84
-2.20
-2.67
-2.97
-2.92
-2.49
-1.80
-1.06
-0.46
-0.16
-0.25
-0.66
-1.28
-1.90
-2.33
-2.45
-2.22
-1.74
-1.15
-0.65
-0.33
-0.22
-0.26
-0.37
-0.49
-0.61
-0.76
-0.94
-1.12
-1.21
-1.12
-0.86
-0.52
-0.22
-0.10
-0.21
-0.47
-0.75
-0.92
-0.93
-0.79
-0.60
-0.45
-0.37
-0.34
-0.30
-0.20
-0.04
0.13
0.22
0.16
-0.06
-0.39
-0.73
-1.01
-1.17
-1.23
-1.16
-0.98
-0.66
-0.20
0.36
0.93
1.40
1.67
1.69
1.47
1.09
0.68
0.34
0.14
0.11
0.21
0.40
0.64
0.89
1.11
1.25
1.28
1.19
1.01
0.82
0.67
0.57
0.48
0.34
0.11
-0.20
-0.53
-0.79
-0.93
-0.93
-0.82
-0.64
-0.45
-0.29
-0.19
-0.16
-0.20
-0.28
-0.40
-0.52
-0.65
-0.75
-0.80
-0.77
-0.67
-0.57
-0.52
-0.58
-0.76
-1.01
-1.26
-1.45
-1.59
-1.68
-1.73
-1.78
-1.82
-1.91
-2.06
-2.27
-2.52
-2.75
-2.92
-3.02
-3.05
-3.02
-2.90
-2.61
-2.05
-1.18
-0.04
1.25
2.51
3.59
4.39
4.88
5.05
4.92
4.51
3.88
3.17
2.52
2.06
1.86
1.89
2.04
2.20
2.23
2.11
1.87
1.58
1.32
1.17
1.12
1.14
1.18
1.19
1.11
0.92
0.63
0.27
-0.09
-0.40
-0.60
-0.66
-0.57
-0.38
-0.15
0.06
0.18
0.19
0.10
-0.05
-0.22
-0.37
-0.47
-0.51
-0.49
-0.45
-0.42
-0.45
-0.55
-0.66
-0.74
-0.71
-0.55
-0.28
0.05
0.38
0.63
0.78
0.79
0.65
0.38
0.02
-0.34
-0.59
-0.62
-0.41
-0.02
0.41
0.70
0.75
0.57
0.28
0.04
-0.02
0.11
0.34
0.54
0.57
0.40
0.05
-0.39
-0.83
-1.15
-1.27
-1.15
-0.79
-0.28
0.25
0.67
0.90
0.92
0.77
0.53
0.22
-0.15
-0.56
-0.97
-1.27
-1.33
-1.07
-0.54
0.10
0.63
0.85
0.74
0.44
0.18
0.18
0.48
0.95
1.33
1.42
1.17
0.72
0.27
0.01
-0.02
0.08
0.15
0.09
-0.06
-0.21
-0.24
-0.10
0.14
0.33
0.34
0.10
-0.36
-0.89
-1.31
-1.47
-1.30
-0.85
-0.28
0.21
0.48
0.44
0.18
-0.17
-0.46
-0.59
-0.57
-0.43
-0.24
-0.02
0.21
0.42
0.57
0.58
0.39
0.03
-0.41
-0.79
-1.00
-0.98
-0.82
-0.60
-0.46
-0.45
-0.58
-0.81
-1.09
-1.34
-1.48
-1.43
-1.17
-0.73
-0.20
0.28
0.59
0.69
0.64
0.53
0.47
0.51
0.63
0.77
0.82
0.74
0.54
0.27
0.03
-0.09
-0.04
0.14
0.37
0.57
0.72
0.84
0.97
1.10
1.20
1.18
1.00
0.65
0.21
-0.18
-0.44
-0.51
-0.47
-0.39
-0.34
-0.36
-0.40
-0.43
-0.43
-0.40
-0.35
-0.27
-0.18
-0.07
0.05
0.16
0.23
0.24
0.20
0.10
-0.04
-0.20
-0.36
-0.47
-0.54
-0.55
-0.47
-0.31
-0.04
0.32
0.72
1.04
1.15
0.98
0.56
0.04
-0.41
-0.67
-0.76
-0.76
-0.76
-0.81
-0.86
-0.86
-0.80
-0.71
-0.63
-0.54
-0.39
-0.11
0.30
0.73
1.04
1.12
0.92
0.52
0.06
-0.32
-0.52
-0.49
-0.26
0.08
0.42
0.67
0.75
0.69
0.57
0.50
0.50
0.54
0.57
0.56
0.52
0.51
0.54
0.57
0.50
0.25
-0.16
-0.64
-1.04
-1.21
-1.11
-0.81
-0.44
-0.11
0.10
0.21
0.28
0.39
0.54
0.67
0.66
0.46
0.08
-0.36
-0.69
-0.78
-0.60
-0.24
0.12
0.30
0.23
-0.08
-0.48
-0.84
-1.05
-1.05
-0.89
-0.63
-0.38
-0.17
-0.01
0.13
0.25
0.36
0.40
0.35
0.18
-0.01
-0.14
-0.13
0.01
0.16
0.22
0.13
-0.06
-0.23
-0.24
-0.07
0.24
0.54
0.72
0.75
0.67
0.55
0.45
0.36
0.26
0.14
0.01
-0.12
-0.21
-0.28
-0.35
-0.43
-0.53
-0.61
-0.62
-0.52
-0.26
0.14
0.59
0.95
1.11
0.98
0.60
0.11
-0.30
-0.50
-0.48
-0.32
-0.16
-0.09
-0.13
-0.21
-0.23
-0.16
-0.06
-0.00
-0.04
-0.19
-0.36
-0.47
-0.48
-0.37
-0.19
0.02
0.24
0.45
0.62
0.71
0.72
0.63
0.48
0.31
0.16
0.04
-0.03
-0.07
-0.07
-0.02
0.08
0.20
0.34
0.43
0.45
0.35
0.16
-0.08
-0.31
-0.44
-0.45
-0.37
-0.26
-0.17
-0.11
-0.02
0.12
0.31
0.47
0.51
0.36
0.09
-0.19
-0.38
-0.36
-0.16
0.16
0.47
0.65
0.63
0.39
-0.01
-0.46
-0.83
-1.04
-1.06
-0.94
-0.78
-0.66
-0.56
-0.43
-0.22
0.06
0.30
0.32
0.04
-0.49
-1.05
-1.38
-1.28
-0.77
-0.05
0.60
0.96
0.96
0.70
0.35
0.03
-0.16
-0.23
-0.18
-0.03
0.20
0.47
0.71
0.86
0.91
0.83
0.63
0.34
0.00
-0.30
-0.47
-0.46
-0.25
0.09
0.42
0.65
0.70
0.60
0.39
0.14
-0.11
-0.31
-0.42
-0.38
-0.18
0.16
0.53
0.82
0.92
0.83
0.59
0.34
0.15
0.03
-0.10
-0.30
-0.58
-0.89
-1.07
-1.03
-0.71
-0.19
0.40
0.88
1.13
1.10
0.84
0.47
0.16
0.01
0.08
0.31
0.59
0.78
0.83
0.77
0.66
0.62
0.67
0.77
0.82
0.75
0.55
0.26
-0.02
-0.19
-0.24
-0.19
-0.09
0.03
0.14
0.26
0.39
0.51
0.57
0.50
0.25
-0.17
-0.67
-1.16
-1.51
-1.67
-1.58
-1.29
-0.87
-0.47
-0.21
-0.17
-0.33
-0.57
-0.78
-0.86
-0.80
-0.65
-0.51
-0.43
-0.42
-0.42
-0.38
-0.28
-0.18
-0.10
-0.07
-0.06
-0.02
0.04
0.06
0.00
-0.15
-0.31
-0.37
-0.28
-0.08
0.11
0.16
0.05
-0.12
-0.22
-0.16
0.02
0.20
0.26
0.18
-0.01
-0.21
-0.35
-0.42
-0.44
-0.43
-0.36
-0.19
0.07
0.34
0.51
0.50
0.29
-0.01
-0.26
-0.36
-0.28
-0.06
0.20
0.41
0.51
0.47
0.34
0.15
-0.03
-0.15
-0.18
-0.12
-0.02
0.09
0.14
0.13
0.06
-0.03
-0.10
-0.13
-0.10
-0.02
0.09
0.20
0.26
0.25
0.18
0.08
0.00
0.01
0.07
0.14
0.13
-0.02
-0.28
-0.52
-0.61
-0.46
-0.09
0.34
0.67
0.76
0.67
0.50
0.40
0.42
0.49
0.49
0.35
0.09
-0.17
-0.31
-0.29
-0.16
-0.04
-0.02
-0.10
-0.21
-0.23
-0.08
0.22
0.58
0.85
0.94
0.79
0.45
0.01
-0.40
-0.68
-0.78
-0.73
-0.62
-0.54
-0.53
-0.56
-0.56
-0.48
-0.32
-0.15
-0.09
-0.19
-0.43
-0.70
-0.87
-0.87
-0.72
-0.51
-0.29
-0.09
0.10
0.31
0.52
0.67
0.70
0.61
0.43
0.25
0.14
0.13
0.19
0.26
0.31
0.33
0.34
0.36
0.39
0.39
0.32
0.17
-0.03
-0.22
-0.32
-0.31
-0.22
-0.13
-0.11
-0.16
-0.25
-0.30
-0.22
-0.02
0.25
0.52
0.71
0.76
0.68
0.48
0.25
0.06
-0.01
0.05
0.17
0.23
0.13
-0.15
-0.52
-0.82
-0.93
-0.80
-0.52
-0.21
-0.01
0.05
-0.01
-0.10
-0.15
-0.11
0.03
0.25
0.50
0.74
0.91
0.96
0.88
0.67
0.33
-0.08
-0.52
-0.89
-1.11
-1.12
-0.92
-0.60
-0.24
0.04
0.21
0.27
0.27
0.25
0.23
0.20
0.14
0.06
-0.02
-0.09
-0.11
-0.11
-0.11
-0.13
-0.16
-0.18
-0.14
-0.03
0.15
0.32
0.41
0.36
0.18
-0.04
-0.22
-0.30
-0.28
-0.21
-0.16
-0.11
-0.06
0.05
0.17
0.24
0.15
-0.13
-0.53
-0.88
-1.04
-0.95
-0.67
-0.37
-0.18
-0.15
-0.22
-0.25
-0.15
0.10
0.41
0.68
0.82
0.82
0.72
0.56
0.37
0.18
-0.02
-0.21
-0.36
-0.49
-0.59
-0.68
-0.76
-0.81
-0.75
-0.55
-0.21
0.21
0.59
0.82
0.85
0.71
0.48
0.27
0.13
0.10
0.15
0.28
0.46
0.68
0.87
0.97
0.91
0.67
0.32
-0.02
-0.22
-0.21
-0.03
0.19
0.34
0.34
0.21
-0.00
-0.26
-0.55
-0.88
-1.24
-1.54
-1.71
-1.64
-1.35
-0.90
-0.41
0.03
0.35
0.56
0.68
0.71
0.68
0.57
0.38
0.13
-0.13
-0.32
-0.42
-0.37
-0.21
0.05
0.33
0.57
0.72
0.75
0.65
0.45
0.20
-0.03
-0.16
-0.19
-0.15
-0.10
-0.07
-0.08
-0.07
-0.02
0.10
0.24
0.32
0.30
0.22
0.13
0.11
0.19
0.33
0.47
0.56
0.59
0.57
0.56
0.55
0.53
0.47
0.31
0.06
-0.24
-0.51
-0.66
-0.65
-0.52
-0.37
-0.31
-0.38
-0.52
-0.61
-0.57
-0.40
-0.19
-0.08
-0.11
-0.24
-0.32
-0.26
-0.04
0.24
0.44
0.46
0.32
0.12
-0.06
-0.13
-0.11
-0.05
0.03
0.09
0.13
0.13
0.06
-0.11
-0.37
-0.67
-0.93
-1.05
-0.98
-0.72
-0.33
0.13
0.55
0.85
0.97
0.88
0.62
0.22
-0.21
-0.59
-0.82
-0.86
-0.70
-0.39
-0.01
0.36
0.64
0.80
0.83
0.77
0.67
0.56
0.49
0.46
0.49
0.53
0.56
0.54
0.48
0.38
0.30
0.24
0.22
0.20
0.17
0.09
-0.03
-0.19
-0.41
-0.68
-0.98
-1.28
-1.48
-1.51
-1.33
-0.97
-0.53
-0.15
0.07
0.10
-0.01
-0.18
-0.31
-0.34
-0.26
-0.11
0.06
0.18
0.23
0.22
0.16
0.10
0.07
0.08
0.10
0.13
0.15
0.16
0.18
0.20
0.19
0.12
-0.01
-0.16
-0.27
-0.24
-0.06
0.22
0.49
0.65
0.64
0.52
0.38
0.34
0.43
0.61
0.79
0.86
0.76
0.50
0.16
-0.17
-0.39
-0.45
-0.38
-0.24
-0.13
-0.13
-0.25
-0.46
-0.72
-0.96
-1.17
-1.32
-1.41
-1.39
-1.20
-0.84
-0.31
0.25
0.71
0.94
0.87
0.55
0.10
-0.28
-0.44
-0.30
0.08
0.56
0.94
1.08
0.96
0.69
0.41
0.28
0.33
0.51
0.71
0.83
0.81
0.68
0.52
0.43
0.47
0.60
0.74
0.78
0.66
0.40
0.09
-0.15
-0.27
-0.30
-0.31
-0.41
-0.62
-0.91
-1.21
-1.41
-1.50
-1.47
-1.37
-1.20
-0.98
-0.67
-0.28
0.16
0.59
0.94
1.18
1.28
1.24
1.08
0.87
0.68
0.53
0.44
0.35
0.25
0.10
-0.05
-0.13
-0.08
0.10
0.33
0.53
0.60
0.49
0.27
0.00
-0.20
-0.28
-0.23
-0.09
0.03
0.05
-0.09
-0.39
-0.78
-1.17
-1.46
-1.60
-1.62
-1.55
-1.44
-1.30
-1.11
-0.84
-0.48
-0.08
0.25
0.39
0.26
-0.12
-0.61
-0.97
-1.03
-0.71
-0.08
0.62
1.17
1.41
1.33
1.07
0.78
0.56
0.44
0.38
0.35
0.34
0.37
0.43
0.49
0.49
0.40
0.23
0.05
-0.07
-0.09
-0.02
0.08
0.15
0.18
0.14
0.04
-0.10
-0.27
-0.46
-0.65
-0.83
-0.99
-1.08
-1.09
-0.97
-0.71
-0.32
0.13
0.55
0.84
1.00
1.04
1.03
1.04
1.11
1.20
1.27
1.25
1.13
0.95
0.76
0.60
0.49
0.40
0.33
0.30
0.36
0.53
0.80
1.10
1.35
1.48
1.45
1.30
1.09
0.88
0.71
0.61
0.63
0.76
1.03
1.35
1.61
1.70
1.55
1.21
0.77
0.35
0.01
-0.30
-0.70
-1.27
-2.03
-2.90
-3.72
-4.32
-4.61
-4.58
-4.32
-3.95
-3.56
-3.20
-2.86
-2.49
-2.07
-1.64
-1.26
-1.00
-0.91
-0.91
-0.91
-0.77
-0.45
0.03
0.59
1.16
1.68
2.12
2.46
2.68
2.76
2.76
2.72
2.72
2.79
2.88
2.91
2.80
2.56
2.29
2.12
2.15
2.36
2.69
3.02
3.31
3.54
3.70
3.74
3.55
3.02
2.15
1.05
-0.04
-0.90
-1.44
-1.72
-1.91
-2.14
-2.47
-2.84
-3.17
-3.38
-3.45
-3.44
-3.36
-3.20
-2.94
-2.57
-2.17
-1.81
-1.56
-1.42
-1.30
-1.14
-0.92
-0.68
-0.49
-0.41
-0.42
-0.47
-0.53
-0.55
-0.56
-0.54
-0.50
-0.40
-0.25
-0.10
-0.03
-0.11
-0.34
-0.65
-0.91
-1.04
-1.02
-0.88
-0.70
-0.55
-0.43
-0.32
-0.19
-0.05
0.06
0.08
-0.02
-0.24
-0.51
-0.72
-0.79
-0.67
-0.38
-0.02
0.31
0.52
0.54
0.41
0.18
-0.00
-0.05
0.07
0.32
0.61
0.84
0.93
0.89
0.75
0.59
0.45
0.36
0.32
0.29
0.26
0.20
0.08
-0.10
-0.31
-0.51
-0.62
-0.60
-0.46
-0.24
-0.01
0.16
0.23
0.20
0.10
-0.01
-0.10
-0.12
-0.06
0.09
0.31
0.57
0.81
0.99
1.08
1.09
1.04
0.97
0.90
0.82
0.71
0.54
0.36
0.22
0.18
0.25
0.41
0.55
0.61
0.56
0.42
0.28
0.19
0.19
0.26
0.35
0.44
0.49
0.43
0.22
-0.19
-0.74
-1.34
-1.84
-2.09
-2.04
-1.74
-1.32
-0.91
-0.61
-0.44
-0.37
-0.34
-0.33
-0.33
-0.35
-0.39
-0.42
-0.39
-0.27
-0.07
0.17
0.39
0.56
0.68
0.74
0.75
0.67
0.46
0.14
-0.21
-0.48
-0.55
-0.36
0.07
0.61
1.13
1.49
1.61
1.48
1.15
0.70
0.24
-0.13
-0.37
-0.46
-0.47
-0.47
-0.48
-0.51
-0.52
-0.48
-0.40
-0.34
-0.35
-0.44
-0.56
-0.63
-0.59
-0.42
-0.20
-0.03
0.01
-0.06
-0.18
-0.24
-0.19
-0.02
0.20
0.38
0.47
0.48
0.46
0.49
0.62
0.80
0.91
0.87
0.65
0.31
-0.01
-0.20
-0.21
-0.10
0.03
0.09
0.08
0.03
-0.01
-0.05
-0.16
-0.39
-0.73
-1.07
-1.24
-1.14
-0.76
-0.27
0.14
0.29
0.16
-0.16
-0.49
-0.64
-0.56
-0.31
-0.04
0.12
0.09
-0.08
-0.29
-0.43
-0.43
-0.33
-0.22
-0.16
-0.15
-0.09
0.10
0.44
0.85
1.17
1.24
1.03
0.63
0.23
-0.05
-0.18
-0.22
-0.26
-0.34
-0.42
-0.44
-0.33
-0.11
0.15
0.36
0.49
0.54
0.52
0.45
0.36
0.24
0.12
0.02
0.01
0.08
0.22
0.33
0.35
0.23
-0.02
-0.30
-0.50
-0.55
-0.43
-0.21
0.04
0.24
0.39
0.48
0.52
0.47
0.28
-0.05
-0.43
-0.73
-0.82
-0.68
-0.36
-0.01
0.23
0.32
0.27
0.18
0.14
0.18
0.28
0.40
0.48
0.48
0.40
0.31
0.27
0.33
0.48
0.63
0.62
0.38
-0.08
-0.58
-0.93
-0.96
-0.66
-0.21
0.15
0.23
-0.01
-0.45
-0.87
-1.10
-1.06
-0.78
-0.39
0.02
0.37
0.62
0.74
0.73
0.58
0.35
0.12
-0.01
0.01
0.16
0.36
0.52
0.56
0.50
0.39
0.28
0.21
0.18
0.15
0.10
0.05
0.01
-0.03
-0.10
-0.24
-0.45
-0.72
-0.95
-1.04
-0.97
-0.76
-0.49
-0.24
-0.10
-0.07
-0.11
-0.16
-0.14
-0.03
0.14
0.29
0.35
0.22
-0.09
-0.49
-0.82
-0.93
-0.75
-0.37
0.04
0.27
0.21
-0.11
-0.55
-0.90
-1.01
-0.85
-0.49
-0.07
0.29
0.53
0.71
0.86
1.06
1.25
1.34
1.21
0.80
0.16
-0.54
-1.05
-1.19
-0.89
-0.25
0.48
1.05
1.32
1.27
1.03
0.79
0.68
0.72
0.85
0.95
0.92
0.76
0.49
0.17
-0.16
-0.49
-0.81
-1.11
-1.34
-1.46
-1.44
-1.25
-0.93
-0.54
-0.17
0.07
0.16
0.10
-0.07
-0.27
-0.46
-0.59
-0.65
-0.66
-0.62
-0.50
-0.33
-0.12
0.06
0.16
0.15
0.06
-0.08
-0.20
-0.30
-0.36
-0.40
-0.39
-0.32
-0.16
0.08
0.33
0.50
0.50
0.35
0.13
0.01
0.11
0.46
0.96
1.41
1.63
1.50
1.06
0.47
-0.07
-0.37
-0.39
-0.17
0.13
0.34
0.39
0.29
0.13
0.02
-0.01
-0.01
-0.06
-0.18
-0.34
-0.47
-0.50
-0.45
-0.41
-0.43
-0.48
-0.44
-0.20
0.29
0.90
1.41
1.63
1.48
1.06
0.56
0.18
-0.02
-0.08
-0.13
-0.23
-0.40
-0.59
-0.74
-0.81
-0.80
-0.73
-0.65
-0.58
-0.53
-0.50
-0.44
-0.33
-0.15
0.10
0.35
0.57
0.68
0.68
0.60
0.47
0.34
0.20
0.03
-0.22
-0.51
-0.77
-0.91
-0.83
-0.54
-0.10
0.35
0.67
0.80
0.76
0.64
0.52
0.49
0.54
0.63
0.69
0.69
0.61
0.47
0.28
0.05
-0.21
-0.48
-0.71
-0.84
-0.81
-0.62
-0.37
-0.21
-0.27
-0.58
-1.02
-1.37
-1.43
-1.14
-0.58
0.02
0.46
0.63
0.57
0.39
0.24
0.20
0.28
0.41
0.57
0.69
0.77
0.77
0.67
0.48
0.23
0.01
-0.14
-0.20
-0.21
-0.21
-0.22
-0.24
-0.27
-0.31
-0.40
-0.53
-0.70
-0.81
-0.78
-0.57
-0.25
0.07
0.28
0.29
0.17
0.01
-0.04
0.03
0.22
0.42
0.53
0.52
0.41
0.27
0.18
0.19
0.29
0.38
0.38
0.24
-0.01
-0.26
-0.38
-0.32
-0.08
0.23
0.52
0.69
0.76
0.73
0.63
0.45
0.16
-0.21
-0.60
-0.91
-1.04
-1.01
-0.87
-0.74
-0.68
-0.70
-0.76
-0.76
-0.66
-0.48
-0.25
-0.03
0.18
0.37
0.56
0.73
0.86
0.92
0.88
0.76
0.58
0.39
0.23
0.14
0.13
0.18
0.25
0.29
0.30
0.28
0.25
0.22
0.19
0.13
0.03
-0.13
-0.33
-0.54
-0.72
-0.85
-0.93
-0.97
-1.00
-1.01
-0.99
-0.93
-0.83
-0.68
-0.49
-0.29
-0.10
0.08
0.24
0.41
0.59
0.77
0.90
0.91
0.79
0.57
0.32
0.16
0.15
0.28
0.42
0.47
0.33
0.01
-0.38
-0.72
-0.90
-0.85
-0.59
-0.20
0.21
0.53
0.67
0.60
0.37
0.06
-0.21
-0.38
-0.45
-0.45
-0.42
-0.38
-0.30
-0.18
-0.01
0.18
0.33
0.45
0.56
0.72
0.95
1.24
1.51
1.65
1.61
1.36
0.99
0.61
0.36
0.33
0.52
0.85
1.18
1.41
1.46
1.37
1.23
1.11
1.09
1.19
1.39
1.68
2.04
2.45
2.88
3.30
3.65
3.92
4.11
4.27
4.45
4.69
5.00
5.36
5.72
6.03
6.29
6.53
6.81
7.15
7.43
7.42
6.76
5.19
2.62
-0.68
-4.27
-7.56
-10.12
-11.78
-12.61
-12.87
-12.81
-12.62
-12.37
-12.10
-11.78
-11.34
-10.69
-9.73
-8.42
-6.88
-5.34
-4.05
-3.13
-2.51
-1.95
-1.21
-0.26
0.73
1.43
1.52
0.95
-0.09
-1.21
-1.99
-2.15
-1.58
-0.41
1.09
2.61
3.84
4.57
4.69
4.15
2.95
1.16
-1.13
-3.73
-6.42
-9.01
-11.37
-13.36
-14.66
-14.67
-12.67
-8.14
-1.23
7.02
14.95
20.85
23.68
23.45
21.04
17.67
14.30
11.31
8.61
5.98
3.45
1.27
-0.26
-1.01
-1.18
-1.14
-1.26
-1.73
-2.47
-3.26
-3.83
-3.97
-3.62
-2.86
-1.91
-1.05
-0.54
-0.52
-0.90
-1.45
-1.86
-1.93
-1.64
-1.18
-0.77
-0.63
-0.79
-1.15
-1.55
-1.86
-2.05
-2.13
-2.12
-2.06
-1.94
-1.82
-1.74
-1.74
-1.79
-1.82
-1.68
-1.33
-0.80
-0.22
0.27
0.58
0.74
0.85
1.00
1.23
1.47
1.61
1.57
1.35
1.02
0.67
0.37
0.13
-0.06
-0.24
-0.42
-0.59
-0.72
-0.80
-0.81
-0.76
-0.62
-0.35
0.06
0.54
0.98
1.26
1.28
1.11
0.86
0.68
0.67
0.78
0.87
0.83
0.61
0.28
-0.04
-0.25
-0.33
-0.34
-0.33
-0.31
-0.19
0.09
0.53
1.03
1.44
1.60
1.48
1.17
0.81
0.55
0.45
0.46
0.47
0.40
0.17
-0.21
-0.70
-1.19
-1.58
-1.78
-1.78
-1.65
-1.47
-1.31
-1.22
-1.14
-1.04
-0.87
-0.64
-0.40
-0.22
-0.11
-0.06
-0.02
0.04
0.15
0.28
0.44
0.59
0.73
0.84
0.92
0.98
1.00
0.98
0.91
0.81
0.73
0.71
0.77
0.90
1.01
1.04
0.97
0.81
0.62
0.43
0.24
0.03
-0.22
-0.46
-0.61
-0.60
-0.43
-0.19
-0.01
-0.02
-0.24
-0.58
-0.90
-1.06
-0.97
-0.67
-0.25
0.16
0.43
0.51
0.42
0.22
-0.01
-0.21
-0.35
-0.46
-0.54
-0.62
-0.67
-0.66
-0.55
-0.35
-0.14
0.04
0.12
0.11
0.05
0.01
-0.02
-0.05
-0.15
-0.32
-0.54
-0.74
-0.82
-0.78
-0.62
-0.42
-0.27
-0.19
-0.16
-0.14
-0.08
0.02
0.10
0.10
-0.03
-0.29
-0.56
-0.75
-0.74
-0.53
-0.16
0.22
0.51
0.66
0.69
0.66
0.60
0.49
0.33
0.09
-0.16
-0.32
-0.32
-0.17
0.03
0.17
0.19
0.11
0.03
0.07
0.26
0.56
0.85
1.02
1.02
0.86
0.62
0.35
0.08
-0.14
-0.27
-0.28
-0.13
0.15
0.47
0.71
0.78
0.64
0.36
0.04
-0.20
-0.28
-0.24
-0.14
-0.07
-0.09
-0.19
-0.28
-0.29
-0.20
-0.00
0.19
0.30
0.26
0.10
-0.10
-0.24
-0.26
-0.15
0.01
0.16
0.23
0.23
0.20
0.19
0.23
0.33
0.42
0.46
0.40
0.24
0.03
-0.19
-0.39
-0.54
-0.63
-0.66
-0.62
-0.53
-0.42
-0.28
-0.14
0.04
0.26
0.50
0.70
0.77
0.68
0.42
0.05
-0.32
-0.59
-0.71
-0.67
-0.51
-0.29
-0.05
0.17
0.38
0.59
0.79
0.92
0.87
0.57
0.05
-0.56
-1.05
-1.24
-1.08
-0.70
-0.30
-0.07
-0.05
-0.16
-0.24
-0.21
-0.07
0.07
0.10
-0.03
-0.24
-0.44
-0.53
-0.53
-0.51
-0.54
-0.67
-0.81
-0.86
-0.72
-0.37
0.09
0.50
0.73
0.73
0.54
0.27
0.04
-0.08
-0.07
0.05
0.22
0.41
0.58
0.70
0.77
0.78
0.77
0.74
0.71
0.67
0.59
0.47
0.33
0.20
0.12
0.05
-0.04
-0.16
-0.28
-0.31
-0.19
0.08
0.39
0.59
0.57
0.31
-0.09
-0.48
-0.70
-0.68
-0.47
-0.20
0.03
0.12
0.09
-0.01
-0.12
-0.20
-0.26
-0.33
-0.42
-0.50
-0.49
-0.36
-0.14
0.09
0.23
0.24
0.12
-0.03
-0.13
-0.14
-0.07
0.05
0.16
0.26
0.34
0.42
0.49
0.54
0.58
0.60
0.61
0.61
0.57
0.49
0.36
0.21
0.08
0.00
-0.01
0.04
0.11
0.16
0.18
0.19
0.20
0.20
0.20
0.17
0.12
0.09
0.12
0.22
0.34
0.40
0.33
0.11
-0.21
-0.56
-0.87
-1.10
-1.23
-1.28
-1.22
-1.07
-0.84
-0.60
-0.41
-0.32
-0.34
-0.42
-0.53
-0.63
-0.70
-0.73
-0.69
-0.56
-0.34
-0.07
0.16
0.27
0.24
0.09
-0.10
-0.23
-0.25
-0.14
0.07
0.28
0.42
0.43
0.30
0.10
-0.10
-0.21
-0.20
-0.09
0.06
0.18
0.25
0.27
0.29
0.34
0.42
0.50
0.55
0.53
0.45
0.37
0.34
0.36
0.41
0.37
0.16
-0.20
-0.60
-0.87
-0.85
-0.51
0.05
0.61
0.94
0.97
0.75
0.44
0.21
0.13
0.14
0.14
0.06
-0.11
-0.30
-0.41
-0.35
-0.16
0.07
0.22
0.22
0.08
-0.13
-0.32
-0.43
-0.48
-0.51
-0.59
-0.73
-0.91
-1.04
-1.04
-0.87
-0.59
-0.28
-0.02
0.15
0.24
0.27
0.27
0.26
0.22
0.15
0.06
-0.01
-0.04
0.03
0.18
0.37
0.50
0.52
0.39
0.19
0.04
0.06
0.26
0.56
0.79
0.80
0.56
0.17
-0.17
-0.30
-0.16
0.14
0.42
0.52
0.42
0.19
-0.03
-0.14
-0.13
-0.04
0.06
0.11
0.12
0.11
0.09
0.04
-0.10
-0.34
-0.64
-0.92
-1.07
-1.03
-0.82
-0.52
-0.24
-0.11
-0.13
-0.24
-0.34
-0.30
-0.09
0.25
0.59
0.82
0.89
0.79
0.59
0.36
0.15
-0.03
-0.18
-0.27
-0.30
-0.24
-0.13
-0.01
0.08
0.10
0.08
0.05
0.04
0.00
-0.08
-0.23
-0.38
-0.44
-0.33
-0.05
0.32
0.60
0.67
0.50
0.15
-0.25
-0.56
-0.71
-0.71
-0.63
-0.52
-0.46
-0.45
-0.50
-0.60
-0.73
-0.85
-0.90
-0.83
-0.63
-0.31
0.05
0.34
0.49
0.45
0.24
-0.07
-0.37
-0.58
-0.67
-0.60
-0.42
-0.19
-0.02
0.01
-0.11
-0.32
-0.51
-0.58
-0.51
-0.35
-0.22
-0.20
-0.29
-0.44
-0.52
-0.45
-0.20
0.18
0.60
0.93
1.05
0.95
0.65
0.27
-0.06
-0.20
-0.10
0.19
0.59
0.98
1.26
1.41
1.42
1.32
