1530131891.00
64.000000
-0.00
-0.00
-0.00
-0.00
-0.00
-0.00
-0.00
-0.00
-0.00
-0.00
0.00
0.01
0.01
-0.00
-0.03
-0.05
-0.05
0.00
0.13
0.36
0.66
1.01
1.37
1.72
2.06
2.40
2.79
3.24
3.80
4.42
5.06
5.66
6.20
6.68
7.15
7.68
8.31
9.14
10.09
11.04
11.88
12.56
13.14
13.76
14.65
15.96
17.91
20.32
22.90
25.38
27.58
29.57
31.68
34.32
37.81
42.54
48.15
54.10
59.83
64.97
69.58
74.14
79.34
85.71
93.76
103.00
112.62
121.73
129.77
136.75
143.30
150.75
157.77
166.64
177.95
191.79
206.97
220.57
228.25
225.36
208.53
176.87
132.76
80.05
23.07
-34.94
-92.44
-149.16
-205.23
-260.37
-313.74
-363.87
-409.83
-450.91
-486.50
-515.74
-537.23
-549.22
-549.96
-538.36
-514.20
-478.65
-433.85
-382.40
-326.94
-269.73
-212.49
-156.47
-102.72
-52.09
-5.56
35.98
71.89
101.88
126.10
145.05
159.43
169.96
177.26
181.72
183.63
183.22
180.75
176.58
171.11
164.75
157.85
150.65
143.29
135.86
128.39
120.92
113.53
106.28
99.24
92.49
86.04
79.91
74.11
68.66
63.55
58.80
54.42
50.40
46.75
43.45
40.50
37.90
35.63
33.69
32.07
30.76
29.77
29.09
28.71
28.62
28.78
29.16
29.70
30.30
30.84
31.18
31.14
30.56
29.27
27.15
24.13
20.18
15.37
9.77
3.57
-3.00
-9.68
-16.21
-22.33
-27.81
-32.50
-36.26
-39.04
-40.83
-41.65
-41.57
-40.61
-38.80
-36.10
-32.48
-27.83
-22.07
-15.16
-7.13
1.85
11.54
21.58
31.56
41.01
49.52
56.73
62.44
66.50
68.94
69.97
69.93
69.22
68.25
67.42
67.06
67.47
68.57
70.29
72.49
75.02
77.72
80.49
83.25
86.03
88.91
91.72
94.40
96.96
99.45
102.00
104.69
107.67
111.10
115.11
119.34
123.47
127.16
130.00
131.52
131.13
128.07
121.28
112.57
102.56
91.68
80.33
68.92
57.95
47.97
39.55
33.30
29.75
28.82
30.38
34.15
39.78
46.86
54.99
63.80
72.93
82.03
90.33
97.17
102.01
104.57
104.87
103.25
100.23
96.32
91.81
86.42
79.57
70.63
59.15
45.07
28.85
11.26
-6.91
-25.18
-43.71
-63.11
-84.12
-107.18
-132.08
-157.97
-183.49
-207.38
-228.90
-248.15
-266.02
-283.95
-303.49
-325.97
-351.85
-380.20
-408.39
-432.28
-447.24
-449.69
-438.46
-415.34
-384.45
-350.77
-318.57
-290.48
-267.55
-249.82
-236.79
-227.51
-220.37
-213.25
-204.08
-191.63
-175.87
-157.45
-136.66
-112.90
-84.90
-51.82
-14.16
25.88
65.22
100.85
130.25
151.22
161.28
157.54
137.42
100.49
50.03
-6.72
-60.08
-100.95
-123.90
-128.89
-120.82
-107.04
-94.13
-85.44
-80.29
-75.26
-66.80
-53.63
-37.82
-23.84
-16.28
-17.54
-26.80
-40.52
-54.13
-63.75
-67.16
-63.80
-54.03
-38.47
-17.79
6.97
34.18
61.64
87.04
108.63
125.50
137.48
144.78
147.79
147.20
144.28
140.77
138.44
138.36
140.49
143.84
147.20
149.85
151.87
153.90
156.48
159.52
162.11
162.80
160.22
153.57
143.03
129.74
115.59
102.62
92.43
85.61
81.50
78.52
74.83
69.17
61.32
52.12
43.11
35.88
31.65
30.89
33.20
37.47
42.05
45.16
45.30
41.58
33.90
22.91
9.87
-3.63
-15.85
-25.19
-30.44
-31.05
-27.36
-20.63
-12.76
-5.80
-1.35
-0.14
-1.88
-5.47
-9.44
-12.28
-12.88
-10.68
-5.91
0.32
6.23
9.71
9.13
4.08
-4.29
-13.60
-21.14
-25.18
-25.61
-23.83
-21.96
-21.68
-23.46
-26.56
-29.54
-31.15
-30.92
-29.09
-26.21
-22.60
-18.07
-12.14
-4.68
3.72
11.67
17.45
19.81
18.56
14.67
9.89
5.92
3.82
3.74
5.14
7.07
8.55
8.66
6.63
2.08
-4.66
-12.33
-18.84
-21.89
-19.92
-12.90
-2.52
8.29
16.41
19.59
17.18
10.23
0.87
-8.56
-16.35
-22.01
-26.09
-29.72
-33.72
-38.07
-41.70
-42.84
-39.80
-31.87
-19.63
-4.92
9.63
21.37
28.28
29.36
24.51
14.18
-0.95
-20.17
-42.69
-67.67
-94.28
-121.62
-148.56
-173.53
-194.37
-208.66
-214.45
-211.35
-201.04
-186.84
-172.25
-159.17
-146.78
-131.74
-109.72
-77.73
-35.86
12.23
60.19
100.75
127.89
138.60
133.72
117.47
95.86
74.36
56.12
41.23
27.49
12.01
-7.01
-29.21
-52.24
-72.69
-87.52
-95.18
-96.15
-92.75
-87.99
-84.12
-81.47
-78.22
-71.45
-59.06
-41.32
-21.25
-3.23
9.23
15.28
16.87
17.27
18.81
21.26
22.01
17.60
5.81
-12.79
-34.71
-54.67
-67.38
-68.87
-57.43
-33.85
-0.95
37.23
76.36
112.50
142.68
165.27
180.30
189.52
195.97
203.23
214.26
230.61
251.97
276.56
301.60
324.18
341.74
352.18
353.98
346.42
329.94
306.37
278.90
250.95
225.39
203.55
184.87
167.05
146.83
121.23
88.58
49.12
4.13
-43.62
-90.42
-132.22
-165.51
-188.33
-200.99
-206.18
-207.92
-211.44
-219.94
-233.43
-248.99
-262.34
-270.32
-272.64
-271.97
-272.59
-280.29
-298.60
-327.89
-365.51
-406.68
-446.12
-479.19
-502.44
-502.20
-468.93
-398.38
-294.86
-170.80
-42.29
76.48
176.71
255.49
314.43
355.23
380.38
392.07
391.99
381.68
362.91
337.76
308.61
279.14
248.73
216.42
180.96
141.33
97.00
47.84
-6.08
-64.22
-124.75
-185.26
-240.52
-283.97
-310.01
-316.39
-305.34
-283.07
-257.40
-231.59
-209.49
-192.02
-178.12
-166.12
-155.01
-144.54
-134.62
-124.75
-113.82
-101.48
-87.51
-72.45
-57.49
-43.96
-32.60
-23.20
-14.74
-5.89
3.89
14.69
25.82
35.95
43.57
47.61
47.69
44.16
37.77
29.01
18.33
5.86
-8.47
-24.75
-42.77
-61.91
-81.22
-99.59
-116.08
-129.95
-140.79
-148.47
-153.06
-154.75
-153.75
-150.32
-144.83
-137.79
-129.81
-121.58
-113.76
-107.01
-101.85
-98.68
-97.75
-99.16
-102.83
-108.49
-115.68
-123.72
-131.82
-139.01
-144.26
-146.57
-145.08
-139.17
-128.55
-113.31
-93.96
-71.39
-46.79
-21.51
3.08
25.73
45.43
61.50
73.61
81.77
86.24
87.50
86.15
82.87
78.35
73.30
68.39
64.22
61.36
60.24
61.20
64.44
70.08
78.13
88.51
100.95
115.00
129.96
144.97
159.00
171.10
180.50
186.75
189.77
189.75
186.97
181.62
173.63
162.72
148.52
130.88
110.06
86.81
62.23
37.48
13.44
-9.43
-31.02
-51.24
-69.65
-85.20
-96.15
-100.49
-96.58
-83.68
-62.29
-33.91
-0.53
36.09
74.91
115.75
159.11
205.91
257.11
313.22
373.59
435.66
494.68
544.34
578.36
592.56
586.36
563.05
528.59
489.45
450.66
414.82
382.39
352.71
325.20
299.66
276.12
254.25
233.10
211.39
188.21
163.75
139.49
117.88
101.32
91.15
87.05
87.05
88.34
88.20
84.92
78.13
68.59
57.61
46.45
35.83
25.79
15.90
5.55
-5.66
-17.66
-29.86
-41.08
-49.97
-55.41
-56.96
-55.06
-50.86
-46.01
-41.50
-37.45
-33.20
-28.20
-23.15
-20.81
-25.83
-43.27
-76.31
-123.59
-178.61
-230.60
-268.22
-283.50
-274.56
-245.76
-205.09
-160.57
-116.42
-72.70
-26.11
25.99
83.33
142.74
199.88
251.49
295.71
333.48
366.03
395.39
421.73
443.71
460.02
469.86
473.32
469.33
459.02
443.67
427.57
414.27
406.36
405.39
411.21
422.04
432.07
438.97
441.82
445.45
455.25
475.66
509.34
555.34
610.03
665.52
719.85
743.75
716.70
626.29
472.79
271.67
47.23
-151.66
-314.61
-442.68
-540.67
-609.72
-651.84
-675.51
-686.84
-692.36
-698.30
-713.39
-740.03
-777.90
-821.72
-865.93
-907.42
-943.60
-973.92
-998.98
-1022.44
-1044.02
-1061.94
-1071.80
-1058.50
-1011.04
-923.88
-800.82
-654.01
-501.55
-358.36
-234.48
-133.41
-54.76
2.38
40.96
65.51
82.56
98.66
119.87
148.43
181.74
213.26
234.33
239.41
228.05
204.68
175.78
147.50
123.28
103.89
88.65
76.22
66.10
58.63
54.00
51.62
50.03
47.24
41.59
32.61
20.66
6.70
-8.70
-24.49
-39.06
-49.81
-53.89
-49.20
-35.92
-17.22
1.55
14.61
18.94
15.00
6.68
-2.49
-9.41
-12.05
-9.36
-0.62
15.03
38.40
68.11
101.22
131.72
152.12
155.51
138.93
105.22
62.57
21.57
-9.12
-25.70
-30.16
-27.82
-24.02
-21.70
-20.76
-19.59
-16.85
-12.80
-8.86
-6.61
-6.55
-7.88
-9.09
-8.68
-6.21
-2.26
1.91
5.10
6.72
7.10
7.23
8.14
10.39
13.66
17.16
20.03
21.85
22.84
23.67
25.00
26.87
28.55
28.63
25.68
18.92
8.59
-4.20
-18.10
-31.91
-45.15
-57.51
-69.63
-81.94
-94.76
-108.33
-122.38
-135.63
-145.26
-147.73
-139.25
-118.69
-88.56
-54.63
-24.03
-2.32
8.53
10.29
6.90
2.13
-2.22
-6.24
-10.63
-15.60
-20.17
-22.76
-22.09
-18.00
-11.29
-3.33
4.72
12.56
20.64
29.68
40.07
51.52
62.94
72.58
78.65
80.00
76.43
68.62
57.80
45.19
31.23
17.10
3.31
-9.81
-21.68
-31.23
-37.47
-39.34
-36.15
-27.91
-15.10
1.13
19.37
38.22
55.84
71.42
85.20
96.37
104.13
107.95
107.45
102.53
93.45
80.92
66.06
49.07
31.85
15.61
1.00
-11.80
-22.85
-32.24
-39.90
-45.46
-48.64
-49.28
-47.82
-45.08
-42.17
-40.15
-39.59
-40.35
-41.56
-42.18
-41.31
-38.92
-35.61
-32.50
-30.46
-29.89
-30.31
-30.55
-29.26
-25.12
-16.96
-3.72
15.03
38.15
62.02
80.38
87.00
78.07
54.61
22.74
-8.55
-31.13
-41.12
-40.01
-33.04
-26.09
-22.97
-24.25
-27.91
-31.13
-31.87
-29.88
-26.32
-23.08
-21.79
-23.05
-26.33
-30.59
-35.19
-39.92
-44.61
-47.77
-46.10
-35.91
-16.03
9.80
33.04
43.91
36.92
14.38
-13.84
-35.30
-41.38
-31.51
-12.74
5.04
14.66
15.21
10.69
6.50
5.65
7.56
9.44
8.74
5.20
0.70
-1.69
0.17
6.53
15.97
26.18
35.19
42.11
47.29
50.76
54.46
59.57
66.34
74.33
82.67
90.31
96.25
100.80
102.74
102.04
99.17
95.11
91.08
88.11
86.83
87.63
90.59
94.97
99.26
100.67
95.79
82.01
59.14
30.23
0.77
-23.39
-38.87
-45.70
-46.97
-46.43
-45.46
-41.93
-31.69
-11.07
19.48
54.21
84.05
100.49
99.26
81.92
55.02
27.60
8.95
6.19
22.51
56.52
102.26
150.46
190.92
216.45
221.44
205.98
175.50
137.85
99.71
64.74
33.42
5.10
-20.28
-41.90
-58.41
-69.85
-78.24
-87.06
-99.68
-117.86
-141.15
-167.10
-192.50
-214.44
-231.55
-244.45
-255.18
-266.03
-278.61
-293.67
-311.64
-333.21
-359.12
-389.40
-422.05
-452.09
-471.99
-474.21
-454.31
-412.95
-355.63
-290.41
-225.24
-165.78
-114.65
-71.53
-34.59
-1.63
29.41
60.93
95.76
136.44
183.69
234.87
284.23
323.64
344.98
343.29
320.65
285.75
253.10
235.54
236.71
251.34
270.60
287.35
298.74
304.69
308.41
311.50
313.19
311.01
303.38
290.53
273.62
253.62
232.82
211.64
189.02
163.12
131.25
92.86
49.82
5.18
-38.29
-78.62
-115.28
-148.33
-177.93
-206.39
-233.72
-257.72
-275.87
-287.24
-292.46
-293.87
-293.64
-293.22
-297.23
-306.77
-319.26
-330.87
-339.25
-343.58
-345.64
-348.05
-354.02
-371.24
-401.44
-437.94
-468.63
-481.51
-468.28
-428.27
-367.12
-264.80
-130.11
8.64
123.31
202.76
246.18
269.27
283.01
294.64
309.14
325.17
342.43
361.98
382.97
400.39
402.04
378.27
331.80
276.66
225.11
185.50
160.69
148.69
144.80
145.18
147.62
152.57
160.35
167.29
170.31
168.83
164.30
158.80
154.50
152.33
152.85
155.45
157.19
155.90
151.44
145.40
140.06
137.71
139.36
145.41
154.97
165.56
174.62
180.37
181.68
177.33
170.95
163.78
156.51
149.18
141.30
132.32
122.03
110.71
99.05
87.91
77.41
67.63
58.37
49.26
39.89
30.08
19.93
9.84
0.32
-8.69
-17.29
-25.69
-34.15
-42.90
-51.98
-61.21
-70.23
-78.71
-86.82
-94.90
-103.49
-113.08
-123.99
-136.16
-149.20
-162.59
-176.05
-189.79
-204.26
-219.88
-236.84
-254.96
-274.11
-294.72
-317.85
-344.70
-375.32
-407.63
-437.22
-458.55
-467.01
-460.47
-439.85
-408.09
-368.60
-323.93
-275.80
-225.97
-177.24
-133.44
-97.99
-71.97
-52.88
-35.24
-12.69
19.31
61.68
112.01
166.11
220.73
274.88
329.14
383.42
434.73
476.58
501.02
502.34
480.03
439.67
390.81
343.16
303.07
271.94
247.06
223.90
198.46
168.35
132.71
91.58
45.23
-5.95
-61.16
-119.20
-178.55
-237.54
-295.14
-351.40
-407.87
-467.05
-530.81
-598.27
-664.61
-721.26
-758.53
-769.28
-751.90
-711.16
-656.20
-596.97
-540.79
-490.89
-447.07
-407.69
-371.57
-338.52
-308.83
-282.33
-257.98
-234.23
-209.95
-184.98
-160.14
-136.86
-116.22
-98.45
-82.85
-68.26
-53.70
-38.91
-24.45
-11.33
-0.35
8.48
15.93
23.33
31.78
41.63
52.30
62.62
71.54
78.80
85.23
92.39
101.82
114.16
128.65
143.53
156.65
166.60
173.31
178.08
183.11
190.75
202.86
220.16
241.66
264.06
281.84
288.42
278.43
250.30
207.82
159.59
116.16
86.28
74.00
78.04
94.06
117.14
144.00
173.51
205.73
239.97
273.83
303.35
324.60
335.51
335.62
325.77
307.19
281.23
249.60
214.24
176.70
137.20
95.12
48.57
-3.52
-58.88
-110.53
-148.55
-164.55
-155.76
-126.12
-81.29
-28.30
26.20
77.04
120.74
154.62
175.89
183.03
178.07
172.54
178.09
200.59
238.71
287.29
341.07
395.58
446.69
490.99
532.65
570.94
597.10
598.67
568.93
512.06
440.84
371.11
318.52
304.36
337.92
410.89
501.81
588.18
654.58
693.46
703.34
618.35
417.87
143.16
-128.84
-342.82
-486.96
-575.69
-623.42
-649.37
-660.05
-645.08
-598.26
-525.80
-443.32
-367.44
-307.11
-264.07
-235.45
-215.43
-192.73
-164.38
-138.23
-127.50
-139.69
-172.85
-218.60
-266.41
-305.94
-325.11
-317.13
-281.95
-225.64
-155.15
-77.61
-8.22
36.61
51.02
44.38
31.12
21.56
17.80
19.37
23.40
26.42
28.33
31.32
37.43
45.68
52.23
50.18
36.39
8.38
-32.51
-81.14
-131.03
-177.39
-217.55
-239.72
-254.14
-254.28
-237.12
-204.36
-163.46
-126.66
-106.26
-108.29
-128.22
-153.40
-165.56
-155.43
-126.86
-95.33
-79.50
-90.58
-125.64
-168.63
-199.76
-201.97
-171.42
-116.50
-52.67
4.25
42.77
57.97
51.34
28.79
0.77
-23.66
-39.18
-46.10
-49.15
-53.62
-60.97
-67.00
-64.41
-46.64
-13.12
30.68
76.63
118.59
154.79
186.39
214.11
234.98
243.00
232.35
201.98
158.06
112.53
78.54
65.49
75.77
104.06
139.63
170.34
186.70
184.56
165.72
136.06
102.71
71.41
44.34
20.04
-4.97
-33.38
-65.14
-97.25
-125.21
-144.96
-153.19
-148.57
-131.80
-105.75
-75.16
-46.38
-26.45
-21.07
-31.99
-53.34
-75.60
-91.01
-98.24
-102.28
-110.58
-127.83
-152.12
-175.06
-181.88
-161.51
-112.94
-45.92
25.18
89.06
140.97
182.12
216.34
251.67
293.27
340.99
390.68
438.93
485.76
532.81
579.94
592.33
542.76
428.81
278.20
128.14
4.67
-82.26
-135.14
-162.87
-175.89
-177.46
-167.84
-148.08
-122.66
-97.71
-77.71
-64.95
-58.89
-57.41
-54.31
-44.57
-27.29
-6.89
10.52
20.72
21.81
14.93
2.84
-8.91
-15.88
-16.84
-14.09
-11.27
-10.75
-14.02
-20.57
-29.10
-37.28
-43.82
-49.58
-57.77
-73.40
-94.27
-121.13
-154.39
-193.15
-233.55
-268.90
-290.92
-292.27
-269.09
-222.18
-157.69
-83.19
-5.24
71.73
144.76
210.72
265.54
305.10
327.49
333.68
328.46
318.05
307.16
297.22
286.72
273.13
254.91
232.46
207.05
180.09
152.26
123.28
92.88
61.43
30.13
0.29
-27.29
-53.21
-78.80
-105.17
-132.37
-159.04
-182.80
-201.21
-212.62
-216.32
-212.32
-200.98
-183.06
-160.28
-135.81
-114.06
-98.61
-89.78
-83.47
-72.55
-50.38
-14.69
30.16
74.28
105.82
116.35
104.18
74.20
34.69
-6.99
-47.01
-85.35
-124.17
-166.42
-213.38
-263.94
-314.96
-362.36
-401.71
-428.72
-440.20
-435.06
-416.82
-390.30
-358.76
-322.87
-281.80
-234.75
-181.66
-123.34
-61.10
-1.01
52.16
97.23
135.65
168.07
193.01
208.26
212.55
205.95
182.05
136.88
73.25
0.47
-71.07
-133.69
-183.52
-220.11
-246.11
-275.59
-319.97
-380.83
-450.73
-521.41
-589.13
-654.35
-718.53
-719.68
-622.83
-441.60
-227.81
-29.75
128.60
242.20
315.63
358.15
378.99
380.09
361.84
330.00
296.04
271.17
262.60
273.79
305.79
356.13
411.01
455.29
478.87
478.77
456.48
416.10
364.06
308.27
255.78
206.60
158.70
112.32
70.88
38.38
17.15
6.87
4.35
3.66
-4.45
-27.38
-66.47
-115.72
-164.48
-201.03
-216.36
-207.13
-176.75
-133.95
-88.35
-46.02
-8.07
27.50
63.69
102.64
145.13
191.19
241.48
297.23
359.18
425.50
489.46
541.57
572.63
577.47
556.57
516.28
465.71
413.95
367.17
324.80
284.35
244.68
206.91
172.75
143.85
119.27
97.63
77.85
53.73
22.11
-14.68
-50.97
-82.79
-108.37
-131.52
-156.07
-184.20
-225.69
-285.24
-358.66
-436.23
-510.33
-576.20
-637.88
-699.69
-763.89
-841.91
-937.37
-1040.89
-1135.27
-1206.96
-1248.70
-1267.71
-1274.16
-1202.28
-1026.78
-778.47
-520.19
-295.30
-133.91
-5.04
109.69
217.28
319.75
403.94
458.73
485.76
496.83
503.67
515.29
529.11
541.86
552.08
551.36
536.74
513.88
492.86
480.75
481.75
491.72
506.19
520.67
523.60
504.83
460.66
395.28
318.13
242.70
179.00
133.78
108.59
97.11
92.21
90.59
92.94
100.35
111.76
121.14
121.39
107.88
79.87
41.88
1.73
-33.37
-60.40
-81.26
-101.80
-127.91
-162.26
-202.76
-242.52
-271.99
-282.33
-268.38
-230.26
-172.51
-102.29
-27.21
45.34
107.95
152.70
171.95
160.15
115.95
43.55
-47.64
-144.77
-234.25
-304.24
-346.76
-359.08
-344.16
-309.75
-266.14
-223.09
-187.08
-160.25
-141.17
-126.99
-115.41
-105.40
-96.91
-89.42
-82.07
-74.07
-65.07
-55.11
-44.47
-33.40
-21.70
-8.83
5.98
22.37
37.99
49.07
51.51
42.13
19.49
-15.60
-60.14
-108.42
-154.76
-194.97
-226.49
-247.43
-256.13
-251.16
-231.99
-199.42
-152.83
-95.05
-32.69
26.50
77.64
120.00
155.59
186.44
213.64
243.34
277.24
311.30
339.11
357.61
368.57
376.23
383.71
392.69
413.49
449.55
494.63
537.58
571.43
596.61
618.31
641.88
672.08
724.00
801.09
889.95
967.11
1013.12
1020.78
994.37
944.31
793.93
525.02
190.06
-126.09
-371.81
-542.73
-655.95
-723.14
-762.15
-779.62
-764.24
-711.83
-632.08
-542.96
-462.67
-407.88
-389.06
-407.28
-451.02
-494.20
-520.11
-528.36
-528.01
-530.82
-538.80
-546.72
-548.11
-537.39
-506.22
-452.80
-383.96
-310.49
-240.84
-177.44
-118.74
-62.58
-7.24
49.74
107.17
160.34
203.83
234.61
254.03
266.39
276.67
289.20
307.59
333.16
365.18
401.78
440.11
476.35
505.02
519.59
514.53
487.35
440.18
379.53
314.28
252.45
199.24
156.38
123.50
99.87
85.47
80.55
84.45
94.92
108.45
121.85
133.57
143.83
153.22
160.94
163.65
156.46
135.61
100.90
56.82
11.06
-28.47
-56.79
-72.92
-79.33
-80.63
-81.10
-83.89
-90.76
-101.56
-113.39
-120.18
-113.90
-87.92
-41.57
18.11
77.52
120.99
136.95
122.27
82.90
30.61
-22.44
-68.88
-106.05
-134.37
-155.33
-170.29
-180.23
-186.13
-189.23
-190.91
-194.76
-201.93
-210.60
-217.73
-221.53
-222.29
-221.38
-220.18
-219.50
-224.51
-236.81
-253.68
-271.18
-288.21
-307.35
-332.55
-366.62
-409.36
-464.35
-525.79
-577.91
-602.83
-591.21
-546.64
-483.63
-422.27
-381.43
-382.79
-430.16
-506.63
-584.67
-640.87
-663.36
-651.59
-612.91
-492.25
-286.39
-44.40
171.14
328.66
428.24
482.13
503.17
502.21
488.82
461.17
421.63
379.02
342.81
316.06
295.38
276.17
255.90
235.03
208.07
174.74
140.74
113.94
97.54
89.67
86.97
86.60
87.17
83.28
72.94
58.44
43.64
29.99
16.32
1.27
-15.89
-34.76
-56.50
-80.46
-103.88
-123.24
-136.16
-144.69
-149.76
-151.81
-150.77
-147.10
-140.64
-130.66
-116.45
-98.17
-76.80
-53.19
-28.20
-2.43
23.88
50.67
77.86
105.24
132.42
158.79
184.02
207.74
229.72
250.21
270.19
291.41
316.02
345.19
377.83
410.05
435.58
447.97
443.31
421.92
387.95
347.15
304.16
260.89
217.08
172.04
126.44
82.83
44.69
14.88
-5.18
-15.05
-14.37
-2.33
21.36
54.93
93.55
129.68
155.19
164.21
154.98
129.87
93.56
50.91
5.81
-39.31
-82.70
-122.80
-158.02
-187.23
-210.49
-229.46
-247.60
-269.02
-296.72
-330.36
-365.05
-391.55
-399.07
-379.46
-331.18
-261.23
-183.65
-115.02
-68.94
-51.70
-61.04
-88.03
-120.69
-148.09
-163.13
-163.58
-151.30
-130.38
-105.24
-79.27
-54.17
-30.51
-8.20
13.30
35.20
59.77
90.60
132.10
187.90
258.59
339.74
421.59
490.82
534.48
544.34
519.76
467.40
398.20
322.98
249.16
180.02
116.24
58.12
6.95
-35.40
-67.79
-90.80
-106.49
-117.05
-123.28
-124.40
-119.00
-106.34
-87.56
-65.57
-43.99
-25.77
-12.41
-3.88
0.75
2.51
2.07
-0.22
-4.11
-8.99
-13.81
-17.35
-18.54
-16.86
-12.60
-6.74
-0.68
4.13
6.78
7.09
5.64
3.45
1.60
0.89
1.55
3.21
4.93
5.59
4.13
0.24
-5.30
-10.36
-11.84
-6.40
8.50
33.82
68.68
110.77
157.11
204.67
250.67
292.45
327.40
353.15
368.09
371.99
366.25
353.54
336.76
317.85
296.99
272.61
242.51
205.02
159.74
107.49
49.70
-12.15
-76.34
-140.23
-199.77
-249.94
-286.51
-307.94
-315.96
-314.31
-306.15
-292.06
-270.05
-238.00
-196.59
-150.90
-109.12
-79.22
-65.39
-66.77
-78.78
-96.30
-116.67
-140.98
-173.14
-217.11
-274.10
-340.82
-409.60
-470.30
-513.50
-533.68
-530.82
-509.69
-477.26
-439.54
-399.54
-357.20
-310.93
-259.51
-203.31
-144.20
-84.83
-28.04
23.20
65.62
95.50
109.11
103.51
77.48
32.49
-27.02
-93.82
-158.80
-212.46
-246.93
-257.84
-245.33
-213.73
-169.92
-121.02
-72.46
-27.27
13.40
49.13
79.21
102.79
119.77
131.62
141.36
152.32
166.35
182.45
197.07
205.90
206.29
198.80
187.03
175.87
169.26
168.63
172.85
179.36
185.53
189.73
191.36
190.61
187.94
183.77
178.49
172.52
166.43
160.86
156.57
154.30
154.76
158.46
165.45
175.12
186.28
197.33
206.61
212.79
215.02
212.86
206.15
194.98
179.98
162.60
145.24
130.82
121.82
119.32
122.42
128.47
133.97
135.73
131.76
121.42
105.25
84.20
59.20
31.01
0.25
-32.45
-66.31
-100.37
-133.58
-164.95
-193.78
-219.97
-243.92
-266.05
-285.85
-301.19
-308.42
-303.51
-283.91
-250.13
-206.09
-158.01
-112.27
-73.47
-43.46
-21.80
-6.90
2.66
7.67
8.47
5.49
-0.38
-7.65
-14.33
-18.26
-17.52
-11.05
0.79
15.92
30.93
41.87
45.31
39.26
23.54
-0.23
-29.23
-60.12
-90.07
-117.41
-141.95
-164.62
-186.29
-206.60
-223.16
-232.08
-229.66
-214.40
-188.29
-156.25
-124.31
-97.03
-75.92
-59.35
-44.11
-27.43
-8.40
11.93
31.54
48.83
63.57
76.85
90.38
105.48
122.38
140.02
156.20
168.14
173.20
169.69
157.46
138.15
114.80
90.97
69.76
52.97
40.98
32.93
27.20
21.88
15.34
6.88
-2.88
-11.95
-17.60
-17.51
-10.79
1.48
16.59
31.36
43.37
51.71
56.87
60.08
62.47
64.48
65.94
66.47
65.95
64.75
63.52
62.67
61.86
59.81
54.59
44.39
28.26
6.56
-18.98
-45.81
-71.05
-92.17
-107.37
-115.89
-118.11
-115.39
-109.80
-103.55
-98.53
-95.59
-94.31
-92.93
-88.92
-79.76
-63.95
-41.61
-14.56
14.18
41.34
64.34
81.76
93.19
98.86
99.03
93.93
84.08
70.68
55.76
41.84
31.09
24.55
21.72
20.81
19.51
16.03
9.67
0.91
-9.01
-18.76
-27.48
-35.12
-42.30
-49.95
-58.82
-69.20
-80.89
-93.23
-105.10
-114.67
-119.27
-115.66
-100.84
-73.39
-34.55
11.52
58.68
100.63
132.70
152.95
161.82
161.12
152.80
138.36
119.11
96.84
74.21
54.44
40.42
33.67
33.67
38.05
43.36
46.24
44.48
37.37
25.61
10.63
-6.08
-23.49
-41.10
-58.71
-76.03
-92.60
-107.89
-121.66
-134.12
-145.76
-156.67
-165.86
-170.94
-168.63
-156.07
-132.18
-98.63
-59.60
-20.56
13.39
38.92
54.95
62.32
62.98
59.13
52.86
46.01
40.21
36.69
35.93
37.31
39.19
39.33
35.77
27.59
15.41
1.33
-11.75
-20.86
-23.79
-19.47
-8.01
9.54
31.25
54.39
75.65
91.57
99.55
99.01
91.93
82.63
76.37
77.57
88.13
107.01
130.79
155.10
175.93
190.13
195.42
190.13
173.20
144.59
105.92
60.66
13.63
-30.34
-67.83
-97.72
-121.12
-140.37
-157.69
-174.27
-190.44
-206.43
-223.25
-242.79
-267.03
-296.72
-330.51
-364.97
-395.56
-417.99
-429.25
-427.88
-413.79
-387.83
-351.56
-307.27
-257.85
-206.46
-156.10
-109.04
-66.41
-28.39
5.66
36.88
66.45
95.44
124.75
155.09
186.82
219.64
252.02
281.22
303.82
316.71
318.29
308.86
290.28
264.78
234.12
199.19
160.62
119.51
77.78
37.81
1.64
-29.68
-56.13
-78.06
-95.67
-108.60
-116.20
-117.65
-112.01
-98.31
-75.91
-45.02
-7.36
33.68
73.89
109.68
139.33
163.23
182.73
198.65
210.16
215.22
212.11
200.99
184.63
167.45
153.63
145.27
141.64
139.66
135.61
126.96
113.63
98.18
84.59
76.17
73.67
74.67
74.48
68.41
53.87
31.18
3.11
-26.57
-54.11
-76.04
-88.98
-89.91
-77.14
-51.61
-17.50
18.74
50.62
74.02
88.33
95.81
99.67
102.03
103.37
103.09
100.94
98.05
97.02
100.82
111.19
127.15
144.55
157.12
158.69
145.55
117.97
79.96
37.41
-4.33
-42.32
-76.64
-109.43
-143.42
-180.29
-219.94
-260.76
-299.85
-333.49
-357.50
-368.53
-364.50
-345.05
-311.63
-267.41
-217.00
-165.22
-116.19
-72.58
-36.41
-8.98
9.25
19.08
22.70
22.87
22.98
26.30
35.72
51.41
71.73
94.49
118.35
142.84
165.98
185.98
202.08
216.95
231.43
245.36
257.04
264.00
263.09
247.91
215.74
170.66
126.73
93.72
76.07
71.99
76.94
85.25
85.66
70.09
36.81
-3.89
-48.65
-97.59
-152.65
-212.74
-275.15
-345.33
-427.63
-520.88
-609.39
-686.35
-749.72
-801.22
-840.94
-817.08
-700.75
-503.53
-324.82
-189.50
-97.76
-27.48
27.83
71.45
104.67
119.56
110.10
77.18
36.92
-3.80
-43.49
-84.28
-124.76
-160.34
-190.52
-213.08
-223.15
-208.58
-168.85
-110.62
-44.59
21.45
82.79
133.55
170.95
196.71
220.94
250.03
287.84
334.99
390.63
450.75
506.69
549.00
570.74
571.81
554.80
526.04
494.10
467.83
452.09
444.66
437.53
420.23
385.05
328.59
253.40
166.39
76.00
-11.52
-93.29
-168.80
-237.87
-298.72
-347.35
-378.24
-386.16
-368.43
-327.89
-271.68
-209.10
-148.47
-94.79
-49.23
-10.08
25.19
57.62
83.72
99.42
103.88
101.27
98.92
103.63
118.88
143.69
173.40
197.79
207.76
199.48
175.18
140.11
99.19
55.51
10.41
-35.97
-89.06
-153.55
-229.30
-310.26
-388.52
-457.94
-515.19
-559.26
-559.68
-497.74
-379.30
-233.69
-91.86
29.15
125.65
200.53
258.12
301.56
330.31
342.08
337.38
321.96
302.61
284.20
268.72
255.42
243.54
227.85
203.30
167.80
125.75
82.73
43.80
12.61
-8.88
-20.24
-24.97
-27.35
-31.71
-35.37
-36.24
-32.60
-24.20
-12.86
-2.46
0.55
-10.45
-43.12
-95.49
-166.05
-250.07
-339.72
-424.50
-492.79
-535.06
-546.27
-531.26
-491.38
-435.21
-370.76
-303.18
-234.49
-164.52
-93.14
1.52
79.87
140.61
179.26
196.40
198.22
194.82
196.65
210.28
235.62
260.03
277.80
282.61
274.48
257.38
236.01
213.81
192.57
173.11
148.72
119.93
85.75
46.42
1.43
-49.71
-105.24
-160.57
-210.04
-257.00
-302.25
-347.27
-390.60
-429.63
-461.35
-482.47
-490.05
-448.63
-347.03
-204.80
-62.88
47.52
118.26
157.90
180.39
196.96
212.60
220.79
215.38
196.09
169.68
144.73
127.57
120.78
123.99
134.71
144.86
147.28
137.99
117.98
89.30
54.21
15.69
-21.93
-53.98
-79.73
-99.77
-114.57
-124.01
-128.32
-128.04
-124.03
-116.89
-107.33
-97.75
-90.33
-85.85
-83.79
-83.80
-84.75
-88.19
-96.04
-109.11
-126.07
-142.32
-150.90
-145.01
-121.35
-81.80
-33.18
15.83
57.60
87.73
105.34
111.91
109.54
99.67
83.19
61.06
35.62
10.69
-9.13
-19.61
-18.04
-3.81
21.70
56.22
97.25
143.26
193.74
248.82
308.76
373.62
443.27
517.28
594.30
670.98
741.33
797.20
830.24
834.87
810.56
762.15
697.98
626.72
554.65
484.65
417.20
352.22
290.35
232.90
180.83
133.52
88.54
42.46
-7.60
-62.74
-121.87
-182.29
-241.25
-296.97
-349.26
-399.12
-447.65
-495.21
-541.04
-583.92
-622.88
-657.51
-687.14
-709.56
-720.37
-713.56
-683.62
-627.73
-547.04
-446.24
-332.04
-211.61
-92.09
19.07
113.86
184.42
225.29
236.04
222.65
196.37
170.07
153.71
151.29
160.64
175.59
189.52
197.96
199.10
192.93
179.59
158.61
129.33
92.03
48.55
1.99
-44.28
-87.60
-125.99
-157.65
-180.80
-194.38
-199.17
-198.22
-195.97
-196.31
-200.81
-208.35
-216.20
-221.62
-222.87
-219.13
-209.34
-191.38
-162.21
-119.18
-61.80
6.84
80.29
150.14
207.94
247.97
268.94
274.28
270.83
266.26
266.09
272.22
282.92
293.95
300.13
296.41
278.65
244.30
193.31
129.03
58.27
-10.38
-69.38
-114.85
-147.70
-172.71
-195.88
-222.02
-253.34
-289.29
-327.33
-363.48
-392.60
-409.10
-408.15
-386.84
-345.82
-289.53
-225.13
-160.67
-103.04
-56.42
-22.08
0.92
14.60
21.25
23.10
22.43
21.70
23.54
30.13
42.37
59.10
77.11
91.93
99.69
99.06
92.27
84.81
83.33
92.80
114.29
144.01
174.20
195.46
200.01
184.29
150.42
105.33
58.34
18.39
-8.46
-20.03
-17.86
-6.13
9.63
23.51
30.40
27.05
13.04
-9.12
-34.93
-59.80
-80.95
-98.07
-112.52
-125.51
-136.68
-143.91
-144.80
-138.20
-125.29
-109.19
-93.77
-82.10
-75.60
-73.80
-74.75
-75.91
-74.92
-70.48
-62.88
-53.69
-45.01
-38.37
-33.89
-30.22
-25.44
-18.33
-9.14
0.51
8.51
13.22
13.83
10.28
2.59
-9.47
-26.02
-46.42
-68.79
-90.22
-107.74
-119.62
-125.98
-128.36
-128.65
-127.64
-124.76
-118.63
-108.39
-94.86
-80.47
-68.33
-60.77
-58.62
-61.14
-67.01
-75.00
-84.12
-93.17
-100.00
-101.40
-93.60
-73.65
-40.95
1.74
48.30
90.66
121.13
134.72
130.44
111.19
82.26
49.44
17.70
-9.04
-27.44
-34.53
-28.31
-9.16
19.23
50.27
76.48
92.34
96.15
89.96
77.71
62.94
47.44
31.61
15.61
0.03
-14.57
-28.78
-44.96
-66.16
-94.07
-126.89
-159.04
-182.81
-191.49
-182.01
-155.93
-118.38
-75.97
-34.48
2.12
31.87
54.61
71.85
86.59
102.10
120.25
140.05
157.69
168.66
170.92
167.43
166.01
176.14
204.05
248.99
302.97
353.89
390.81
407.70
404.19
383.59
350.35
308.81
263.59
220.12
183.86
158.06
141.55
128.93
113.20
89.94
59.81
27.78
-0.55
-23.04
-42.49
-64.62
-94.07
-131.33
-172.25
-210.35
-240.18
-259.32
-268.37
-269.51
-264.97
-256.40
-245.18
-232.98
-221.74
-213.25
-208.58
-207.66
-209.38
-211.94
-213.72
-214.09
-213.70
-214.04
-216.39
-220.55
-224.20
-223.40
-214.07
-193.71
-162.44
-122.72
-78.09
-31.63
15.02
61.46
107.98
154.82
202.32
251.37
303.61
360.81
423.41
489.16
552.52
605.85
641.69
655.28
645.98
617.01
573.80
521.82
464.98
405.05
342.21
276.10
206.67
134.69
61.86
-9.39
-76.28
-136.22
-187.65
-230.40
-265.97
-297.18
-327.57
-360.41
-397.51
-437.94
-477.32
-508.43
-523.24
-515.79
-484.49
-432.75
-367.48
-296.37
-225.27
-156.86
-90.99
-26.07
39.39
105.82
172.24
235.88
292.30
336.01
362.05
367.76
354.21
326.14
291.02
256.73
229.20
210.92
201.20
197.67
197.78
198.73
196.10
184.14
157.10
111.92
51.08
-16.02
-74.72
-110.30
-114.75
-92.15
-56.53
-25.52
-12.26
-20.52
-44.68
-74.05
-98.51
-113.35
-121.18
-127.60
-136.47
-147.29
-156.34
-159.47
-154.75
-143.12
-117.56
-75.47
-20.62
38.00
92.86
141.66
185.93
226.30
264.38
298.64
324.58
338.77
340.77
333.14
318.79
300.17
277.70
249.82
213.41
164.50
101.26
25.49
-57.67
-141.94
-222.18
-295.86
-362.47
-422.33
-475.70
-521.37
-557.46
-582.65
-597.37
-603.28
-601.81
-592.99
-576.14
-552.22
-525.29
-502.56
-491.67
-496.79
-515.47
-538.69
-554.18
-551.59
-526.76
-482.24
-425.52
-365.42
-308.74
-258.82
-215.97
-179.09
-147.18
-119.72
-95.77
-73.77
-51.33
-26.08
3.40
36.77
71.63
104.29
130.94
149.59
159.96
163.19
161.00
155.12
147.07
138.05
129.25
122.24
121.01
129.17
148.46
177.81
214.06
253.22
291.62
326.81
357.91
389.27
424.74
464.79
505.50
540.77
565.29
576.27
574.21
562.58
552.92
555.94
577.09
614.78
662.78
712.98
756.60
784.81
789.94
775.15
747.12
712.47
676.15
643.00
618.36
606.17
606.73
565.48
449.94
263.98
46.41
-157.78
-322.50
-444.41
-535.06
-611.15
-684.77
-756.61
-817.44
-856.34
-867.51
-851.85
-815.73
-769.16
-722.77
-679.32
-635.45
-585.55
-526.63
-461.08
-395.10
-335.45
-287.05
-251.77
-228.40
-210.37
-190.24
-163.91
-131.84
-97.06
-62.41
-29.31
1.91
30.88
57.13
79.04
93.57
98.36
94.66
88.86
90.84
110.06
151.46
213.50
288.69
365.95
434.65
488.20
525.49
549.78
565.68
576.34
581.74
579.83
568.29
546.67
517.21
483.81
450.01
417.14
383.93
347.58
306.03
259.32
209.65
160.15
113.15
69.27
27.47
-13.76
-55.18
-96.03
-134.05
-166.47
-191.07
-207.12
-215.60
-218.67
-218.78
-217.67
-215.88
-212.90
-207.67
-199.26
-187.42
-172.58
-155.72
-137.88
-119.87
-102.20
-85.44
-70.64
-59.70
-55.27
-60.01
-75.58
-101.79
-136.25
-175.05
-213.85
-249.05
-278.38
-300.70
-315.42
-322.15
-320.74
-311.54
-295.46
-273.57
-246.47
-214.17
-176.69
-135.30
-93.27
-55.41
-26.05
-6.83
4.42
12.71
23.26
38.87
58.85
79.83
97.96
111.06
119.25
124.44
128.77
133.48
138.42
142.23
142.76
137.51
124.09
101.07
69.06
31.67
-4.84
-33.30
-48.42
-49.34
-40.52
-30.26
-27.16
-36.18
-56.36
-81.55
-103.22
-114.60
-113.51
-102.77
-88.79
-78.81
-78.50
-90.44
-113.37
-141.61
-165.72
-174.26
-157.87
-113.79
-48.57
22.35
78.94
102.97
83.98
22.08
-72.93
-185.29
-298.10
-397.27
-473.80
-524.33
-550.45
-557.31
-551.93
-541.26
-530.68
-523.37
-519.89
-518.72
-516.69
-509.53
-493.01
-464.02
-421.69
-367.70
-305.68
-239.66
-173.15
-107.82
-43.85
19.20
81.33
141.31
196.58
243.80
279.95
303.23
313.70
313.04
303.92
289.04
270.59
249.82
227.17
202.60
176.08
148.23
120.90
97.36
81.69
77.20
84.40
99.56
114.89
120.98
110.39
80.62
34.97
-18.97
-72.07
-115.95
-144.11
-152.01
-136.99
-98.55
-39.26
35.06
116.46
197.04
271.40
337.57
395.93
446.90
488.97
518.11
529.04
517.43
482.05
425.77
355.37
280.24
210.50
154.85
119.19
105.53
111.89
132.88
161.00
188.54
209.13
218.92
216.76
203.95
183.72
160.61
140.06
127.57
127.13
139.00
158.50
176.58
183.12
171.47
142.10
103.00
66.48
44.03
41.87
59.69
92.48
134.07
179.48
225.35
268.61
304.98
329.16
336.54
325.40
298.01
259.70
216.62
173.36
131.60
90.29
47.25
1.03
-47.92
-97.08
-142.70
-181.07
-209.90
-229.09
-240.90
-249.29
-258.90
-273.80
-296.30
-325.92
-358.87
-388.61
-407.58
-409.78
-393.36
-362.11
-324.57
-291.06
-269.50
-261.93
-263.62
-265.02
-255.83
-228.90
-182.68
-121.26
-52.36
15.27
74.22
119.60
149.30
163.38
163.54
152.57
134.13
112.31
91.09
73.55
61.28
54.17
50.80
49.37
48.56
48.11
48.50
50.16
52.66
54.62
54.38
50.81
44.01
35.09
25.60
16.78
9.43
4.10
1.51
2.46
7.24
15.06
23.97
31.56
36.04
37.18
36.29
35.34
35.73
37.61
39.88
40.93
39.28
33.80
23.65
8.28
-12.21
-36.41
-61.40
-83.45
-99.29
-107.39
-108.43
-104.55
-98.13
-90.87
-83.66
-77.06
-71.66
-67.78
-64.50
-59.18
-47.89
-27.05
4.44
44.16
86.39
123.87
150.17
161.47
157.13
139.24
111.57
78.41
43.61
9.93
-21.40
-50.78
-80.00
-111.52
-147.38
-188.17
-232.15
-275.14
-311.25
-334.23
-339.40
-325.18
-293.80
-250.72
-202.92
-156.93
-117.13
-85.17
-60.48
-41.25
-25.63
-12.14
0.36
12.85
26.12
40.51
55.54
69.76
81.13
87.83
89.04
85.21
77.89
69.01
60.29
52.80
46.87
42.28
38.62
35.47
32.59
29.96
27.86
26.82
27.53
30.48
35.60
42.07
48.35
52.65
53.54
50.62
44.63
37.09
29.63
23.30
18.27
14.02
9.80
5.20
0.29
-4.56
-9.05
-13.25
-17.56
-22.42
-27.93
-33.78
-39.12
-43.04
-44.79
-44.05
-41.04
-36.27
-30.35
-23.50
-15.34
-5.02
8.22
24.43
42.53
60.49
76.08
87.88
95.97
101.82
107.55
115.12
125.59
139.11
155.38
174.21
195.82
220.62
248.64
278.87
309.30
337.39
361.04
379.21
391.94
399.61
402.04
398.11
386.23
365.37
336.11
300.98
263.68
227.83
195.74
167.97
143.88
122.53
103.26
85.84
70.04
55.25
40.39
24.07
5.14
-16.99
-42.02
-68.81
-95.67
-120.98
-143.99
-165.15
-186.07
-208.75
-234.49
-263.01
-292.40
-319.83
-342.99
-361.47
-377.23
-393.81
-414.51
-440.17
-468.02
-492.26
-506.22
-505.19
-488.29
-458.68
-422.27
-385.48
-353.59
-329.97
-316.29
-312.90
-318.90
-332.06
-349.06
-366.69
-382.79
-396.54
-407.53
-413.99
-411.73
-395.22
-359.84
-304.56
-233.55
-155.27
-80.25
-18.16
24.48
46.21
51.05
48.54
51.40
70.86
112.01
170.41
232.78
282.00
304.52
296.41
265.75
227.57
195.86
177.24
169.91
167.35
164.07
159.34
156.83
162.43
178.63
201.75
223.86
238.09
243.12
243.82
247.15
257.04
273.61
292.34
306.77
312.80
311.78
310.19
316.12
334.24
350.68
349.16
319.74
265.69
198.66
130.45
69.14
19.10
-17.93
-42.07
-52.27
-46.97
-27.49
-0.36
24.64
38.09
34.23
11.77
-26.74
-73.54
-119.69
-158.72
-189.40
-213.63
-233.28
-248.27
-257.18
-258.70
-251.93
-237.88
-219.83
-203.37
-193.72
-193.30
-201.08
-214.24
-229.82
-245.09
-258.18
-257.39
-235.17
-193.02
-140.83
-89.91
-47.25
-14.06
13.20
40.36
73.19
114.63
162.54
211.69
256.20
291.22
314.65
327.88
335.70
334.76
326.10
311.54
293.58
275.15
258.66
244.88
232.37
217.76
197.03
168.19
131.85
92.30
56.20
29.64
15.55
12.75
16.97
22.98
27.51
29.22
29.05
29.21
31.62
36.78
43.49
49.37
51.68
48.58
38.94
22.98
2.41
-20.13
-41.71
-59.77
-72.45
-78.77
-78.22
-71.34
-59.59
-45.31
-31.81
-22.85
-21.93
-30.95
-49.29
-73.49
-98.41
-119.06
-132.34
-137.79
-137.14
-133.02
-127.58
-121.95
-116.26
-110.11
-102.77
-93.14
-79.68
-60.74
-35.20
-3.46
31.93
66.49
94.72
111.68
114.47
103.34
81.80
56.09
33.62
21.20
23.42
41.67
73.82
114.67
156.67
191.00
209.09
204.52
175.04
123.99
59.87
-5.83
-62.21
-102.49
-125.83
-136.88
-143.24
-152.26
-168.62
-193.70
-226.28
-264.00
-304.47
-345.78
-386.52
-425.49
-462.04
-496.27
-529.32
-562.64
-596.69
-629.49
-656.15
-669.79
-663.87
-634.94
-584.03
-516.52
-440.10
-362.15
-287.91
-220.09
-159.45
-105.86
-58.89
-17.61
19.38
53.70
86.51
118.06
147.45
173.19
193.97
209.07
218.40
222.39
221.85
217.83
211.58
203.73
193.08
176.00
147.18
102.46
41.77
-29.07
-99.34
-157.04
-193.21
-204.76
-194.60
-169.28
-135.65
-98.83
-61.80
-26.26
6.39
34.81
58.36
77.53
93.78
109.16
125.35
143.17
162.73
183.84
206.15
229.62
254.58
281.38
310.26
341.06
373.08
405.37
436.99
467.27
496.06
523.99
552.51
583.80
619.64
659.90
701.28
736.94
757.96
756.30
727.68
673.34
599.80
516.50
432.65
355.06
286.94
228.46
177.88
132.52
89.27
44.97
-3.05
-56.02
-112.43
-167.64
-214.55
-245.62
-255.96
-246.09
-222.92
-198.05
-183.20
-185.09
-202.26
-225.34
-241.44
-239.94
-216.97
-176.25
-126.63
-77.93
-37.49
-8.80
8.40
17.02
21.27
25.49
32.84
43.90
55.98
63.60
60.62
42.94
10.54
-32.47
-79.27
-122.53
-156.37
-177.45
-185.40
-182.72
-174.49
-167.55
-168.62
-181.58
-204.83
-230.30
-245.43
-238.02
-201.59
-139.48
-64.35
6.38
57.36
80.78
78.08
58.09
32.32
10.42
-2.71
-7.67
-10.06
-18.66
-42.94
-89.72
-159.76
-246.14
-335.69
-413.04
-465.63
-487.63
-480.52
-450.72
-406.09
-353.15
-296.56
-240.11
-187.77
-143.43
-110.61
-91.21
-84.23
-86.11
-91.55
-95.52
-94.56
-86.95
-71.59
-48.21
-16.47
24.54
75.89
138.76
212.50
293.99
378.21
460.81
537.61
605.18
660.34
698.68
715.20
704.05
660.50
583.85
480.30
359.87
233.94
112.57
2.16
-93.02
-171.27
-232.64
-287.72
-339.81
-387.93
-430.13
-462.61
-490.36
-515.42
-535.08
-544.28
-536.76
-507.91
-459.63
-400.04
-340.21
-290.10
-253.66
-229.39
-212.59
-197.97
-181.08
-160.68
-137.79
-113.76
-89.27
-63.04
-33.71
-0.95
34.35
70.82
106.57
139.90
169.96
196.69
221.17
244.45
267.13
289.58
312.01
333.84
353.13
366.60
369.89
359.06
331.39
286.13
224.84
151.09
69.70
-13.71
-93.15
-162.76
-217.16
-252.56
-267.51
-263.29
-243.45
-212.83
-176.25
-137.61
-99.56
-63.54
-30.14
0.50
28.54
54.40
79.00
103.83
130.48
159.83
191.53
223.57
252.76
275.68
289.68
293.73
288.73
277.17
262.42
247.84
235.75
226.81
219.92
212.83
203.15
189.58
172.53
154.17
137.56
125.33
118.56
116.26
115.69
113.13
105.11
89.33
65.35
34.64
-0.01
-35.34
-68.46
-97.74
-122.85
-144.33
-163.15
-180.21
-196.12
-211.34
-226.24
-241.09
-256.09
-271.14
-285.53
-297.98
-306.71
-309.84
-306.15
-295.42
-278.58
-257.16
-232.52
-205.11
-174.57
-140.29
-102.38
-62.51
-23.85
9.64
34.40
48.31
51.23
44.82
32.31
17.82
5.85
0.64
5.45
21.52
47.68
80.54
115.40
147.86
175.34
197.70
216.94
235.99
257.01
280.26
303.77
324.07
337.49
341.46
335.21
319.69
296.89
268.94
237.25
202.32
164.04
122.39
78.26
33.75
-8.40
-45.83
-77.62
-104.91
-130.63
-158.44
-191.31
-230.48
-275.18
-322.83
-369.81
-412.04
-445.44
-466.34
-472.17
-462.06
-437.27
-401.05
-357.84
-312.17
-267.77
-227.02
-191.09
-160.32
-134.67
-113.78
-97.04
-83.52
-72.05
-61.59
-51.39
-41.18
-31.09
-21.41
-12.37
-3.93
4.28
12.81
22.27
33.16
45.81
60.32
76.52
93.75
110.72
125.52
136.05
140.65
138.76
131.14
119.56
106.14
92.51
79.37
66.52
53.40
39.67
25.60
12.32
1.49
-5.05
-5.76
0.10
12.18
29.03
48.41
67.82
85.09
98.81
108.40
113.96
115.99
115.20
112.47
108.79
105.19
102.59
101.48
101.79
102.89
103.86
103.78
102.16
99.00
94.65
89.62
84.28
78.68
72.72
66.27
59.36
52.20
45.12
38.38
32.01
25.79
19.23
11.83
3.31
-6.02
-15.07
-22.00
-24.61
-21.07
-10.66
5.85
26.34
47.95
68.05
84.83
97.57
106.46
112.13
115.31
116.66
116.80
116.32
115.80
115.60
115.75
115.85
115.24
113.27
109.51
103.90
96.74
88.58
79.96
71.24
62.51
53.63
44.31
34.27
23.35
11.58
-0.68
-12.72
-23.51
-32.01
-37.51
-39.84
-39.35
-36.59
-31.97
-25.59
-17.36
-7.40
3.71
14.76
24.29
30.97
34.03
33.42
29.64
23.69
16.81
10.32
5.20
1.74
-0.69
-3.54
-8.63
-17.56
-31.16
-49.16
-70.29
-92.58
-113.65
-131.17
-143.23
-148.77
-147.94
-142.17
-133.79
-125.31
-118.52
-114.05
-111.54
-110.44
-110.87
-113.96
-121.24
-133.34
-148.78
-163.66
-172.63
-170.96
-156.42
-130.26
-96.61
-60.84
-27.57
0.43
22.48
39.20
51.52
60.08
65.14
66.90
65.84
62.95
59.55
56.98
56.12
57.03
58.93
60.46
60.33
57.88
53.42
48.13
43.52
40.69
39.94
40.68
41.88
42.65
42.63
41.94
40.91
39.71
38.17
36.00
33.28
30.70
29.75
32.31
39.93
53.21
71.34
92.16
112.73
130.16
142.33
148.38
148.63
144.19
136.50
126.88
116.43
105.99
96.08
86.92
78.36
69.91
61.06
51.63
41.98
32.93
25.43
19.88
16.04
13.15
10.37
7.26
3.87
0.37
-3.35
-7.84
-13.87
-21.76
-30.80
-39.23
-44.67
-45.14
-39.93
-30.07
-18.11
-7.33
-0.53
0.72
-3.76
-13.07
-25.88
-40.82
-56.62
-72.04
-86.09
-98.44
-109.80
-121.66
-135.16
-149.90
-163.35
-171.76
-172.23
-164.68
-152.35
-140.27
-132.61
-130.51
-131.93
-133.41
-132.57
-129.62
-127.05
-127.88
-133.68
-143.72
-155.18
-164.50
-168.50
-165.02
-153.18
-133.35
-107.07
-76.69
-45.05
-14.77
12.13
34.47
51.62
63.22
69.20
69.82
66.15
60.07
53.95
49.89
48.98
51.00
54.55
57.88
59.58
59.18
57.08
54.19
51.39
49.02
46.91
44.49
41.28
37.05
31.84
25.83
19.28
12.70
7.05
3.93
5.24
12.66
26.89
47.08
70.92
95.12
116.46
132.51
142.26
146.00
144.90
140.64
134.92
129.37
125.32
123.74
124.84
127.62
129.67
127.61
118.46
100.86
75.87
46.42
15.86
-13.70
-42.22
-71.18
-102.12
-135.00
-167.68
-196.34
-216.81
-225.79
-221.49
-203.72
-173.66
-133.81
-87.83
-40.40
3.40
38.95
62.85
73.55
71.49
59.07
40.10
19.14
0.41
-13.14
-20.51
-22.83
-22.70
-23.17
-26.41
-32.81
-40.75
-47.25
-49.06
-44.05
-32.17
-15.44
2.77
18.99
30.81
37.47
39.68
39.19
38.05
38.16
41.09
48.00
59.37
74.95
93.62
113.46
131.94
146.31
154.03
153.27
143.30
124.66
99.07
69.20
37.93
7.81
-19.70
-44.61
-68.24
-92.57
-118.98
-147.04
-173.96
-195.40
-207.10
-206.89
-195.92
-178.31
-159.48
-143.80
-133.06
-126.22
-120.42
-112.61
-100.82
-84.70
-65.14
-43.70
-22.02
-1.59
16.24
30.24
39.41
43.06
41.06
34.11
23.78
12.33
2.15
-4.85
-7.90
-7.46
-5.04
-2.50
-1.34
-2.27
-5.03
-8.86
-12.88
-16.51
-19.61
-22.38
-25.20
-28.43
-32.41
-37.21
-42.56
-47.52
-50.55
-49.83
-43.99
-32.80
-17.40
-0.20
16.05
29.03
37.44
41.01
40.23
35.97
29.29
21.45
13.84
7.78
4.16
3.02
3.49
4.10
3.41
0.83
-2.87
-5.76
-5.46
-0.33
9.51
21.85
33.02
39.16
37.72
28.46
13.46
-3.69
-19.10
-29.79
-34.18
-32.14
-24.64
-13.30
-0.08
12.98
23.93
31.24
34.02
32.20
26.65
18.98
11.12
4.84
1.26
0.58
2.12
4.61
6.76
7.67
7.11
5.48
3.55
2.11
1.72
2.55
4.37
6.66
8.86
10.51
11.59
12.64
14.69
19.02
26.66
37.92
52.10
67.55
82.06
93.35
99.62
99.82
93.89
82.77
68.27
52.75
38.65
28.00
21.83
20.12
21.79
25.21
28.67
30.78
30.74
28.30
23.70
17.45
10.11
2.19
-6.13
-14.94
-24.48
-34.68
-44.74
-52.84
-56.44
-53.09
-41.56
-22.73
0.33
23.13
41.21
51.50
53.00
46.55
34.13
18.06
0.65
-15.79
-28.90
-36.60
-37.67
-32.35
-22.52
-11.17
-1.39
4.75
6.72
5.55
3.02
0.91
0.29
1.37
3.52
5.68
6.66
5.54
2.06
-3.18
-8.50
-11.52
-9.68
-1.26
13.87
33.99
55.96
76.27
92.20
102.53
107.58
108.51
106.50
102.11
95.28
85.72
73.53
59.54
45.20
32.12
21.45
13.48
7.75
3.36
-0.52
-4.26
-7.77
-10.64
-12.52
-13.47
-14.03
-15.09
-17.63
-22.41
-29.65
-38.80
-48.61
-57.10
-62.21
-62.17
-56.21
-44.88
-30.01
-14.19
-0.10
10.14
15.38
15.35
10.60
2.09
-8.91
-20.88
-32.12
-40.96
-46.10
-46.99
-44.11
-38.86
-33.14
-28.81
-27.03
-28.03
-31.21
-35.72
-41.02
-47.26
-55.10
-65.15
-77.25
-90.11
-101.78
-110.55
-115.81
-118.08
-118.13
-115.59
-108.27
-92.66
-65.41
-24.82
28.75
93.66
167.84
248.87
333.17
414.90
486.24
539.35
569.25
576.18
565.68
546.15
525.33
507.57
493.19
480.04
465.55
448.35
428.33
405.91
381.22
353.78
322.88
288.26
250.49
211.09
172.01
134.92
100.65
68.94
38.68
8.47
-22.72
-55.18
-88.25
-120.65
-150.96
-178.16
-201.97
-222.92
-241.96
-260.09
-277.90
-295.34
-311.84
-326.69
-339.56
-350.78
-361.45
-373.14
-387.55
-406.25
-430.79
-462.72
-503.42
-553.43
-611.60
-674.52
-736.77
-792.18
-835.40
-863.11
-874.18
-868.94
-848.04
-811.95
-761.18
-696.77
-620.63
-535.26
-442.83
-344.60
-241.07
-132.90
-21.96
88.10
192.21
284.94
361.88
420.56
461.00
485.78
499.47
507.50
514.13
520.70
524.78
521.14
504.28
471.33
423.72
366.50
305.90
246.87
192.16
143.11
101.38
69.75
51.07
46.12
52.01
62.59
71.01
72.83
67.64
58.31
48.55
40.50
33.99
27.65
21.07
15.93
15.56
23.15
39.89
64.31
93.04
122.76
151.66
179.68
207.45
234.54
258.33
274.57
279.27
270.82
251.19
225.22
198.71
176.10
158.88
145.62
133.14
118.27
98.79
74.20
45.41
14.10
-17.98
-49.45
-79.46
-107.59
-133.55
-157.18
-178.08
-195.55
-208.76
-217.28
-221.42
-222.09
-220.55
-218.14
-216.75
-218.23
-224.22
-235.69
-252.41
-272.55
-292.51
-307.40
-312.28
-305.05
-285.85
-256.48
-219.30
-176.67
-130.99
-84.66
-39.65
3.26
42.38
78.32
114.43
155.36
203.88
258.00
311.12
354.75
381.79
384.18
358.19
305.63
233.39
150.75
66.01
-15.20
-89.93
-157.67
-225.64
-301.51
-389.23
-486.50
-586.55
-682.07
-767.80
-840.93
-863.57
-809.37
-675.36
-487.99
-286.79
-102.73
49.74
168.72
258.38
324.27
366.31
384.65
382.49
367.27
347.98
331.31
320.11
314.27
310.74
302.38
284.31
256.62
224.36
194.41
171.76
157.96
151.35
147.35
139.29
123.26
99.94
73.41
48.19
26.25
9.03
-5.39
-22.21
-47.50
-84.96
-134.47
-192.74
-254.33
-312.22
-358.64
-373.43
-345.59
-281.06
-201.13
-129.42
-80.31
-56.21
-50.90
-55.39
-62.78
-71.93
-84.09
-100.41
-118.34
-133.77
-143.49
-146.19
-142.83
-136.10
-130.89
-130.90
-136.95
-146.45
-154.97
-160.01
-159.58
-152.80
-140.03
-123.32
-104.67
-85.00
-63.79
-39.99
-12.91
17.78
51.73
88.14
125.65
162.95
198.64
230.88
256.67
271.99
273.28
258.74
229.31
188.69
142.45
96.14
53.66
16.08
-18.01
-50.78
-83.21
-113.87
-138.82
-153.09
-152.77
-136.72
-107.09
-68.42
-25.71
17.23
58.56
98.08
136.21
173.34
209.71
245.61
281.33
316.53
349.22
375.30
389.72
388.73
372.40
345.99
318.48
299.24
294.15
303.21
320.96
339.33
351.13
352.32
342.40
323.10
296.67
265.04
229.90
193.20
157.32
124.57
96.20
71.76
49.41
26.82
2.29
-24.65
-53.32
-82.45
-110.64
-136.51
-158.44
-174.69
-183.57
-184.15
-176.91
-163.86
-148.00
-132.25
-118.50
-107.26
-97.98
-89.81
-82.32
-75.76
-70.77
-67.93
-67.13
-67.47
-67.54
-65.87
-61.59
-54.81
-46.61
-38.63
-32.51
-29.22
-28.93
-31.04
-34.66
-38.97
-43.50
-48.10
-52.71
-57.16
-61.09
-64.17
-66.36
-68.14
-70.53
-74.71
-81.56
-91.06
-101.86
-111.46
-116.79
-115.11
-104.98
-86.67
-62.17
-34.39
-6.42
19.31
41.31
59.00
72.39
81.72
87.28
89.43
88.70
85.83
81.69
77.11
72.64
68.55
64.82
61.24
57.63
53.91
50.09
46.10
41.78
36.72
30.54
23.00
14.19
4.48
-5.58
-15.46
-24.89
-33.83
-42.56
-51.57
-61.37
-72.21
-83.81
-95.07
-104.07
-108.56
-106.51
-96.96
-80.37
-58.58
-34.21
-9.83
12.54
31.74
47.33
59.23
67.49
72.21
73.62
72.25
68.91
64.55
59.95
55.49
51.25
46.96
42.41
37.56
32.54
27.58
22.74
17.83
12.37
5.97
-1.60
-10.13
-19.03
-27.62
-35.32
-41.98
-47.90
-53.69
-60.11
-67.73
-76.69
-86.41
-95.48
-101.84
-103.26
-98.01
-85.48
-66.54
-43.29
-18.44
5.52
26.82
44.55
58.47
68.63
75.14
78.18
78.08
75.43
71.02
65.59
59.72
53.76
47.83
41.98
36.28
30.83
25.67
20.71
15.66
10.20
3.99
-3.06
-10.85
-19.07
-27.30
-35.15
-42.32
-48.81
-54.83
-60.92
-67.71
-75.77
-85.18
-95.27
-104.41
-110.26
-110.43
-103.24
-88.42
-67.31
-42.45
-16.82
7.00
27.40
43.72
55.99
64.49
69.46
71.18
70.07
66.76
62.13
57.00
51.95
47.19
42.70
38.33
34.02
29.84
25.85
22.02
18.07
13.56
8.04
1.30
-6.54
-14.99
-23.36
-31.01
-37.59
-43.13
-48.12
-53.37
-59.73
-67.79
-77.44
-87.57
-96.11
-100.43
-98.09
-87.65
-69.35
-45.06
-17.83
9.09
33.00
52.23
66.10
74.54
77.83
76.49
71.40
63.97
56.02
49.44
45.51
44.59
45.93
48.08
49.47
48.96
46.03
40.70
33.25
23.99
13.25
1.50
-10.48
-21.61
-30.70
-36.94
-40.26
-41.41
-41.89
-43.41
-47.58
-55.39
-66.97
-81.40
-96.65
-109.79
-117.49
-116.81
-106.17
-85.93
-58.45
-27.35
3.46
30.84
53.00
69.28
79.88
85.27
86.03
82.91
76.95
69.48
61.90
55.33
50.30
46.72
44.02
41.49
38.60
35.09
30.89
26.05
20.58
14.38
7.35
-0.49
-8.93
-17.59
-26.00
-33.84
-41.04
-47.88
-54.90
-62.81
-72.15
-82.94
-94.35
-104.51
-110.84
-110.70
-102.25
-85.27
-61.29
-33.23
-4.53
21.82
43.86
60.77
72.65
79.99
83.31
83.19
80.25
75.25
69.18
63.02
57.49
52.93
49.21
45.93
42.66
39.13
35.22
30.96
26.26
20.85
14.38
6.64
-2.27
-11.90
-21.56
-30.65
-38.85
-46.28
-53.41
-60.93
-69.51
-79.46
-90.31
-100.66
-108.11
-109.85
-103.54
-88.16
-64.62
-35.66
-4.98
23.82
48.12
66.75
79.67
87.48
90.88
90.52
86.99
81.06
73.70
65.93
58.66
52.37
47.18
42.79
38.78
34.76
30.52
25.96
21.00
15.43
9.01
1.59
-6.77
-15.75
-24.79
-33.37
-41.22
-48.47
-55.73
-63.79
-73.35
-84.52
-96.44
-107.10
-113.69
-113.26
-103.77
-84.87
-58.27
-27.23
4.33
32.96
56.45
73.91
85.56
92.05
94.16
92.60
88.09
81.57
74.11
66.75
60.24
54.89
50.54
46.78
43.13
39.27
35.09
30.55
25.57
19.91
13.27
5.42
-3.51
-13.07
-22.54
-31.24
-38.88
-45.69
-52.35
-59.87
-69.15
-80.50
-93.25
-105.49
-114.22
-116.11
-108.47
-90.35
-63.04
-29.88
4.77
36.75
63.13
82.64
95.32
101.99
103.61
101.06
95.22
87.11
77.93
68.90
60.93
54.40
49.19
44.86
40.91
37.02
33.03
28.81
24.20
18.85
12.35
4.46
-4.73
-14.82
-25.17
-35.17
-44.44
-52.95
-61.06
-69.43
-78.83
-89.72
-101.83
-113.66
-122.53
-125.10
-118.42
-101.11
-74.11
-40.59
-5.04
28.02
55.35
75.48
88.59
95.75
98.27
97.29
93.70
88.35
82.13
75.95
70.43
65.71
61.31
56.49
50.56
43.34
35.26
27.18
19.97
14.00
8.93
3.90
-2.07
-9.56
-18.51
-28.30
-38.05
-47.09
-55.22
-62.85
-70.81
-80.00
-91.02
-103.61
-116.38
-126.71
-131.31
-127.07
-112.27
-87.27
-54.61
-18.42
16.97
48.02
72.78
90.79
102.50
108.65
109.85
106.70
100.00
91.03
81.36
72.56
65.58
60.50
56.59
52.79
48.27
42.82
36.94
31.34
26.46
22.08
17.31
11.05
2.52
-8.24
-20.38
-32.52
-43.38
-52.29
-59.31
-65.27
-71.33
-78.70
-88.25
-100.19
-113.66
-126.53
-135.48
-136.77
-127.39
-106.29
-75.08
-37.66
0.92
36.11
64.97
86.49
101.08
109.64
112.89
111.24
105.19
95.75
84.57
73.67
64.70
58.45
54.57
51.83
48.78
44.43
38.57
31.83
25.22
19.46
14.55
9.73
3.81
-4.15
-14.35
-26.05
-37.90
-48.48
-57.01
-63.53
-68.88
-74.34
-81.14
-90.14
-101.44
-114.17
-126.32
-134.85
-136.27
-127.66
-107.78
-77.79
-41.19
-2.71
33.05
62.89
85.45
100.93
110.20
114.10
113.17
107.90
99.15
88.39
77.50
68.20
61.52
57.44
55.01
52.86
49.76
45.12
39.13
32.50
26.04
20.16
14.60
8.59
1.21
-8.11
-19.30
-31.58
-43.75
-54.63
-63.55
-70.59
-76.45
-82.22
-89.06
-97.78
-108.72
-121.44
-134.50
-145.35
-150.63
-146.96
-132.02
-105.61
-69.95
-29.26
11.55
48.28
78.40
101.19
117.15
127.16
131.87
131.61
126.78
118.21
107.34
95.99
85.81
77.81
72.11
68.01
64.44
60.39
55.33
49.26
42.66
36.03
29.68
23.50
17.01
9.52
0.55
-10.00
-21.70
-33.74
-45.24
-55.59
-64.65
-72.75
-80.49
-88.51
-97.36
-107.45
-118.94
-131.51
-143.87
-153.64
-157.49
-152.08
-135.28
-107.23
-70.63
-30.02
9.62
44.34
72.05
92.51
106.54
115.19
119.20
118.91
114.73
107.30
97.74
87.35
77.32
68.45
61.00
54.70
48.95
43.10
36.70
29.67
22.30
15.11
8.55
2.75
-2.60
-8.21
-14.84
-22.96
-32.56
-43.19
-54.16
-64.85
-74.94
-84.29
-92.90
-100.71
-107.65
-113.64
-118.68
-122.72
-125.22
-124.97
-119.94
-107.94
-87.45
-58.71
-24.02
12.64
46.77
74.71
94.65
106.75
112.62
114.33
113.54
111.20
107.64
103.02
97.59
91.95
86.71
82.27
78.51
74.64
69.57
62.27
52.35
40.34
27.62
15.97
6.84
0.74
-2.96
-5.78
-9.44
-15.16
-23.16
-32.77
-42.86
-52.46
-61.25
-69.62
-78.36
-88.26
-99.79
-112.83
-126.62
-139.56
-149.30
-152.93
-147.65
-131.58
-104.69
-69.12
-28.78
11.64
48.01
77.59
99.34
113.53
121.00
122.68
119.43
112.21
102.32
91.38
81.03
72.46
66.00
61.11
56.75
51.92
46.17
39.64
32.96
26.68
20.90
15.10
8.34
-0.24
-10.98
-23.41
-36.42
-48.60
-58.81
-66.60
-72.34
-77.20
-82.71
-90.34
-100.90
-114.11
-128.22
-140.10
-145.79
-141.60
-125.42
-97.64
-61.24
-21.03
17.81
51.14
76.70
94.06
104.11
108.12
107.29
102.58
94.88
85.21
74.72
64.53
55.52
48.18
42.59
38.51
35.49
32.95
30.30
26.95
22.37
16.08
7.88
-2.16
-13.59
-25.61
-37.27
-47.73
-56.57
-64.04
-71.04
-78.93
-88.96
-101.55
-115.58
-128.31
-135.73
-133.86
-120.14
-94.54
-59.77
-20.50
18.09
51.82
78.33
97.16
109.16
115.64
117.76
116.36
112.08
105.61
97.80
89.52
81.50
74.06
67.16
60.56
54.05
47.71
41.80
36.53
31.67
26.51
19.98
11.16
-0.20
-13.58
-27.71
-41.21
-53.09
-63.25
-72.46
-82.16
-93.80
-108.18
-124.85
-141.68
-155.08
-160.70
-154.80
-135.57
-104.05
-63.96
-20.63
20.58
55.84
83.40
103.40
116.88
124.85
127.88
126.24
120.45
111.61
101.43
91.65
83.46
77.12
72.02
67.15
61.72
55.53
49.01
42.85
37.49
32.74
27.75
21.37
12.64
1.34
-11.86
-25.56
-38.10
-48.28
-55.71
-61.08
-65.87
-71.97
-80.93
-93.27
-107.99
-122.25
-131.87
-132.22
-119.82
-93.56
-55.45
-10.08
36.78
80.03
116.54
145.50
167.74
184.56
196.71
204.25
206.89
204.73
198.69
190.47
182.03
175.21
171.49
171.95
177.08
186.53
198.81
211.20
220.52
224.10
220.81
211.48
198.40
184.32
171.31
160.34
151.26
143.36
135.71
127.25
116.77
102.87
84.36
60.68
32.25
0.45
-32.83
-65.72
-97.09
-126.94
-156.51
-187.73
-222.13
-259.42
-296.63
-328.30
-347.94
-350.49
-334.26
-301.79
-258.99
-213.12
-170.55
-135.27
-108.54
-89.45
-75.86
-65.09
-54.55
-42.03
-26.08
-6.44
15.85
38.76
59.98
77.71
91.23
100.92
107.68
112.02
113.27
109.57
98.62
78.87
50.66
16.42
-20.12
-55.47
-87.58
-116.39
-143.42
-170.78
-200.36
-233.25
-269.38
-307.25
-343.69
-373.79
-391.65
-391.84
-371.46
-331.71
-278.22
-219.48
-164.17
-118.43
-84.48
-60.90
-44.42
-31.99
-22.07
-14.63
-10.22
-8.95
-9.90
-11.52
-12.39
-11.93
-10.48
-8.93
-8.13
-8.44
-9.71
-11.22
-11.79
-10.08
-4.88
4.47
17.71
33.54
49.85
64.40
75.48
82.39
85.50
85.83
84.58
82.61
80.24
77.23
72.82
65.96
55.50
40.72
22.13
1.96
-15.57
-25.16
-22.00
-3.68
28.42
68.86
109.34
141.00
156.83
153.70
132.87
99.14
59.06
18.80
-17.48
-48.20
-73.87
-95.98
-115.64
-132.98
-147.14
-156.99
-161.92
-162.40
-159.84
-155.96
-152.18
-148.82
-145.21
-140.15
-132.83
-123.68
-114.30
-106.72
-102.46
-101.86
-103.55
-105.11
-104.01
-98.39
-87.29
-70.23
-46.94
-17.79
15.10
47.42
72.88
84.74
78.53
54.44
18.23
-19.82
-48.50
-59.72
-50.32
-22.13
19.40
67.62
116.43
160.73
196.31
218.26
219.92
196.84
149.77
85.79
17.55
-40.34
-76.06
-83.21
-63.72
-28.43
10.79
45.96
73.44
93.46
108.12
119.44
131.04
145.76
162.40
181.63
206.11
236.37
269.79
301.17
324.80
340.16
349.93
354.35
356.90
363.05
374.60
389.13
401.16
385.93
328.25
256.07
185.67
116.52
52.42
-3.52
-49.37
-84.33
-107.99
-117.31
-110.36
-92.02
-67.16
-39.14
-12.47
8.43
20.58
23.41
20.35
15.19
7.10
-4.95
-21.31
-43.56
-73.21
-110.21
-151.91
-193.44
-230.56
-262.90
-286.47
-295.56
-287.05
-262.46
-227.03
-185.23
-140.14
-97.29
-58.41
-26.16
-4.52
1.53
-11.23
-42.15
-83.36
-125.12
-157.57
-173.50
-170.47
-152.06
-128.37
-111.95
-112.81
-132.67
-168.55
-213.82
-261.07
-304.70
-335.13
-346.92
-341.25
-336.15
-335.69
-336.42
-327.09
-300.43
-253.85
-190.43
-119.00
-50.36
7.04
51.83
85.73
112.33
134.43
153.37
168.63
178.25
181.16
178.88
176.83
179.65
190.10
208.25
232.72
261.56
292.42
323.26
352.65
380.72
406.99
430.96
452.31
471.61
489.85
507.19
522.51
533.48
537.78
532.89
516.96
488.96
448.82
397.21
335.28
265.01
189.32
112.20
37.49
-31.62
-93.73
-149.27
-200.30
-249.87
-301.20
-357.19
-419.52
-487.46
-556.79
-619.48
-664.98
-682.92
-666.85
-616.92
-540.56
-450.43
-360.42
-281.39
-218.58
-171.48
-135.77
-106.24
-79.05
-52.61
-27.02
-2.63
21.08
45.79
73.49
105.14
139.32
172.33
199.42
216.73
222.86
219.30
209.66
197.96
187.29
179.39
175.09
175.06
180.03
190.14
203.82
217.34
225.55
223.80
210.28
187.31
160.84
138.19
124.90
122.38
127.38
133.64
134.44
125.23
104.76
74.65
37.78
-3.38
-47.86
-96.22
-149.59
-208.14
-269.80
-329.70
-381.02
-416.76
-432.06
-425.68
-400.22
-360.97
-313.98
-264.43
-215.85
-170.44
-129.71
-94.74
-65.76
-41.73
-20.30
1.18
24.14
47.77
69.05
84.15
89.92
85.15
70.92
50.12
26.62
4.62
-12.17
-21.26
-22.13
-16.66
-8.72
-2.75
-1.89
-6.61
-14.48
-21.33
-23.11
-17.38
-3.90
15.91
39.89
66.05
92.61
117.98
140.46
158.05
168.72
171.30
166.38
156.69
146.38
139.40
137.98
141.69
147.77
152.67
153.98
151.71
148.05
146.01
147.52
153.26
162.81
175.22
189.05
202.11
211.52
214.40
209.33
196.85
181.28
169.61
168.29
179.96
202.02
227.96
250.50
263.99
263.99
249.97
223.97
188.27
143.55
88.76
22.82
-53.11
-136.22
-225.31
-316.94
-406.15
-488.06
-559.55
-619.76
-669.05
-707.01
-733.99
-754.12
-768.63
-774.96
-768.78
-747.12
-711.07
-666.04
-619.39
-553.20
-466.02
-369.02
-278.37
-203.09
-141.35
-86.33
-40.74
0.97
40.45
72.89
95.62
109.99
120.34
131.36
144.89
161.38
182.12
206.57
230.28
249.82
263.46
270.84
272.25
267.99
259.05
248.26
237.63
226.84
216.13
206.32
198.25
191.88
186.11
179.73
172.76
165.02
155.57
143.61
128.48
109.41
85.63
56.65
23.16
-12.21
-45.59
-72.47
-88.41
-90.51
-78.68
-56.03
-27.86
0.32
24.74
43.85
57.96
67.78
73.34
73.87
68.62
58.11
44.43
30.81
20.29
14.51
13.09
14.13
15.24
14.56
11.37
5.88
-1.20
-9.21
-17.87
-27.24
-37.57
-49.12
-62.14
-76.69
-92.57
-109.05
-124.58
-136.67
-142.12
-137.79
-121.69
-94.02
-57.49
-16.98
21.88
54.30
77.53
91.31
97.21
97.47
93.93
87.66
79.14
68.98
58.34
48.85
42.07
38.82
38.72
40.34
41.85
41.65
39.05
34.27
28.08
21.37
14.73
8.36
2.16
-4.10
-10.69
-17.94
-26.22
-35.89
-46.85
-58.03
-67.11
-70.80
-65.81
-50.24
-24.55
8.16
42.96
74.64
99.31
115.15
122.50
122.96
118.39
110.29
99.74
87.66
75.20
63.72
54.40
47.83
43.75
41.06
38.28
34.13
28.13
20.67
12.88
5.96
0.68
-2.99
-5.85
-8.95
-13.16
-18.91
-26.18
-34.87
-44.88
-55.91
-66.92
-75.73
-79.05
-73.51
-57.07
-30.28
3.37
38.37
68.93
90.78
102.26
104.30
99.30
89.86
77.89
64.36
49.91
35.37
22.11
11.74
5.52
3.62
4.94
7.40
8.65
6.99
1.87
-6.09
-15.50
-24.92
-33.45
-40.92
-47.84
-55.03
-63.32
-73.32
-85.21
-98.47
-111.57
-121.87
-125.85
-120.05
-102.24
-72.48
-33.53
9.78
51.77
87.52
113.88
129.86
136.17
134.55
127.00
115.37
101.29
86.29
72.03
60.37
53.17
51.79
56.54
66.30
78.58
90.09
97.60
98.78
92.69
79.74
61.30
39.28
15.59
-8.06
-30.46
-51.13
-70.50
-89.63
-109.52
-130.04
-149.14
-162.79
-166.16
-155.44
-129.78
-92.01
-48.00
-4.86
31.26
56.65
70.40
73.80
69.19
59.10
45.89
31.71
18.51
7.81
0.44
-3.61
-4.98
-4.57
-3.20
-1.34
0.89
3.61
7.07
11.45
16.70
22.39
27.66
31.36
32.45
30.49
25.95
20.02
13.95
8.38
2.80
-4.00
-13.12
-24.35
-35.73
-43.87
-45.18
-37.38
-20.57
2.77
28.63
53.01
73.01
87.30
95.74
98.72
96.56
89.45
77.76
62.51
45.41
28.66
14.41
4.09
-1.79
-3.82
-3.43
-2.39
-2.31
-4.13
-7.97
-13.33
-19.60
-26.54
-34.42
-43.81
-54.92
-67.32
-79.82
-90.94
-99.48
-104.97
-107.72
-108.56
-108.52
-108.51
-109.33
-111.47
-114.93
-118.82
-121.09
-118.81
-108.87
-89.25
-59.95
-23.44
15.90
53.09
83.98
106.38
120.20
126.95
128.64
127.02
123.22
118.06
112.54
108.04
106.12
107.82
112.99
119.91
125.85
127.91
124.19
114.38
99.58
81.56
61.91
41.61
21.04
0.50
-19.43
-37.81
-53.59
-66.08
-75.19
-81.40
-85.43
-87.96
-89.44
-90.25
-90.87
-92.04
-94.63
-99.35
-106.37
-114.98
-123.41
-128.88
-128.29
-119.09
-100.30
-73.07
-40.63
-7.35
22.44
45.70
61.26
69.58
72.06
70.24
65.43
58.67
51.02
43.68
37.92
34.71
34.37
36.41
39.61
42.44
43.55
42.15
38.30
32.68
26.26
19.85
13.70
7.57
0.85
-6.90
-15.64
-24.68
-32.99
-39.56
-43.93
-46.32
-47.61
-48.97
-51.61
-56.35
-63.39
-72.05
-80.61
-86.47
-86.68
-78.90
-62.32
-38.30
-10.04
18.30
43.04
61.96
74.68
82.12
85.63
86.12
83.86
78.75
70.93
61.22
51.14
42.45
36.44
33.47
32.85
33.10
32.63
30.39
26.21
20.81
15.29
10.60
7.02
4.06
0.80
-3.61
-9.48
-16.50
-23.85
-30.67
-36.40
-40.98
-44.73
-48.26
-52.27
-57.42
-64.18
-72.52
-81.49
-89.12
-92.70
-89.56
-78.18
-58.91
-34.16
-7.66
16.81
36.52
50.41
58.95
63.48
65.32
65.34
63.84
60.88
56.62
51.53
46.35
41.89
38.76
37.05
36.37
35.89
34.75
32.31
28.37
23.10
16.96
10.41
3.76
-2.84
-9.42
-16.06
-22.78
-29.57
-36.31
-42.77
-48.78
-54.25
-59.25
-64.09
-69.13
-74.76
-81.29
-88.91
-97.45
-106.23
-113.72
-117.52
-114.93
-103.79
-83.49
-55.69
-24.01
6.95
33.00
51.65
62.54
66.99
67.15
64.93
61.51
57.36
52.61
47.48
42.43
38.07
34.83
32.75
31.49
30.45
29.17
27.39
25.17
22.64
19.96
17.08
13.88
10.34
6.56
2.75
-0.90
-4.47
-8.31
-12.90
-18.62
-25.48
-33.04
-40.51
-47.14
-52.43
-56.39
-59.55
-62.83
-67.22
-73.46
-81.52
-90.23
-97.24
-99.38
-93.64
-78.35
-54.06
-23.69
8.30
37.31
59.94
74.76
82.25
84.05
82.00
77.60
71.77
65.04
57.91
51.01
45.00
40.45
37.53
35.85
34.65
32.98
30.15
25.97
20.81
15.36
10.39
6.38
3.27
0.66
-2.10
-5.61
-10.17
-15.67
-21.69
-27.57
-32.76
-36.95
-40.14
-42.64
-44.93
-47.54
-51.01
-55.82
-62.17
-69.73
-77.26
-82.54
-82.79
-75.55
-59.66
-36.06
-7.73
21.20
46.65
65.82
77.70
82.85
82.67
78.64
71.95
63.52
54.33
45.55
38.43
33.88
31.98
31.94
32.31
31.56
28.82
24.14
18.39
12.73
7.99
4.11
0.32
-4.53
-11.28
-19.95
-29.71
-39.17
-46.99
-52.46
-55.81
-58.05
-60.70
-65.21
-72.46
-82.31
-93.38
-103.14
-108.39
-106.23
-94.95
-74.91
-48.58
-19.89
6.90
28.59
43.83
53.23
58.68
62.33
65.71
69.40
73.25
76.80
79.78
82.15
83.87
84.65
83.84
80.73
75.00
67.12
58.21
49.58
42.02
35.34
28.41
19.76
8.41
-5.58
-20.94
-35.58
-47.23
-54.20
-55.93
-53.22
-48.18
-43.58
-42.07
-45.06
-51.83
-59.36
-62.94
-57.72
-40.60
-11.69
25.35
64.23
98.13
121.85
133.30
133.71
126.60
116.05
105.24
95.62
87.08
78.82
70.13
60.90
51.60
42.95
35.46
29.21
23.97
19.36
15.17
11.46
8.37
5.83
3.37
0.09
-4.95
-12.19
-21.29
-31.04
-39.97
-46.97
-51.78
-55.10
-58.15
-62.15
-67.95
-75.85
-85.68
-96.75
-107.64
-116.02
-118.98
-113.78
-99.04
-75.57
-46.43
-16.03
11.25
32.38
46.33
53.90
56.97
57.58
57.37
57.23
57.29
57.19
56.36
54.36
51.14
46.96
42.18
36.88
30.73
23.05
13.33
1.69
-10.87
-22.65
-31.93
-37.53
-39.42
-38.64
-36.93
-36.09
-37.35
-40.96
-46.17
-51.63
-56.00
-58.60
-59.57
-59.79
-60.26
-61.65
-64.06
-67.20
-70.55
-73.57
-75.44
-74.68
-69.20
-56.67
-35.68
-6.79
27.15
61.63
91.97
114.77
128.88
135.23
136.05
133.88
130.68
127.60
124.99
122.74
120.64
118.74
117.39
117.15
118.32
120.44
122.26
122.01
118.23
110.19
97.97
81.88
61.98
37.99
9.77
-21.98
-55.54
-88.66
-119.86
-149.26
-178.37
-208.50
-238.96
-266.17
-285.01
-291.28
-284.14
-266.49
-243.26
-218.64
-194.21
-168.94
-141.14
-110.62
-79.66
-52.24
-31.97
-20.41
-16.51
-17.19
-18.40
-16.23
-7.57
9.08
32.87
60.42
86.48
105.52
113.67
109.88
95.71
74.14
48.32
21.32
-3.44
-21.74
-29.29
-23.49
-5.61
18.61
40.56
52.32
50.24
36.70
18.91
5.63
3.40
14.36
36.27
64.23
92.65
116.85
133.45
140.24
136.14
121.32
97.41
67.69
36.65
9.10
-10.89
-21.11
-21.77
-15.34
-5.68
3.42
9.78
13.47
16.52
21.73
31.33
46.10
64.87
84.57
100.57
107.64
101.65
81.55
50.81
17.47
-7.71
-14.42
4.25
50.30
120.96
209.94
308.67
407.08
494.29
559.88
596.27
600.88
577.30
534.07
481.76
429.45
382.46
341.98
306.32
272.85
239.48
205.21
170.13
134.97
100.77
68.57
39.11
12.48
-11.85
-34.99
-58.33
-83.00
-109.66
-138.22
-167.80
-196.86
-223.83
-247.77
-269.01
-289.23
-310.67
-335.19
-363.28
-393.86
-424.93
-454.79
-483.02
-510.78
-540.57
-575.11
-616.09
-662.81
-711.48
-755.49
-786.95
-799.05
-788.34
-756.06
-707.29
-648.78
-586.42
-523.67
-461.88
-401.54
-343.63
-290.02
-242.48
-201.35
-164.85
-129.37
-90.93
-46.82
3.20
56.42
107.51
149.91
177.78
188.12
182.17
165.58
146.70
133.93
133.01
145.59
169.46
200.20
233.03
264.25
291.70
314.41
332.04
344.29
350.67
350.48
343.03
328.21
307.14
282.29
257.06
234.69
217.08
204.06
193.75
183.65
171.74
157.23
140.43
122.24
103.54
84.96
66.86
49.62
33.65
19.36
7.04
-3.21
-11.54
-18.42
-24.72
-31.59
-40.12
-51.10
-64.76
-80.84
-98.74
-117.52
-135.73
-151.21
-161.25
-163.14
-155.18
-137.50
-112.14
-82.47
-52.18
-24.21
-0.43
18.18
31.17
38.47
40.57
38.78
35.03
31.30
28.97
28.28
28.49
28.38
26.99
24.15
20.49
16.97
14.49
13.38
13.34
13.67
13.72
13.17
12.24
11.63
12.15
14.31
17.91
21.98
25.00
25.24
21.21
12.09
-1.75
-18.52
-34.98
-47.01
-50.68
-43.44
-25.10
1.92
33.35
64.41
91.20
111.48
124.61
130.95
131.16
125.78
115.37
100.76
83.28
64.71
46.87
31.31
18.91
9.84
3.68
-0.24
-2.64
-4.20
-5.45
-6.78
-8.47
-10.74
-13.72
-17.44
-21.80
-26.48
-30.93
-34.34
-35.88
-35.10
-32.30
-28.63
-25.85
-25.66
-29.05
-35.77
-44.12
-51.38
-54.46
-50.76
-38.83
-18.74
8.01
38.72
69.99
98.25
120.34
134.14
139.14
136.56
128.94
119.40
110.55
103.81
99.21
95.99
93.34
91.08
89.53
89.01
89.15
88.75
86.14
79.90
69.53
55.47
38.96
21.17
2.78
-16.26
-36.22
-56.93
-77.38
-96.27
-113.32
-130.22
-150.26
-176.25
-207.67
-239.13
-261.56
-265.81
-246.84
-206.52
-152.70
-95.60
-43.41
0.67
38.46
74.32
112.02
152.77
194.84
234.70
268.21
291.39
300.87
294.12
270.31
230.98
180.55
125.90
74.93
34.38
7.87
-4.86
-7.50
-5.26
-2.70
-1.90
-2.23
-1.26
3.33
12.27
24.61
38.14
50.95
62.38
72.90
83.04
92.18
98.15
98.17
90.44
75.37
55.65
35.19
17.49
4.69
-2.51
-4.24
-0.80
7.36
19.14
32.53
44.85
53.33
56.01
52.43
43.52
31.10
17.17
3.25
-9.79
-21.71
-32.57
-42.38
-50.92
-57.80
-62.73
-65.63
-66.69
-66.16
-64.21
-60.78
-55.88
-49.83
-43.53
-38.37
-35.68
-36.07
-39.08
-43.35
-47.13
-49.06
-48.64
-46.26
-43.06
-40.52
-40.11
-42.91
-49.14
-57.65
-65.73
-69.62
-65.61
-51.68
-28.44
0.71
30.85
57.24
76.77
88.55
93.55
93.51
90.02
84.14
76.58
68.11
59.89
53.18
48.97
47.31
47.43
48.01
47.74
45.76
41.94
36.83
31.21
25.57
19.44
11.41
-0.36
-17.32
-39.79
-66.54
-94.79
-121.11
-142.29
-156.89
-165.06
-167.94
-166.93
-163.37
-158.52
-153.60
-150.07
-148.93
-151.61
-157.64
-163.83
-165.07
-156.54
-136.19
-105.47
-69.62
-35.01
-10.15
-0.44
-6.12
-22.58
-43.25
-63.19
-79.77
-94.32
-108.92
-129.94
-161.36
-202.27
-246.94
-287.96
-320.09
-339.82
-348.01
-346.10
-342.46
-345.75
-362.18
-393.86
-439.36
-495.40
-554.57
-609.63
-611.12
-527.60
-361.48
-151.17
54.84
225.07
339.25
412.01
454.79
472.63
460.05
412.39
334.57
240.67
154.95
99.35
86.77
112.59
161.80
212.26
247.84
263.34
263.36
256.50
249.45
246.20
245.39
245.10
241.10
231.07
215.50
197.37
179.96
165.66
154.95
145.29
133.96
117.78
95.19
66.54
33.56
-2.16
-38.42
-72.22
-100.16
-117.77
-121.00
-107.57
-78.59
-35.11
11.52
48.53
67.72
67.91
53.71
31.87
8.49
-12.78
-30.44
-44.44
-53.59
-56.85
-53.85
-45.63
-35.24
-25.44
-18.49
-15.54
-18.44
-26.31
-37.43
-49.12
-60.49
-72.41
-84.36
-94.95
-102.27
-104.65
-100.12
-87.34
-65.71
-34.09
3.71
43.93
82.44
115.67
141.34
159.00
169.00
171.80
176.52
182.77
190.20
199.11
210.53
225.95
247.37
276.83
307.08
333.36
349.51
352.04
340.57
318.30
291.09
265.13
244.14
228.05
215.14
201.52
185.65
168.21
150.84
134.48
118.43
100.70
79.49
55.28
29.01
2.52
-22.88
-46.82
-69.41
-90.42
-108.91
-123.79
-133.87
-139.79
-143.04
-145.59
-149.09
-154.44
-161.88
-171.10
-181.74
-193.13
-204.79
-216.00
-225.95
-233.94
-239.60
-243.08
-244.85
-245.20
-243.44
-237.79
-225.73
-205.12
-175.49
-138.79
-99.07
-61.24
-29.46
-6.05
8.79
16.22
17.86
14.99
8.44
-1.10
-12.59
-24.29
-34.10
-40.04
-41.00
-37.20
-30.26
-22.73
-17.11
-15.13
-17.27
-23.05
-31.48
-41.77
-53.42
-66.06
-78.97
-90.71
-99.38
-103.13
-101.14
-94.18
-84.73
-76.15
-71.33
-71.17
-73.56
-73.79
-65.92
-45.18
-9.90
37.47
91.20
144.18
190.18
225.46
248.88
261.31
264.29
259.31
247.54
230.25
209.03
185.87
162.74
141.16
121.93
105.17
90.64
78.05
67.22
57.89
49.47
41.00
31.28
19.27
4.46
-13.08
-32.92
-54.69
-78.26
-103.81
-131.45
-161.10
-192.16
-223.41
-252.68
-276.85
-292.02
-294.45
-281.84
-254.66
-216.55
-173.59
-132.53
-98.65
-74.49
-59.80
-52.59
-50.75
-53.16
-59.81
-70.87
-85.41
-100.53
-111.50
-113.38
-103.18
-81.69
-53.72
-26.23
-5.80
3.88
2.85
-5.87
-17.84
-28.62
-34.27
-31.35
-17.09
9.70
47.37
90.68
131.71
162.24
176.82
174.85
160.72
141.94
126.18
118.65
120.87
130.82
144.25
156.37
162.86
160.50
147.37
122.68
86.76
41.19
-11.16
-65.98
-118.13
-162.47
-195.05
-214.05
-220.13
-216.33
-207.01
-196.60
-188.22
-182.85
-179.50
-176.01
-170.31
-161.52
-150.26
-138.35
-128.08
-121.34
-118.82
-119.90
-122.77
-124.86
-123.27
-114.96
-97.66
-71.06
-37.48
-1.39
32.18
59.96
81.83
100.64
120.52
144.59
173.53
205.59
237.72
266.80
290.26
305.91
311.76
306.28
289.23
262.33
229.41
195.23
163.84
137.39
116.04
98.38
82.71
67.86
53.34
39.24
25.69
12.58
-0.47
-13.99
-28.41
-43.60
-58.74
-72.14
-81.45
-84.09
-78.00
-62.38
-38.31
-8.75
22.29
50.77
73.83
90.17
99.84
103.59
102.21
96.26
86.33
73.25
58.41
43.58
30.44
20.11
12.85
8.19
5.12
2.62
-0.15
-3.60
-7.78
-12.44
-17.21
-21.81
-26.17
-30.45
-34.98
-40.24
-46.72
-54.84
-64.68
-75.62
-86.14
-93.71
-95.35
-88.47
-71.90
-46.62
-15.67
16.59
45.87
69.04
84.78
93.31
95.72
93.24
86.87
77.50
66.11
53.99
42.39
32.26
23.82
16.74
10.51
4.91
0.26
-2.91
-4.27
-4.05
-3.07
-2.37
-2.74
-4.50
-7.64
-12.06
-17.91
-25.51
-35.13
-46.63
-59.14
-71.01
-80.00
-83.74
-80.21
-68.43
-48.88
-23.64
3.97
30.17
51.72
66.57
74.15
75.17
70.97
63.05
52.79
41.36
29.89
19.50
11.15
5.26
1.39
-1.80
-6.18
-13.35
-23.87
-36.91
-50.45
-61.99
-69.54
-72.21
-70.35
-65.11
-57.78
-49.42
-40.92
-33.35
-28.20
-27.19
-31.35
-40.17
-51.06
-59.86
-62.30
-55.64
-39.81
-17.43
7.38
30.70
49.95
64.32
74.19
80.26
82.94
82.31
78.43
71.81
63.54
55.05
47.60
41.93
37.99
35.14
32.51
29.35
25.25
20.20
14.44
8.27
2.06
-3.90
-9.34
-14.09
-18.11
-21.65
-25.21
-29.48
-35.10
-42.41
-51.12
-60.23
-67.97
-72.10
-70.52
-61.88
-46.22
-25.08
-1.18
22.32
42.67
58.16
68.21
73.21
74.02
71.63
66.92
60.74
53.84
46.99
40.79
35.58
31.43
28.14
25.51
23.35
21.58
20.06
18.55
16.53
13.47
8.94
2.95
-4.04
-11.22
-17.73
-23.04
-27.10
-30.43
-33.82
-38.16
-44.11
-51.85
-60.79
-69.47
-75.72
-77.13
-71.80
-59.19
-40.42
-18.18
4.12
23.40
37.69
46.49
50.50
50.98
49.24
46.32
42.96
39.76
37.14
35.33
34.26
33.57
32.75
31.37
29.29
26.62
23.70
20.80
18.07
15.37
12.34
8.60
3.83
-1.97
-8.56
-15.39
-21.89
-27.66
-32.62
-37.13
-41.83
-47.45
-54.39
-62.42
-70.43
-76.48
-78.31
-73.94
-62.48
-44.43
-21.74
2.77
26.11
45.82
60.36
69.10
72.13
70.04
63.79
54.64
44.04
33.49
24.26
17.13
12.32
9.50
8.04
7.30
6.76
6.15
5.35
4.25
2.62
0.18
-3.30
-7.88
-13.37
-19.37
-25.36
-30.95
-35.99
-40.64
-45.35
-50.67
-56.97
-64.11
-71.20
-76.55
-78.03
-73.67
-62.35
-44.39
-21.59
3.26
27.13
47.50
62.94
72.98
77.92
78.40
75.15
68.97
60.84
52.01
43.76
37.19
32.84
30.55
29.57
28.83
27.41
24.89
21.38
17.37
13.39
9.70
6.13
2.22
-2.53
-8.35
-15.05
-21.94
-28.15
-32.87
-35.82
-37.29
-38.19
-39.71
-42.86
-48.07
-54.79
-61.34
-65.20
-63.66
-54.59
-37.28
-12.75
16.51
47.15
75.93
100.53
119.81
133.64
142.47
146.91
147.52
144.99
140.27
134.64
129.62
126.51
125.99
127.87
131.17
134.39
135.92
134.44
129.08
119.42
105.53
87.80
66.87
43.36
17.71
-9.96
-39.69
-71.32
-104.18
-136.89
-167.58
-194.29
-215.45
-230.04
-237.50
-237.61
-230.45
-216.54
-196.95
-173.21
-147.06
-120.16
-93.94
-69.69
-48.76
-32.58
-22.40
-18.86
-21.68
-29.60
-40.77
-53.14
-64.79
-74.05
-79.52
-80.15
-75.48
-65.91
-52.70
-37.73
-22.89
-9.63
1.30
9.65
15.29
17.89
16.83
11.61
2.30
-10.06
-23.58
-36.21
-46.48
-54.13
-59.98
-65.50
-71.96
-79.95
-89.17
-98.52
-106.34
-110.64
-109.41
-101.23
-86.13
-66.32
-45.92
-29.82
-21.49
-21.20
-25.38
-27.92
-22.71
-6.45
19.91
51.61
82.25
106.48
121.68
128.17
127.90
122.81
113.92
101.41
85.58
67.69
50.28
36.41
28.48
27.23
31.42
38.61
46.23
52.54
57.05
60.34
63.53
67.76
73.82
81.90
91.48
101.06
108.31
110.51
105.46
92.31
72.26
48.23
24.00
2.94
-12.96
-23.41
-29.41
-32.44
-33.86
-34.59
-35.33
-36.80
-39.77
-44.67
-51.20
-57.99
-62.85
-63.54
-58.65
-48.30
-34.18
-18.82
-4.79
6.22
13.58
17.59
19.01
18.68
17.46
16.10
15.32
15.60
17.14
19.74
22.95
26.17
28.92
30.98
32.25
32.80
32.70
31.95
30.44
27.94
24.18
19.05
12.69
5.55
-1.75
-8.60
-14.62
-19.67
-23.91
-27.75
-31.69
-36.22
-41.61
-47.70
-53.73
-58.35
-59.86
-56.70
-47.97
-33.91
-15.86
3.97
23.20
39.86
52.77
61.61
66.73
68.70
68.12
65.45
61.08
55.51
49.39
43.42
38.15
33.88
30.58
28.02
25.91
24.03
22.23
20.40
18.41
16.12
13.38
10.06
5.98
1.03
-4.90
-11.73
-19.21
-26.83
-33.96
-40.02
-44.77
-48.39
-51.47
-54.86
-59.37
-65.47
-73.04
-81.18
-88.32
-92.47
-91.61
-84.33
-70.26
-50.36
-26.80
-2.42
19.93
38.13
51.18
59.24
63.29
64.65
64.45
63.40
61.81
59.67
56.98
53.83
50.43
47.03
43.83
40.85
37.95
34.91
31.50
27.64
23.41
18.97
14.52
10.15
5.83
1.47
-3.05
-7.77
-12.58
-17.32
-21.78
-25.84
-29.53
-32.98
-36.35
-39.76
-43.24
-46.86
-50.70
-54.96
-59.63
-64.24
-67.61
-67.77
-62.51
-50.18
-30.60
-5.57
21.41
46.02
64.59
75.07
77.60
74.00
66.86
58.47
50.27
42.80
35.90
28.98
20.84
9.44
-8.00
-34.19
-70.21
-114.10
-160.45
-201.69
-230.61
-242.77
-237.63
-217.88
-187.66
-150.63
-109.02
-64.06
-17.05
29.81
73.93
113.52
148.70
181.02
212.18
242.20
268.48
286.55
291.69
281.40
256.64
221.97
183.55
147.46
118.21
98.13
87.59
85.00
88.11
94.77
103.88
114.16
124.36
133.14
139.43
142.45
140.85
134.02
122.45
108.88
95.22
82.75
71.68
61.66
51.60
38.01
17.68
-10.97
-45.13
-81.89
-117.98
-151.28
-180.98
-208.16
-237.49
-272.70
-314.30
-356.37
-393.38
-420.78
-437.59
-445.72
-436.56
-406.28
-356.26
-310.23
-275.51
-253.00
-234.31
-214.30
-188.11
-151.50
-104.46
-48.87
11.02
72.51
124.82
157.42
165.93
155.00
137.58
118.81
100.57
84.34
74.67
73.62
83.51
104.30
133.23
164.63
189.88
202.55
200.47
187.28
168.37
149.80
135.36
125.75
118.79
110.27
97.57
80.51
61.38
42.43
25.61
11.54
-0.08
-10.10
-19.72
-29.14
-37.77
-44.46
-48.40
-48.90
-45.73
-39.01
-29.24
-17.38
-4.39
8.63
20.42
29.70
35.52
37.37
35.11
28.91
19.20
6.72
-7.43
-21.96
-35.67
-47.62
-57.38
-64.98
-70.60
-74.23
-75.42
-73.41
-67.52
-57.65
-44.56
-29.81
-15.42
-3.35
4.89
8.52
7.54
2.73
-4.63
-12.93
-20.59
-26.34
-29.54
-30.36
-29.70
-28.88
-29.06
-30.74
-33.39
-35.48
-35.00
-30.24
-20.47
-6.29
10.57
27.83
43.39
55.75
64.33
69.19
70.80
69.72
66.46
61.45
55.17
48.22
41.28
35.06
30.04
26.42
24.03
22.37
20.86
19.06
16.83
14.27
11.71
9.38
7.28
5.15
2.55
-0.86
-5.18
-10.07
-14.92
-19.02
-21.92
-23.58
-24.37
-25.06
-26.51
-29.50
-34.39
-40.88
-47.98
-54.02
-57.05
-55.29
-47.81
-34.85
-17.89
0.71
18.45
33.25
43.97
50.37
52.89
52.22
49.06
44.05
37.84
31.24
25.12
20.31
17.19
15.66
15.15
14.91
14.35
13.33
12.07
10.95
10.23
9.73
8.91
7.11
3.83
-0.93
-6.70
-12.65
-17.89
-21.84
-24.39
-25.90
-27.08
-28.79
-31.77
-36.37
-42.33
-48.65
-53.71
-55.59
-52.62
-43.99
-30.12
-12.67
5.87
22.91
36.48
45.64
50.47
51.76
50.51
47.60
43.69
39.25
34.76
30.73
27.61
25.65
24.79
24.59
24.47
23.89
22.49
20.19
17.20
13.81
10.33
6.91
3.46
-0.28
-4.63
-9.71
-15.36
-21.05
-26.12
-30.02
-32.63
-34.35
-36.00
-38.53
-42.66
-48.58
-55.79
-63.12
-68.81
-70.97
-67.94
-58.89
-44.18
-25.42
-5.08
14.17
30.17
41.79
49.03
52.65
53.73
53.18
51.58
49.23
46.32
43.04
39.70
36.60
33.98
31.90
30.22
28.70
27.09
25.23
23.05
20.56
17.81
14.81
11.53
7.93
3.97
-0.33
-4.91
-9.68
-14.51
-19.21
-23.58
-27.42
-30.64
-33.33
-35.75
-38.32
-41.49
-45.61
-50.76
-56.68
-62.61
-67.26
-69.00
-66.22
-57.82
-43.69
-25.01
-3.97
16.66
34.41
47.66
55.94
59.76
60.19
58.41
55.34
51.68
47.85
44.16
40.87
38.09
35.82
33.91
32.16
30.45
28.75
27.17
25.77
24.55
23.27
21.58
19.14
15.76
11.54
6.86
2.26
-1.88
-5.36
-8.32
-11.17
-14.32
-18.07
-22.45
-27.17
-31.77
-35.86
-39.25
-42.12
-44.92
-48.24
-52.46
-57.50
-62.60
-66.37
-67.18
-63.49
-54.44
-40.29
-22.40
-3.03
15.29
30.44
41.23
47.56
50.19
50.24
48.67
46.07
42.69
38.63
34.13
29.64
25.72
22.82
21.12
20.47
20.45
20.60
20.50
19.91
18.80
17.22
15.30
13.03
10.29
6.86
2.58
-2.59
-8.36
-14.30
-19.89
-24.71
-28.60
-31.67
-34.21
-36.63
-39.39
-42.87
-47.26
-52.42
-57.67
-61.80
-63.21
-60.38
-52.36
-39.23
-22.27
-3.62
14.29
29.41
40.58
47.65
51.15
51.91
50.63
47.74
43.58
38.55
33.23
28.29
24.33
21.54
19.64
18.11
16.43
14.33
11.93
9.59
7.65
6.20
4.97
3.36
0.75
-3.31
-8.81
-15.29
-21.94
-27.83
-32.31
-35.11
-36.55
-37.38
-38.62
-41.18
-45.57
-51.60
-58.26
-63.85
-66.32
-63.86
-55.50
-41.53
-23.57
-4.14
14.03
28.82
39.23
45.37
48.13
48.55
47.45
45.29
42.33
38.89
35.41
32.41
30.26
29.05
28.49
28.18
27.67
26.73
25.28
23.39
21.15
18.62
15.85
12.79
9.37
5.43
0.80
-4.58
-10.53
-16.63
-22.29
-26.97
-30.38
-32.64
-34.23
-35.84
-38.15
-41.68
-46.53
-52.36
-58.18
-62.54
-63.70
-60.08
-50.82
-36.26
-17.99
1.45
19.27
33.32
42.59
47.32
48.64
47.97
46.43
44.61
42.65
40.45
38.01
35.49
33.18
31.32
29.99
29.06
28.27
27.39
26.17
24.43
22.02
18.90
15.10
10.76
6.14
1.45
-3.11
-7.50
-11.70
-15.72
-19.52
-23.04
-26.22
-29.13
-31.91
-34.78
-38.03
-41.85
-46.34
-51.43
-56.72
-61.36
-64.11
-63.51
-58.29
-47.90
-32.83
-14.68
4.19
21.35
34.91
44.01
48.78
50.06
48.90
46.25
42.77
38.89
35.02
31.52
28.78
27.00
26.12
25.79
25.53
24.88
23.56
21.54
19.02
16.27
13.48
10.65
7.55
3.82
-0.79
-6.32
-12.41
-18.50
-23.89
-28.13
-31.11
-33.13
-34.77
-36.70
-39.45
-43.36
-48.39
-54.07
-59.43
-63.06
-63.31
-58.72
-48.58
-33.35
-14.75
4.65
22.15
35.75
44.56
48.89
49.70
48.14
45.05
40.96
36.21
31.24
26.68
23.25
21.43
21.18
21.98
22.97
23.30
22.48
20.49
17.67
14.44
11.08
7.57
3.70
-0.79
-5.98
-11.68
-17.42
-22.62
-26.79
-29.72
-31.59
-32.95
-34.62
-37.43
-41.86
-47.85
-54.63
-60.72
-64.26
-63.40
-56.85
-44.36
-26.96
-6.82
13.21
30.44
43.07
50.56
53.54
53.31
51.26
48.28
44.86
41.11
37.17
33.34
30.07
27.75
26.44
25.91
25.59
24.99
23.75
21.81
19.43
16.88
14.33
11.73
8.82
5.18
0.60
-4.92
-11.04
-17.18
-22.76
-27.27
-30.54
-32.72
-34.33
-36.11
-38.78
-42.91
-48.64
-55.52
-62.45
-67.78
-69.61
-66.27
-56.82
-41.46
-21.68
-0.01
20.59
37.55
49.35
55.79
57.79
56.80
54.20
50.86
47.21
43.35
39.46
35.84
32.89
30.93
30.01
29.93
30.26
30.57
30.43
29.58
27.90
25.40
22.20
18.46
14.34
9.91
5.19
0.19
-5.09
-10.57
-16.15
-21.69
-26.98
-31.77
-35.89
-39.29
-42.15
-44.91
-48.09
-52.17
-57.21
-62.69
-67.45
-69.82
-68.09
-60.96
-48.04
-30.18
-9.37
11.66
30.13
44.01
52.48
56.00
55.80
53.39
49.98
46.21
42.32
38.39
34.58
31.19
28.55
26.76
25.64
24.82
23.87
22.53
20.75
18.71
16.62
14.59
12.56
10.24
7.22
3.17
-2.01
-8.10
-14.56
-20.66
-25.77
-29.55
-32.16
-34.17
-36.34
-39.35
-43.57
-48.87
-54.69
-60.06
-63.70
-64.23
-60.40
-51.47
-37.62
-20.10
-1.11
16.77
31.34
41.37
46.77
48.38
47.35
44.68
41.04
36.83
32.44
28.36
25.13
23.11
22.25
22.15
22.13
21.61
20.31
18.25
15.70
12.96
10.10
7.05
3.52
-0.73
-5.82
-11.53
-17.43
-22.87
-27.30
-30.45
-32.51
-34.06
-35.94
-38.93
-43.41
-49.20
-55.40
-60.52
-62.71
-60.32
-52.30
-38.71
-20.83
-1.01
18.03
33.87
45.07
51.41
53.58
52.74
50.00
46.18
41.74
37.04
32.48
28.48
25.45
23.51
22.50
22.00
21.59
20.90
19.78
18.26
16.46
14.56
12.64
10.58
8.13
4.89
0.50
-5.17
-11.88
-19.05
-25.88
-31.69
-36.14
-39.35
-41.82
-44.29
-47.42
-51.58
-56.74
-62.27
-67.08
-69.63
-68.28
-61.69
-49.34
-31.87
-11.13
10.15
29.13
43.60
52.57
56.37
56.30
54.01
50.87
47.69
44.68
41.77
38.83
35.93
33.29
31.18
29.72
28.83
28.23
27.55
26.43
24.66
22.16
19.01
15.41
11.60
7.79
4.10
0.48
-3.23
-7.20
-11.60
-16.43
-21.53
-26.63
-31.40
-35.59
-39.09
-41.95
-44.44
-47.02
-50.12
-54.00
-58.37
-62.28
-64.22
-62.43
-55.51
-43.00
-25.68
-5.57
14.65
32.34
45.68
54.02
57.83
58.28
56.62
53.85
50.52
46.91
43.23
39.76
36.82
34.56
32.97
31.82
30.87
29.95
29.09
28.33
27.68
27.00
26.07
24.68
22.69
20.13
17.19
14.08
11.01
8.05
5.13
2.06
-1.35
-5.18
-9.31
-13.45
-17.31
-20.81
-24.24
-28.24
-33.65
-41.04
-50.38
-60.78
-70.57
-77.66
-80.00
-76.18
-65.89
-50.27
-31.63
-13.07
2.50
13.16
18.46
19.37
17.63
14.96
12.46
10.54
9.22
8.47
8.50
9.49
11.34
13.50
15.10
15.34
13.90
11.05
7.54
4.28
1.93
0.78
0.65
1.03
1.16
0.32
-1.99
-5.86
-10.87
-16.22
-21.08
-25.03
-28.22
-31.30
-35.08
-40.14
-46.31
-52.70
-57.84
-60.05
-57.86
-50.41
-37.64
-20.43
-0.66
19.19
36.51
49.16
56.13
57.68
55.06
49.96
43.92
37.90
32.31
27.22
22.60
18.56
15.33
13.10
11.99
11.94
12.82
14.39
16.23
17.74
18.15
16.67
12.77
6.47
-1.59
-10.25
-18.20
-24.38
-28.31
-30.10
-30.45
-30.31
-30.67
-32.19
-35.00
-38.41
-40.91
-40.50
-35.22
-23.98
-7.12
13.46
34.79
53.70
67.86
76.26
79.21
77.86
73.51
67.18
59.57
51.33
43.19
35.97
30.27
26.13
22.94
19.74
15.77
10.88
5.47
0.16
-4.69
-9.22
-13.89
-19.16
-25.10
-31.31
-37.10
-41.81
-45.04
-46.83
-47.64
-48.27
-49.61
-52.26
-56.16
-60.32
-63.05
-62.40
-56.88
-46.12
-30.98
-13.34
4.45
20.25
32.53
40.69
45.05
46.62
46.73
46.60
46.92
47.80
48.89
49.79
50.25
50.33
50.09
49.39
47.81
44.79
40.01
33.66
26.48
19.46
13.38
8.44
4.18
-0.11
-4.91
-9.93
-14.20
-16.54
-16.38
-14.30
-11.95
-11.39
-14.02
-19.89
-27.65
-35.29
-41.11
-44.42
-45.60
-45.73
-45.94
-47.07
-49.57
-53.45
-58.27
-62.98
-66.01
-65.63
-60.64
-50.95
-37.79
-23.29
-9.71
1.33
9.20
14.18
16.92
18.12
18.29
17.85
17.21
16.87
17.25
18.51
20.55
22.99
25.37
27.27
28.39
28.68
28.26
27.45
26.56
25.86
25.33
24.72
23.63
21.70
18.82
15.22
11.35
7.63
4.28
1.16
-2.04
-5.62
-9.69
-14.08
-18.51
-22.69
-26.51
-30.05
-33.52
-37.18
-41.27
-45.92
-51.13
-56.64
-61.84
-65.72
-67.05
-64.70
-57.92
-46.69
-31.78
-14.59
3.14
19.69
33.67
44.23
51.07
54.45
54.98
53.46
50.68
47.27
43.72
40.33
37.27
34.63
32.42
30.57
29.03
27.76
26.76
26.08
25.70
25.48
25.15
24.34
22.71
20.08
16.54
12.46
8.37
4.78
2.00
-0.07
-1.78
-3.68
-6.29
-9.83
-14.23
-19.10
-23.95
-28.35
-32.09
-35.26
-38.10
-40.94
-43.94
-47.03
-49.83
-51.73
-51.95
-49.72
-44.46
-35.94
-24.43
-10.77
3.73
17.55
29.40
38.44
44.46
47.80
48.98
48.48
46.63
43.60
39.63
35.11
30.59
26.61
23.54
21.56
20.56
20.30
20.46
20.71
20.68
20.03
18.51
16.07
12.83
9.11
5.32
1.77
-1.37
-4.17
-6.88
-9.75
-13.01
-16.70
-20.68
-24.63
-28.22
-31.20
-33.54
-35.51
-37.50
-39.84
-42.59
-45.39
-47.44
-47.75
-45.34
-39.56
-30.31
-18.15
-4.24
9.90
22.74
33.07
40.21
44.13
45.29
44.37
42.05
38.88
35.28
31.58
28.11
25.08
22.69
20.96
19.78
18.90
18.02
16.90
15.40
13.52
11.30
8.86
6.21
3.32
0.10
-3.56
-7.64
-12.05
-16.54
-20.90
-24.87
-28.33
-31.21
-33.59
-35.67
-37.73
-40.01
-42.56
-45.10
-46.93
-47.16
-44.89
-39.51
-30.95
-19.75
-6.93
6.25
18.49
28.80
36.49
41.21
43.02
42.21
39.37
35.20
30.46
25.77
21.59
18.14
15.42
13.32
11.68
10.35
9.16
7.99
6.73
5.34
3.79
2.00
-0.11
-2.72
-5.93
-9.71
-13.80
-17.84
-21.44
-24.40
-26.83
-28.98
-31.30
-34.14
-37.57
-41.31
-44.68
-46.73
-46.51
-43.27
-36.70
-27.04
-15.07
-1.97
10.95
22.41
31.48
37.62
40.72
41.06
39.16
35.68
31.31
26.70
22.35
18.67
15.89
14.07
13.12
12.78
12.71
12.59
12.07
10.90
8.88
5.91
1.94
-2.92
-8.43
-14.15
-19.53
-24.05
-27.40
-29.61
-31.12
-32.68
-35.06
-38.81
-43.87
-49.48
-54.24
-56.45
-54.63
-48.03
-36.89
-22.35
-6.22
9.60
23.46
34.31
41.70
45.74
46.81
45.50
42.43
38.20
33.35
28.37
23.70
19.63
16.29
13.69
11.65
9.97
8.45
6.96
5.42
3.78
1.92
-0.29
-2.91
-5.96
-9.30
-12.67
-15.79
-18.47
-20.68
-22.59
-24.59
-27.09
-30.45
-34.70
-39.41
-43.69
-46.32
-46.11
-42.23
-34.50
-23.42
-10.15
3.85
17.08
28.30
36.80
42.30
44.99
45.33
43.94
41.39
38.17
34.75
31.44
28.54
26.23
24.48
23.16
22.02
20.88
19.61
18.19
16.54
14.52
11.84
8.21
3.50
-2.14
-8.22
-14.09
-19.17
-23.13
-26.02
-28.23
-30.37
-32.98
-36.39
-40.48
-44.64
-47.89
-49.10
-47.23
-41.72
-32.60
-20.53
-6.65
7.62
20.93
32.17
40.61
45.97
48.35
48.18
46.09
42.78
38.95
35.14
31.78
29.06
26.96
25.29
23.79
22.25
20.56
18.76
16.94
15.16
13.37
11.44
9.18
6.42
3.09
-0.87
-5.40
-10.38
-15.49
-20.35
-24.52
-27.77
-30.21
-32.30
-34.72
-38.03
-42.29
-46.95
-50.88
-52.76
-51.44
-46.30
-37.44
-25.63
-12.07
1.82
14.70
25.56
33.77
39.11
41.80
42.29
41.21
39.16
36.65
34.01
31.41
28.97
26.78
24.96
23.59
22.66
22.01
21.34
20.38
18.92
16.95
14.56
11.85
8.89
5.60
1.90
-2.28
-6.88
-11.67
-16.28
-20.36
-23.66
-26.18
-28.17
-30.07
-32.41
-35.60
-39.68
-44.28
-48.55
-51.35
-51.48
-48.03
-40.68
-29.81
-16.53
-2.35
11.13
22.64
31.42
37.29
40.45
41.31
40.32
37.88
34.47
30.57
26.75
23.55
21.27
19.91
19.17
18.65
17.96
16.96
15.65
14.11
12.41
10.41
7.88
4.54
0.34
-4.59
-9.83
-14.87
-19.24
-22.68
-25.19
-27.08
-28.79
-30.84
-33.65
-37.32
-41.57
-45.68
-48.61
-49.22
-46.52
-40.02
-29.84
-16.85
-2.45
11.69
24.03
33.57
39.90
43.23
44.04
42.95
40.49
37.12
33.32
29.61
26.55
24.53
23.66
23.69
24.11
24.37
24.03
22.91
21.00
18.45
15.37
11.84
7.89
3.52
-1.21
-6.22
-11.33
-16.34
-21.01
-25.08
-28.39
-30.87
-32.66
-34.08
-35.61
-37.76
-40.87
-44.96
-49.57
-53.78
-56.33
-55.95
-51.65
-43.12
-30.89
-16.25
-0.96
13.24
25.08
33.99
40.03
43.73
45.65
46.27
45.80
44.36
42.11
39.38
36.59
34.11
32.14
30.65
29.39
28.08
26.48
24.49
22.16
19.53
16.67
13.61
10.31
6.73
2.90
-1.16
-5.37
-9.61
-13.75
-17.64
-21.12
-24.13
-26.75
-29.14
-31.61
-34.50
-38.07
-42.34
-47.00
-51.44
-54.71
-55.77
-53.64
-47.74
-38.00
-25.08
-10.21
5.00
18.94
30.37
38.63
43.70
46.01
46.27
45.16
43.27
40.99
38.60
36.29
34.19
32.33
30.66
29.15
27.73
26.41
25.15
23.88
22.40
20.51
17.94
14.61
10.57
6.05
1.37
-3.14
-7.30
-11.01
-14.30
-17.23
-19.90
-22.36
-24.65
-26.78
-28.79
-30.84
-33.12
-35.90
-39.36
-43.44
-47.69
-51.28
-53.11
-52.11
-47.56
-39.31
-27.91
-14.47
-0.42
12.84
24.15
32.81
38.60
41.72
42.63
41.90
40.11
37.74
35.17
32.63
30.28
28.21
26.46
25.07
24.02
23.21
22.51
21.68
20.50
18.81
16.55
13.75
10.50
6.92
3.08
-0.95
-5.07
-9.19
-13.21
-17.01
-20.58
-23.87
-26.89
-29.65
-32.21
-34.74
-37.49
-40.63
-44.21
-48.00
-51.41
-53.66
-53.89
-51.39
-45.83
-37.30
-26.26
-13.52
-0.10
12.92
24.50
33.78
40.26
43.85
44.83
43.75
41.23
37.86
34.12
30.39
26.96
24.04
21.70
19.93
18.65
17.72
17.02
16.44
15.80
14.88
13.38
11.01
7.59
3.16
-2.03
-7.51
-12.77
-17.31
-20.85
-23.39
-25.25
-26.99
-29.17
-32.21
-36.12
-40.45
-44.40
-46.92
-47.04
-44.08
-37.81
-28.49
-16.89
-4.12
8.58
20.00
29.23
35.75
39.45
40.59
39.63
37.14
33.74
29.97
26.28
22.94
20.09
17.73
15.80
14.21
12.92
11.89
11.03
10.19
9.13
7.60
5.40
2.41
-1.30
-5.53
-9.97
-14.29
-18.25
-21.70
-24.66
-27.23
-29.64
-32.09
-34.76
-37.71
-40.81
-43.70
-45.81
-46.43
-44.86
-40.60
-33.50
-23.86
-12.41
-0.25
11.44
21.52
29.25
34.43
37.30
38.43
38.36
37.45
35.85
33.60
30.76
27.59
24.43
21.60
19.28
17.42
15.85
14.44
13.08
11.72
10.22
8.39
6.02
2.98
-0.74
-4.90
-9.11
-12.96
-16.11
-18.47
-20.22
-21.78
-23.75
-26.67
-30.86
-36.14
-41.81
-46.73
-49.64
-49.47
-45.66
-38.29
-28.04
-15.98
-3.33
8.73
19.30
27.82
34.02
37.93
39.72
39.69
38.22
35.75
32.76
29.70
26.92
24.56
22.58
20.82
19.15
17.50
15.86
14.27
12.67
10.98
9.06
6.80
4.16
1.15
-2.17
-5.71
-9.32
-12.87
-16.20
-19.32
-22.39
-25.73
-29.76
-34.74
-40.50
-46.33
-51.05
-53.24
-51.81
-46.21
-36.65
-24.11
-9.99
4.20
17.08
27.69
35.52
40.41
42.55
42.42
40.57
37.62
34.13
30.54
27.17
24.21
21.75
19.76
18.14
16.73
15.36
13.85
12.10
10.02
7.53
4.51
0.91
-3.27
-7.90
-12.67
-17.21
-21.13
-24.22
-26.49
-28.24
-29.93
-32.08
-35.02
-38.72
-42.72
-46.20
-48.12
-47.57
-43.88
-36.85
-26.78
-14.48
-1.10
11.99
23.45
32.26
37.85
40.28
40.07
38.03
34.98
31.56
28.17
24.99
22.13
19.59
17.41
15.57
13.97
12.52
11.05
9.36
7.26
4.56
1.13
-3.00
-7.68
-12.62
-17.40
-21.66
-25.22
-28.13
-30.72
-33.45
-36.61
-40.20
-43.77
-46.55
-47.58
-46.04
-41.32
-33.27
-22.22
-8.98
5.14
18.55
29.73
37.58
41.64
42.27
40.36
37.00
33.13
29.35
25.90
22.87
20.23
18.02
16.27
14.94
13.92
13.00
11.93
10.39
8.12
4.90
0.71
-4.28
-9.68
-14.97
-19.64
-23.36
-26.12
-28.22
-30.22
-32.71
-36.14
-40.53
-45.38
-49.66
-52.01
-51.13
-46.12
-36.89
-24.19
-9.48
5.45
18.95
29.87
37.70
42.58
45.05
45.69
45.06
43.54
41.39
38.82
36.05
33.26
30.61
28.15
25.87
23.71
21.63
19.59
17.52
15.29
12.66
9.35
5.15
0.03
-5.81
-11.90
-17.69
-22.64
-26.50
-29.37
-31.71
-34.22
-37.49
-41.78
-46.81
-51.73
-55.28
-56.11
-53.04
-45.53
-33.81
-18.98
-2.78
12.81
26.04
35.88
42.17
45.46
46.65
46.60
45.82
44.50
42.68
40.43
37.99
35.63
33.59
31.93
30.58
29.34
28.02
26.43
24.44
21.94
18.92
15.39
11.47
7.27
2.88
-1.73
-6.57
-11.58
-16.52
-21.04
-24.83
-27.79
-30.22
-32.69
-35.83
-40.05
-45.30
-50.98
-56.08
-59.38
-59.74
-56.27
-48.59
-36.95
-22.27
-6.06
9.97
24.16
35.40
43.26
47.90
49.95
50.14
49.12
47.39
45.25
42.89
40.48
38.15
35.98
33.99
32.14
30.36
28.55
26.58
24.38
21.92
19.20
16.28
13.16
9.88
6.43
2.82
-0.95
-4.85
-8.86
-12.96
-17.17
-21.41
-25.56
-29.45
-32.92
-35.93
-38.57
-41.15
-43.99
-47.28
-50.90
-54.33
-56.65
-56.81
-53.84
-47.15
-36.82
-23.59
-8.77
5.98
19.17
29.69
37.08
41.47
43.33
43.25
41.75
39.32
36.34
33.24
30.41
28.17
26.59
25.50
24.58
23.45
21.89
19.83
17.40
14.80
12.17
9.51
6.69
3.53
-0.10
-4.19
-8.55
-12.88
-16.83
-20.24
-23.09
-25.55
-27.93
-30.54
-33.63
-37.34
-41.57
-45.91
-49.66
-51.86
-51.49
-47.76
-40.36
-29.59
-16.47
-2.42
11.00
22.50
31.24
36.97
39.86
40.38
39.15
36.72
33.62
30.31
27.17
24.49
22.44
21.02
20.11
19.50
18.92
18.15
17.03
15.44
13.36
10.70
7.40
3.36
-1.39
-6.71
-12.21
-17.40
-21.83
-25.23
-27.67
-29.54
-31.46
-33.99
-37.52
-41.96
-46.76
-50.96
-53.28
-52.54
-47.89
-39.18
-26.92
-12.40
2.74
16.78
28.38
36.81
41.94
44.18
44.16
42.56
39.93
36.72
33.33
30.12
27.40
25.30
23.75
22.47
21.13
19.46
17.40
15.05
12.58
10.15
7.71
5.11
2.12
-1.46
-5.70
-10.47
-15.45
-20.21
-24.34
-27.61
-30.05
-31.99
-34.05
-36.77
-40.48
-44.97
-49.43
-52.57
-53.00
-49.63
-42.03
-30.65
-16.69
-1.86
12.14
24.00
33.00
39.05
42.48
43.80
43.51
42.04
39.76
37.02
34.19
31.55
29.23
27.16
25.19
23.18
21.11
19.08
17.20
15.50
13.83
11.93
9.53
6.51
2.85
-1.31
-5.75
-10.21
-14.40
-18.10
-21.20
-23.79
-26.17
-28.82
-32.20
-36.50
-41.49
-46.44
-50.32
-51.96
-50.42
-45.23
-36.45
-24.78
-11.33
2.54
15.49
26.43
34.67
39.99
42.59
42.94
41.65
39.31
36.43
33.39
30.47
27.86
25.60
23.65
21.88
20.14
18.36
16.51
14.64
12.79
10.94
8.99
6.72
3.88
0.31
-4.03
-8.96
-14.13
-19.03
-23.22
-26.47
-28.86
-30.81
-32.92
-35.70
-39.32
-43.43
-47.20
-49.57
-49.54
-46.41
-39.99
-30.58
-18.94
-6.12
6.65
18.21
27.57
34.18
37.90
39.06
38.25
36.15
33.36
30.34
27.34
24.50
21.90
19.58
17.55
15.80
14.30
12.98
11.76
10.50
9.00
7.02
4.33
0.80
-3.46
-8.12
-12.72
-16.76
-20.05
-22.65
-24.96
-27.46
-30.47
-34.01
-37.73
-41.07
-43.28
-43.65
-41.55
-36.52
-28.52
-17.91
-5.64
6.92
18.30
27.34
33.43
36.61
37.40
36.50
34.55
32.02
29.18
26.33
23.69
21.50
19.81
18.55
17.44
16.23
14.77
13.04
11.16
9.19
7.10
4.71
1.76
-1.96
-6.46
-11.50
-16.64
-21.35
-25.24
-28.20
-30.46
-32.58
-35.25
-39.03
-44.06
-49.94
-55.60
-59.53
-60.11
-56.09
-47.10
-33.85
-18.00
-1.76
12.81
24.34
32.42
37.43
40.16
41.39
41.61
41.05
39.76
37.85
35.53
33.06
30.63
28.35
26.20
24.17
22.27
20.53
19.02
17.71
16.53
15.28
13.69
11.44
8.28
4.09
-1.00
-6.63
-12.27
-17.35
-21.50
-24.68
-27.18
-29.58
-32.49
-36.34
-41.13
-46.36
-51.03
-53.91
-53.76
-49.70
-41.44
-29.49
-15.08
0.05
14.13
25.79
34.34
39.86
42.98
44.48
45.01
44.88
44.11
42.66
40.60
38.15
35.60
33.23
31.10
29.17
27.30
25.33
23.17
20.83
18.37
15.87
13.35
10.67
7.65
4.12
0.00
-4.61
-9.46
-14.23
-18.63
-22.54
-26.00
-29.18
-32.32
-35.66
-39.37
-43.51
-47.94
-52.24
-55.71
-57.47
-56.58
-52.30
-44.37
-33.13
-19.57
-5.09
8.79
20.79
30.13
36.58
40.33
41.81
41.53
39.93
37.41
34.40
31.31
28.53
26.29
24.62
23.37
22.31
21.20
19.87
18.23
16.29
14.08
11.64
9.00
6.13
2.99
-0.48
-4.33
-8.49
-12.73
-16.77
-20.36
-23.39
-25.97
-28.44
-31.21
-34.60
-38.64
-43.01
-47.04
-49.75
-50.17
-47.45
-41.11
-31.24
-18.55
-4.28
9.95
22.55
32.30
38.53
41.25
41.00
38.69
35.21
31.35
27.59
24.19
21.29
18.91
17.04
15.58
14.43
13.41
12.39
11.21
9.73
7.83
5.35
2.20
-1.59
-5.83
-10.22
-14.42
-18.17
-21.34
-23.98
-26.27
-28.51
-31.04
-34.11
-37.74
-41.58
-44.87
-46.55
-45.51
-40.96
-32.73
-21.34
-7.98
5.84
18.58
29.01
36.40
40.61
41.96
41.14
38.90
35.96
32.86
29.97
27.44
25.29
23.45
21.81
20.27
18.74
17.20
15.65
14.05
12.30
10.18
7.43
3.87
-0.55
-5.71
-11.28
-16.81
-21.82
-25.94
-29.10
-31.53
-33.75
-36.42
-40.02
-44.63
-49.76
-54.42
-57.33
-57.26
-53.35
-45.37
-33.74
-19.56
-4.30
10.40
23.11
32.92
39.48
43.07
44.27
43.76
42.16
39.92
37.36
34.73
32.23
29.98
27.99
26.16
24.30
22.25
19.97
17.50
14.99
12.56
10.21
7.78
5.00
1.58
-2.59
-7.40
-12.51
-17.44
-21.72
-25.15
-27.80
-30.02
-32.38
-35.39
-39.35
-44.14
-49.12
-53.25
-55.22
-53.83
-48.28
-38.54
-25.37
-10.22
5.06
18.79
29.78
37.55
42.31
44.68
45.37
44.97
43.88
42.28
40.29
38.02
35.60
33.19
30.89
28.79
26.91
25.19
23.46
21.51
19.17
16.36
13.18
9.80
6.40
3.03
-0.41
-4.08
-8.11
-12.46
-16.93
-21.20
-25.03
-28.34
-31.30
-34.22
-37.47
-41.27
-45.51
-49.80
-53.36
-55.28
-54.61
-50.67
-43.21
-32.54
-19.49
-5.28
8.74
21.37
31.71
39.34
44.28
46.84
47.46
46.62
44.78
42.31
39.59
36.92
34.54
32.56
30.95
29.51
28.02
26.26
24.09
21.51
18.62
15.47
12.13
8.56
4.70
0.48
-4.09
-8.89
-13.69
-18.16
-22.08
-25.28
-27.79
-29.75
-31.44
-33.20
-35.33
-38.07
-41.46
-45.23
-48.75
-51.00
-50.80
-47.10
-39.45
-28.18
-14.41
0.17
13.78
25.00
33.03
37.82
39.91
40.11
39.24
37.94
36.57
35.12
33.50
31.61
29.56
27.60
26.04
25.08
24.73
24.68
24.35
23.16
20.83
17.67
14.27
11.24
8.97
7.48
6.30
4.66
1.88
-2.00
-6.14
-9.37
-10.87
-10.54
-8.88
-6.83
-5.53
-5.66
-6.88
-7.81
-6.49
-1.08
9.78
26.57
47.87
69.52
85.12
87.86
72.95
39.24
-10.36
-69.78
-129.26
-176.59
-201.89
-202.47
-183.54
-153.69
-120.02
-86.50
-54.85
-26.07
-1.43
17.33
29.05
34.04
34.50
33.43
33.33
35.42
39.65
44.84
49.16
51.18
50.50
48.13
45.80
45.05
46.65
50.68
56.59
63.28
69.94
76.04
81.67
87.15
92.58
97.36
100.48
100.72
96.94
88.56
75.43
58.19
38.36
17.46
-3.10
-22.05
-38.26
-52.40
-63.31
-70.21
-72.43
-69.71
-62.95
-53.13
-41.24
-28.07
-14.29
0.01
14.79
30.32
46.88
63.53
79.40
93.53
104.99
112.45
115.23
113.07
106.66
96.72
82.97
65.89
46.58
26.73
7.17
-10.89
-26.17
-37.39
-39.21
-31.63
-16.82
2.34
22.75
39.60
50.07
54.00
54.98
53.97
49.44
39.77
24.50
3.98
-24.23
-60.17
-100.62
-137.76
-169.16
-196.33
-222.22
-249.32
-280.86
-324.64
-384.37
-456.37
-526.35
-582.81
-617.03
-624.41
-605.07
-536.17
-418.89
-275.53
-162.28
-86.72
-42.06
-12.58
9.44
29.49
51.05
73.05
97.31
128.01
171.55
224.43
272.11
299.02
304.51
295.09
274.53
244.23
207.91
172.96
142.24
118.45
104.91
103.60
112.07
119.89
115.63
93.39
57.14
14.02
-26.65
-57.74
-76.28
-85.32
-91.21
-97.87
-105.51
-111.48
-114.39
-112.19
-103.90
-89.80
-71.57
-52.13
-32.37
-10.88
14.98
47.00
88.38
140.46
201.84
268.14
333.82
394.16
445.92
486.94
498.18
468.07
396.70
296.54
185.03
76.57
-20.52
-103.17
-171.44
-226.62
-267.83
-294.88
-309.19
-314.46
-314.68
-312.79
-310.48
-308.56
-307.04
-303.75
-297.05
-286.71
-274.06
-260.93
-248.55
-236.89
-227.08
-219.04
-210.91
-201.03
-188.63
-174.19
-158.78
-143.54
-129.32
-116.69
-105.69
-95.59
-85.68
-75.53
-65.19
-54.88
-44.83
-35.26
-26.40
-18.28
-10.69
-3.34
4.08
11.88
20.35
29.65
39.72
50.19
60.66
70.72
80.21
89.35
98.69
108.92
120.56
133.70
147.91
162.68
177.43
191.87
206.05
220.24
234.89
250.54
268.07
288.37
311.82
337.35
361.91
380.74
388.73
382.34
360.94
327.18
285.90
242.44
201.14
164.89
135.42
113.86
101.01
96.83
99.94
107.49
115.76
121.31
122.12
117.99
110.12
100.36
90.23
80.44
70.95
61.32
51.20
40.61
30.05
20.16
11.53
4.37
-1.49
-6.46
-11.03
-15.56
-20.25
-25.09
-30.12
-35.45
-41.25
-47.64
-54.52
-61.47
-67.86
-73.08
-76.80
-79.19
-80.89
-82.81
-85.81
-90.29
-95.91
-101.43
-104.90
-104.11
-97.33
-84.00
-65.04
-42.76
-20.09
0.28
16.60
28.41
36.20
40.80
42.90
42.85
40.69
36.58
31.02
24.86
19.09
14.53
11.52
9.91
9.14
8.50
7.42
5.63
3.16
0.28
-2.71
-5.77
-9.06
-12.94
-17.79
-23.72
-30.38
-37.14
-43.27
-48.24
-51.99
-54.84
-57.41
-60.37
-64.16
-68.86
-74.17
-79.26
-82.84
-83.22
-78.75
-68.37
-52.15
-31.49
-8.92
12.63
30.68
43.87
52.04
55.98
56.80
55.50
52.76
48.99
44.54
39.81
35.27
31.28
28.00
25.29
22.78
20.16
17.27
14.24
11.37
8.87
6.63
4.19
0.92
-3.71
-9.77
-16.83
-24.08
-30.68
-36.12
-40.36
-43.77
-46.97
-50.62
-55.19
-60.73
-66.73
-72.10
-75.27
-74.57
-68.76
-57.46
-41.42
-22.45
-2.91
14.90
29.29
39.50
45.62
48.31
48.31
46.26
42.60
37.68
31.98
26.11
20.71
16.27
12.99
10.71
9.15
8.03
7.17
6.48
5.74
4.56
2.39
-1.18
-6.26
-12.48
-19.13
-25.39
-30.60
-34.59
-37.65
-40.50
-43.99
-48.83
-55.14
-62.23
-68.60
-72.13
-70.78
-63.22
-49.40
-30.70
-9.62
10.99
28.67
41.95
50.47
54.71
55.52
53.81
50.32
45.59
40.19
34.69
29.64
25.45
22.20
19.66
17.44
15.24
12.98
10.87
9.11
7.75
6.45
4.50
1.15
-4.07
-11.08
-19.19
-27.37
-34.62
-40.41
-44.75
-48.19
-51.59
-55.74
-61.04
-67.22
-73.27
-77.47
-77.79
-72.49
-60.79
-43.30
-22.05
0.14
20.47
36.87
48.53
55.68
59.15
59.89
58.54
55.48
51.00
45.58
39.84
34.44
29.80
25.93
22.56
19.33
16.12
13.17
10.95
9.77
9.48
9.34
8.23
5.22
-0.04
-7.10
-14.87
-22.18
-28.17
-32.71
-36.28
-39.77
-44.10
-49.85
-57.13
-65.35
-73.26
-79.01
-80.52
-76.02
-64.72
-47.23
-25.64
-2.95
17.89
34.73
46.83
54.51
58.72
60.32
59.84
57.51
53.53
48.50
43.26
38.75
35.56
33.66
32.47
31.23
29.39
26.83
23.87
20.99
18.50
16.29
13.85
10.51
5.75
-0.49
-7.77
-15.32
-22.33
-28.19
-32.73
-36.25
-39.36
-42.88
-47.49
-53.53
-60.71
-67.92
-73.37
-74.92
-70.85
-60.40
-44.23
-24.26
-3.09
16.76
33.50
46.32
55.27
60.72
63.18
62.93
60.25
55.50
49.35
42.74
36.60
31.59
27.89
25.22
23.01
20.78
18.30
15.70
13.26
11.11
9.07
6.62
3.10
-1.90
-8.29
-15.45
-22.39
-28.16
-32.15
-34.39
-35.49
-36.48
-38.49
-42.28
-47.94
-54.72
-60.95
-64.48
-63.17
-55.66
-41.89
-23.26
-2.29
18.15
35.54
48.41
56.37
59.89
59.84
57.10
52.47
46.72
40.62
34.94
30.30
26.99
24.95
23.75
22.87
21.92
20.74
19.32
17.51
15.01
11.33
6.00
-1.09
-9.57
-18.57
-27.02
-33.98
-39.03
-42.33
-44.50
-46.46
-49.06
-52.90
-58.10
-64.05
-69.39
-72.20
-70.45
-62.69
-48.67
-29.61
-7.89
13.54
32.14
46.35
55.84
61.17
63.26
62.91
60.65
56.74
51.42
45.14
38.54
32.38
27.26
23.46
20.81
18.91
17.22
15.39
13.30
11.14
9.09
7.16
5.03
2.08
-2.20
-8.05
-15.17
-22.80
-30.04
-36.22
-41.12
-45.09
-48.79
-52.95
-58.12
-64.47
-71.74
-79.17
-85.49
-89.06
-88.22
-81.73
-69.32
-51.94
-31.65
-11.12
7.03
20.96
29.88
34.08
34.50
32.26
28.34
23.39
17.81
11.89
5.95
0.36
-4.60
-8.79
-12.26
-15.13
-17.48
-19.20
-19.98
-19.33
-16.86
-12.35
-5.91
2.11
11.19
20.85
30.69
40.39
49.62
57.82
64.22
67.77
67.54
62.95
54.10
41.78
27.33
12.07
-3.05
-17.42
-30.69
-42.26
-51.09
-55.71
-54.80
-47.69
-34.92
-18.21
-0.02
17.09
31.16
41.25
47.41
50.37
51.06
50.28
48.47
45.90
42.77
39.48
36.57
34.46
33.17
32.27
31.05
29.05
26.29
23.35
21.00
19.75
19.44
19.22
18.06
15.12
10.23
3.92
-3.01
-9.80
-16.17
-22.27
-28.47
-34.91
-41.37
-47.21
-51.64
-54.27
-55.20
-55.23
-55.45
-56.84
-59.86
-64.16
-68.68
-71.80
-71.85
-67.49
-58.08
-43.99
-26.51
-7.58
10.69
26.57
39.05
47.93
53.65
56.80
57.93
57.31
55.00
51.11
45.92
40.00
34.08
28.80
24.52
21.23
18.66
16.47
14.36
12.18
9.88
7.40
4.71
1.82
-1.19
-4.26
-7.40
-10.82
-14.85
-19.76
-25.51
-31.66
-37.48
-42.22
-45.55
-47.76
-49.64
-52.30
-56.68
-63.17
-71.37
-80.05
-87.39
-91.34
-90.18
-83.03
-70.14
-53.03
-34.07
-15.87
-0.61
10.50
17.39
20.86
22.12
22.42
22.73
23.79
26.14
30.25
36.35
44.32
53.49
62.71
70.63
76.16
78.78
78.58
76.17
72.24
67.35
61.68
55.15
47.63
39.17
30.18
21.40
13.71
7.79
3.77
1.08
-1.47
-5.12
-10.68
-17.87
-25.23
-30.43
-31.10
-25.70
-14.27
1.56
18.97
34.94
47.09
54.29
56.68
55.29
51.45
46.30
40.59
34.70
28.85
23.25
18.17
13.88
10.58
8.28
6.81
5.89
5.14
4.18
2.67
0.32
-3.06
-7.50
-12.86
-18.80
-24.85
-30.49
-35.28
-38.99
-41.70
-43.85
-46.06
-48.91
-52.52
-56.27
-58.68
-57.84
-52.12
-40.93
-25.14
-6.96
10.72
25.29
35.15
39.99
40.59
38.23
34.08
28.88
22.96
16.41
9.49
2.74
-3.12
-7.36
-9.66
-10.19
-9.66
-8.93
-8.84
-9.90
-12.29
-15.94
-20.67
-26.24
-32.28
-38.35
-43.87
-48.44
-51.94
-54.70
-57.44
-60.81
-64.92
-68.85
-70.73
-68.21
-59.34
-43.43
-21.47
4.00
29.53
51.64
67.55
75.58
75.14
66.36
49.67
25.42
-6.12
-44.27
-87.28
-131.85
-173.32
-206.30
-225.92
-228.63
-212.78
-178.89
-129.77
-70.73
-9.28
46.00
87.62
111.40
117.98
112.40
101.90
93.11
89.93
93.28
102.09
114.67
129.29
143.98
156.04
162.06
159.09
146.09
124.98
100.16
76.86
58.99
47.83
42.09
38.73
34.57
27.65
18.04
7.71
-0.31
-3.18
0.59
10.91
25.54
40.97
53.77
62.06
66.15
68.01
70.17
74.28
81.28
90.56
100.60
109.73
116.94
122.22
126.06
129.01
131.37
134.14
137.79
141.81
144.19
141.62
130.25
106.78
69.78
15.97
-50.66
-119.92
-179.18
-219.16
-237.64
-238.46
-227.81
-211.09
-191.80
-171.07
-149.91
-130.00
-113.33
-101.21
-93.50
-88.82
-85.15
-80.86
-74.57
-66.19
-56.91
-48.42
-42.05
-38.08
-35.82
-34.08
-31.84
-28.20
-23.12
-17.32
-11.89
-7.74
-5.09
-3.54
-2.39
-0.97
1.28
4.51
8.49
12.82
17.13
21.34
25.59
30.09
34.84
39.71
44.31
48.06
50.40
50.88
49.31
45.80
40.72
34.52
27.76
20.98
14.71
9.37
5.30
2.77
1.95
2.94
5.59
9.62
14.66
20.25
25.92
31.27
36.07
40.23
43.84
46.72
48.67
49.46
48.87
46.80
43.43
39.34
35.50
33.14
32.81
34.91
39.39
45.78
53.39
61.64
70.27
79.46
89.61
100.38
111.28
121.47
129.81
135.06
135.99
131.36
119.68
104.54
87.85
71.90
59.16
51.67
50.18
53.74
59.75
65.05
67.15
64.40
57.10
46.61
34.35
21.05
6.76
-8.60
-24.52
-39.44
-51.69
-59.37
-61.21
-57.15
-48.72
-38.62
-30.17
-26.20
-28.07
-35.51
-46.30
-57.24
-65.40
-69.31
-69.19
-66.60
-63.59
-61.89
-62.76
-66.80
-74.06
-83.61
-93.07
-98.30
-94.42
-77.50
-46.79
-5.68
39.04
79.44
109.25
125.72
129.92
125.22
115.47
103.43
90.36
76.60
62.15
47.17
31.95
16.69
1.34
-14.25
-30.10
-46.18
-62.21
-78.15
-94.20
-111.02
-129.44
-150.21
-173.61
-199.35
-226.62
-254.34
-281.47
-306.99
-330.08
-350.05
-366.25
-377.88
-383.72
-381.81
-369.53
-344.31
-304.63
-251.42
-188.59
-122.52
-60.45
-8.44
30.26
55.68
70.32
77.67
80.69
81.12
79.66
76.49
71.92
66.53
61.12
56.23
51.96
47.95
43.67
38.65
32.67
25.71
17.80
8.88
-1.15
-12.31
-24.38
-36.83
-49.07
-60.71
-71.89
-83.28
-95.66
-109.11
-122.33
-132.26
-134.69
-125.54
-102.49
-66.27
-20.83
27.56
72.28
108.08
132.43
145.49
149.32
146.58
139.49
129.48
117.34
103.76
89.74
76.59
65.55
57.35
51.82
47.98
44.36
39.54
32.64
23.45
12.47
0.54
-11.48
-23.02
-33.92
-44.39
-54.92
-66.17
-78.86
-93.39
-109.37
-125.14
-137.57
-142.43
-135.56
-114.42
-79.27
-33.66
16.38
64.00
103.52
131.61
147.84
153.90
152.49
146.22
136.95
125.75
113.25
100.01
86.77
74.40
63.69
55.07
48.52
43.55
39.29
34.71
28.86
21.09
11.26
-0.21
-12.50
-24.69
-36.11
-46.62
-56.65
-67.08
-78.99
-93.19
-109.79
-127.70
-144.21
-155.23
-156.09
-142.92
-114.20
-71.74
-20.59
32.22
79.65
116.60
140.87
153.07
155.58
151.23
142.46
130.98
118.03
104.69
92.06
80.99
71.88
64.50
58.20
52.29
46.36
40.36
34.33
28.14
21.22
12.83
2.29
-10.59
-25.30
-40.85
-56.01
-69.77
-81.63
-91.84
-101.36
-111.74
-124.51
-140.32
-158.08
-174.51
-184.53
-182.65
-164.90
-130.46
-82.39
-26.82
28.81
77.87
116.14
142.21
156.91
162.23
160.25
152.85
141.69
128.48
115.03
103.05
93.63
86.86
81.84
77.12
71.47
64.51
56.73
49.17
42.61
36.93
30.99
23.06
11.67
-3.61
-21.83
-41.00
-58.85
-73.73
-85.19
-94.06
-102.06
-111.25
-123.26
-138.60
-156.13
-172.80
-184.01
-184.64
-170.62
-140.48
-96.25
-43.10
12.03
62.45
103.42
132.93
151.28
160.12
161.37
156.70
147.50
135.22
121.56
108.33
97.11
88.62
82.58
77.86
73.07
67.19
60.00
52.16
44.68
38.35
33.02
27.55
20.11
9.07
-6.10
-24.37
-43.36
-60.14
-72.51
-79.86
-83.43
-85.90
-90.38
-99.43
-114.10
-133.46
-154.40
-172.17
-181.19
-176.51
-155.26
-117.85
-68.20
-12.86
40.79
86.55
120.81
142.87
154.17
157.06
153.65
145.51
133.84
119.98
105.72
92.95
83.06
76.38
72.00
68.32
63.86
57.88
50.65
43.09
36.05
29.66
23.21
15.37
4.91
-8.67
-24.76
-41.77
-57.79
-71.29
-81.86
-90.31
-98.36
-108.11
-121.07
-137.57
-156.11
-173.36
-184.60
-184.83
-170.26
-139.66
-95.19
-42.00
13.04
63.21
103.58
131.87
148.17
154.16
151.93
143.46
130.54
115.02
98.89
84.23
72.59
64.58
59.61
56.28
53.02
48.82
43.56
37.72
31.82
25.93
19.33
10.87
-0.52
-15.06
-31.99
-49.59
-65.88
-79.43
-89.93
-98.38
-106.78
-117.43
-131.91
-150.11
-169.79
-186.59
-195.07
-190.17
-168.93
-131.56
-81.70
-25.51
30.01
78.74
116.67
142.36
156.50
161.01
158.15
150.04
138.46
125.00
111.16
98.35
87.57
79.23
73.04
68.14
63.58
58.74
53.46
47.89
42.11
35.74
27.90
17.55
3.94
-12.90
-32.01
-51.75
-70.22
-86.10
-98.93
-109.42
-119.22
-130.34
-144.44
-161.83
-180.87
-197.73
-207.31
-204.53
-186.02
-151.44
-103.77
-48.52
7.72
58.91
100.97
131.98
152.11
162.68
165.44
162.05
154.04
142.82
129.98
117.18
105.94
97.21
91.03
86.54
82.44
77.53
71.26
63.93
56.33
49.14
42.39
35.30
26.41
14.39
-1.39
-20.34
-40.71
-60.24
-77.04
-90.31
-100.61
-109.69
-119.78
-132.79
-149.57
-169.20
-188.82
-203.95
-209.52
-201.22
-176.92
-137.42
-86.52
-30.10
25.40
74.40
113.34
140.92
157.78
165.70
166.76
162.78
155.08
144.73
132.86
120.85
110.25
102.22
97.06
94.04
91.65
88.28
82.93
75.45
66.52
57.03
47.55
38.03
27.78
15.84
1.56
-15.04
-33.12
-51.29
-68.03
-82.33
-93.91
-103.36
-111.94
-121.19
-132.52
-146.75
-163.56
-181.01
-195.58
-202.67
-197.75
-177.78
-142.37
-94.20
-38.45
18.40
70.20
112.45
142.94
161.72
170.45
171.47
167.01
158.87
148.39
136.69
124.98
114.53
106.39
101.01
98.05
96.42
94.74
91.77
86.77
79.63
70.69
60.55
49.73
38.42
26.42
13.29
-1.40
-17.70
-35.00
-52.26
-68.25
-82.00
-93.28
-102.52
-110.69
-119.06
-128.85
-141.01
-155.93
-172.93
-189.78
-202.79
-207.18
-198.47
-174.06
-134.32
-82.99
-26.28
28.84
76.45
112.96
137.47
151.06
155.73
153.54
146.04
134.56
120.54
105.86
92.62
82.56
76.48
73.83
73.02
72.06
69.46
64.72
58.39
51.44
44.54
37.64
29.84
19.99
7.26
-8.31
-25.68
-43.22
-59.19
-72.51
-83.05
-91.65
-99.76
-109.09
-120.99
-135.97
-153.13
-169.84
-181.95
-184.54
-173.42
-146.50
-104.92
-53.09
2.36
54.39
97.52
128.86
148.28
157.47
158.70
153.95
144.60
131.88
117.23
102.69
90.42
82.06
77.99
77.12
77.37
76.50
73.00
66.52
57.78
48.04
38.36
29.06
19.66
9.05
-3.76
-19.17
-36.57
-54.54
-71.32
-85.52
-96.72
-105.59
-113.64
-122.74
-134.53
-149.88
-168.35
-187.77
-204.33
-213.04
-209.08
-189.21
-153.16
-103.99
-47.48
9.46
60.62
101.82
131.56
150.50
160.47
163.51
161.21
154.65
144.77
132.69
119.93
108.22
98.93
92.56
88.51
85.36
81.64
76.36
69.40
61.33
52.94
44.67
36.27
26.91
15.50
1.33
-15.55
-34.21
-53.06
-70.38
-84.97
-96.44
-105.40
-113.30
-121.99
-133.24
-148.13
-166.31
-185.56
-201.91
-210.21
-205.56
-184.88
-148.14
-98.68
-42.37
13.94
64.18
104.36
133.05
150.95
159.89
161.94
158.73
151.42
141.02
128.81
116.38
105.44
97.29
92.22
89.48
87.58
84.97
80.64
74.42
66.82
58.67
50.46
42.10
32.90
21.86
8.19
-8.34
-26.99
-46.28
-64.37
-79.73
-91.73
-100.82
-108.52
-116.78
-127.49
-141.80
-159.51
-178.68
-195.65
-205.61
-203.60
-186.10
-152.27
-104.62
-48.62
8.76
60.84
102.89
132.95
151.60
160.94
163.35
160.68
153.99
143.93
131.38
117.77
105.00
94.78
87.99
84.23
82.10
79.82
76.03
70.28
63.05
55.23
47.57
40.25
32.87
24.67
14.83
2.81
-11.46
-27.45
-44.26
-60.83
-76.30
-90.21
-102.64
-114.25
-126.09
-139.27
-154.43
-171.11
-187.29
-199.33
-202.60
-192.83
-167.63
-127.73
-77.16
-22.29
30.03
74.24
107.32
128.81
140.06
143.06
139.66
131.20
118.96
104.54
89.92
77.22
67.95
62.43
59.67
57.93
55.59
51.83
46.91
41.67
36.80
32.13
26.46
18.20
6.22
-9.46
-27.44
-45.50
-61.41
-73.86
-82.95
-90.15
-97.65
-107.64
-121.41
-138.62
-156.97
-172.35
-179.60
-173.91
-152.45
-115.53
-66.85
-12.65
40.07
85.50
120.05
142.80
154.69
157.46
152.94
142.76
128.60
112.45
96.61
83.18
73.51
67.65
64.47
62.16
59.02
54.18
47.73
40.41
32.94
25.41
17.02
6.50
-7.16
-24.13
-43.35
-62.83
-80.38
-94.51
-105.02
-113.16
-121.21
-131.61
-146.06
-164.47
-184.54
-201.85
-210.97
-206.90
-186.63
-150.28
-101.17
-45.04
11.49
62.49
103.87
133.83
152.59
161.81
163.59
159.95
152.54
142.72
131.69
120.63
110.63
102.27
95.50
89.54
83.44
76.55
68.89
61.01
53.49
46.41
39.02
29.94
17.79
1.93
-17.21
-38.11
-58.62
-76.75
-91.37
-102.62
-111.88
-121.30
-133.10
-148.68
-167.80
-188.01
-204.85
-212.89
-207.18
-184.95
-146.65
-96.03
-39.08
17.50
68.08
109.03
139.02
158.59
169.29
172.98
171.29
165.48
156.54
145.54
133.68
122.33
112.63
105.00
99.00
93.49
87.23
79.38
69.93
59.61
49.40
39.92
31.00
21.75
10.90
-2.52
-18.69
-36.79
-55.23
-72.22
-86.46
-97.55
-106.20
-113.98
-122.84
-134.51
-149.84
-168.11
-186.68
-201.22
-206.53
-198.01
-173.18
-132.73
-80.60
-23.08
32.87
81.34
118.69
144.01
158.54
164.70
165.01
161.42
155.12
146.82
137.16
127.00
117.39
109.34
103.30
99.04
95.77
92.43
88.11
82.27
74.88
66.27
56.86
46.96
36.59
25.46
13.12
-0.79
-16.22
-32.73
-49.44
-65.42
-79.96
-92.80
-104.14
-114.52
-124.71
-135.46
-147.59
-161.72
-177.76
-194.36
-208.54
-215.90
-211.66
-192.22
-156.66
-107.52
-50.39
7.59
59.69
101.25
130.47
148.10
156.28
157.42
153.28
144.97
133.37
119.78
106.04
94.28
86.11
81.84
80.36
79.63
77.61
73.18
66.44
58.44
50.43
43.04
35.89
27.88
17.64
4.33
-11.87
-29.71
-47.19
-62.44
-74.38
-83.10
-89.76
-96.16
-104.15
-115.08
-129.43
-146.41
-163.75
-177.74
-183.71
-177.21
-155.53
-118.96
-71.06
-17.91
33.67
78.00
111.81
134.35
146.66
150.47
147.40
138.79
125.94
110.58
94.96
81.42
71.80
66.70
65.29
65.62
65.45
63.09
57.99
50.79
42.74
35.03
28.05
21.27
13.47
3.33
-9.90
-26.05
-43.92
-61.77
-77.86
-91.12
-101.49
-110.02
-118.53
-129.09
-143.15
-160.71
-179.79
-196.33
-205.03
-200.79
-180.36
-143.68
-94.20
-38.04
17.68
66.76
105.31
132.17
148.36
156.03
157.37
154.01
147.02
137.22
125.70
113.88
103.34
95.26
89.98
86.72
84.02
80.36
74.79
67.31
58.71
50.06
42.04
34.64
27.05
18.05
6.53
-8.01
-25.13
-43.64
-61.91
-78.49
-92.53
-104.02
-113.84
-123.34
-134.05
-147.10
-162.86
-180.37
-197.10
-209.12
-211.74
-200.84
-174.33
-133.14
-81.26
-24.91
29.27
75.85
111.77
136.54
151.50
158.76
160.23
157.26
150.75
141.59
130.97
120.35
111.16
104.21
99.42
95.84
92.15
87.21
80.52
72.31
63.22
53.93
44.76
35.44
25.30
13.52
-0.48
-16.64
-34.19
-51.88
-68.30
-82.40
-93.79
-102.94
-110.99
-119.52
-130.16
-144.10
-161.44
-180.65
-198.27
-209.38
-208.78
-192.64
-159.97
-113.29
-58.14
-1.49
50.13
92.22
122.94
142.73
153.44
157.19
155.75
150.35
141.97
131.70
120.89
111.11
103.64
98.96
96.50
94.89
92.51
88.19
81.59
73.25
64.19
55.20
46.51
37.52
27.19
14.46
-1.08
-19.02
-38.09
-56.60
-72.99
-86.37
-96.72
-104.94
-112.50
-121.12
-132.34
-147.05
-164.83
-183.57
-199.38
-207.29
-202.57
-182.30
-146.56
-98.82
-45.00
8.14
54.82
91.50
117.16
132.70
139.96
140.80
136.69
128.86
118.60
107.44
97.05
88.73
82.96
79.21
76.26
72.77
67.97
61.89
55.24
48.82
42.90
36.87
29.42
19.13
5.21
-11.94
-30.71
-48.79
-64.06
-75.41
-83.31
-89.51
-96.52
-106.64
-120.98
-138.85
-157.47
-172.38
-178.39
-171.03
-148.06
-110.41
-62.27
-9.92
39.98
82.12
113.67
134.29
145.24
148.35
145.20
137.05
125.17
111.21
97.22
85.23
76.55
71.31
68.42
66.13
62.84
57.78
51.16
43.81
36.56
29.55
22.06
12.79
0.55
-15.09
-33.40
-52.61
-70.58
-85.58
-96.99
-105.58
-113.30
-122.55
-135.40
-152.48
-172.38
-191.44
-204.48
-206.09
-192.29
-161.98
-117.55
-64.31
-9.00
41.99
84.14
115.50
136.36
148.27
153.15
152.51
147.44
138.92
128.24
117.08
107.15
99.67
94.79
91.57
88.43
83.95
77.53
69.66
61.47
53.95
47.33
40.69
32.39
20.83
5.23
-13.93
-34.94
-55.47
-73.45
-87.72
-98.44
-106.99
-115.51
-126.21
-140.69
-159.19
-179.95
-199.26
-211.99
-212.88
-198.22
-167.13
-122.14
-68.58
-13.07
38.26
81.17
113.89
136.75
151.25
159.15
161.76
159.90
154.23
145.56
135.11
124.44
115.01
107.62
102.24
98.01
93.71
88.32
81.37
73.11
64.22
55.37
46.76
37.98
28.14
16.22
1.61
-15.53
-34.14
-52.63
-69.41
-83.51
-94.90
-104.37
-113.32
-123.22
-135.39
-150.54
-168.33
-186.96
-202.97
-211.65
-208.15
-189.06
-153.88
-105.51
-49.77
6.32
56.48
96.67
125.68
144.59
155.61
160.91
161.97
159.43
153.66
145.24
135.31
125.43
117.02
110.78
106.47
102.99
99.05
93.67
86.58
78.16
69.16
60.07
50.92
41.19
30.02
16.62
0.70
-17.27
-36.16
-54.41
-70.68
-84.13
-94.84
-103.61
-111.82
-120.88
-131.98
-145.79
-161.98
-178.98
-193.77
-202.16
-199.71
-183.14
-151.58
-107.32
-55.46
-2.45
45.68
84.82
113.40
131.97
142.08
145.32
142.79
135.32
124.02
110.71
97.73
87.40
81.12
78.80
78.95
79.32
77.97
73.99
67.81
60.64
53.65
47.12
40.17
31.27
19.02
2.97
-15.90
-35.54
-53.59
-68.36
-79.49
-87.98
-95.71
-104.75
-116.66
-131.94
-149.71
-167.48
-181.31
-186.53
-178.86
-155.94
-118.43
-70.21
-17.40
33.28
76.51
109.40
131.66
144.71
150.44
150.37
145.39
136.22
123.92
110.22
97.39
87.45
81.53
79.31
79.20
79.02
76.90
71.90
64.28
55.14
45.63
36.36
27.06
16.76
4.34
-10.88
-28.62
-47.63
-66.17
-82.56
-95.82
-106.03
-114.27
-122.20
-131.60
-143.86
-159.41
-177.33
-194.99
-208.28
-212.36
-202.94
-177.82
-137.86
-87.14
-31.80
21.61
67.90
104.32
130.59
148.08
158.73
164.16
165.31
162.74
156.94
148.81
139.59
130.73
123.35
117.90
114.14
111.30
108.44
104.84
100.19
94.53
88.14
81.28
73.99
66.06
57.13
46.74
34.70
21.26
7.10
-6.73
-19.15
-29.48
-37.59
-44.00
-49.66
-55.66
-63.07
-72.77
-85.19
-99.89
-115.18
-128.14
-135.21
-133.53
-122.23
-103.27
-81.00
-60.79
-47.11
-42.03
-44.82
-52.55
-61.53
-68.58
-71.99
-71.55
-68.06
-62.68
-56.10
-48.32
-38.76
-26.84
-12.56
3.16
18.59
31.77
41.18
46.24
47.21
44.91
40.02
32.96
23.70
12.17
-1.48
-16.56
-31.93
-46.38
-58.95
-69.35
-78.00
-85.78
-93.91
-103.70
-116.22
-131.97
-150.23
-168.64
-183.27
-189.51
-183.32
-162.67
-128.28
-83.33
-32.66
18.48
65.43
104.70
134.19
153.22
162.47
163.60
158.95
150.80
141.04
130.99
121.52
113.20
106.31
100.72
95.83
90.80
84.89
77.78
69.76
61.37
52.97
44.38
34.89
23.54
9.76
-6.35
-23.81
-41.05
-56.45
-68.80
-77.88
-84.31
-89.64
-95.68
-104.08
-115.65
-129.65
-143.71
-154.01
-156.27
-146.95
-124.37
-89.21
-44.45
5.30
54.77
98.87
133.48
156.06
166.00
164.52
154.26
138.60
120.72
103.17
87.64
75.15
66.32
61.38
59.96
60.98
62.86
63.96
63.24
60.36
55.53
49.06
40.93
30.74
18.10
3.16
-13.17
-29.26
-43.46
-54.66
-62.91
-69.51
-76.62
-86.63
-101.09
-119.89
-140.58
-158.59
-168.18
-164.12
-143.40
-106.58
-57.84
-3.92
47.77
91.09
122.61
141.77
150.25
150.70
145.46
136.06
123.28
107.84
91.02
74.90
61.85
53.55
50.29
50.64
52.12
52.24
49.50
43.75
36.00
27.52
18.99
10.27
0.49
-11.33
-25.57
-41.67
-58.17
-73.16
-84.95
-92.72
-96.77
-98.55
-100.23
-104.13
-111.98
-124.24
-139.51
-154.50
-164.54
-164.76
-151.48
-123.45
-82.47
-33.15
18.37
65.85
104.50
131.88
148.03
154.83
155.02
151.16
144.87
136.81
127.05
115.75
103.62
91.94
82.14
75.06
70.66
67.94
65.53
62.17
57.29
50.98
43.74
36.11
28.27
20.00
10.77
0.11
-12.16
-25.68
-39.63
-52.92
-64.56
-73.98
-81.16
-86.77
-91.89
-97.89
-106.07
-117.36
-131.78
-147.96
-162.89
-172.10
-170.70
-154.79
-123.08
-77.72
-24.16
30.27
78.36
114.99
138.18
148.97
150.34
145.80
138.16
129.00
118.92
108.04
96.72
85.75
76.22
69.13
64.81
62.79
61.93
60.81
58.23
53.54
46.74
38.26
28.72
18.62
8.14
-2.78
-14.33
-26.57
-39.31
-52.05
-64.13
-74.93
-84.05
-91.40
-97.24
-102.08
-106.70
-112.06
-119.21
-128.76
-140.37
-152.09
-160.32
-160.44
-148.14
-121.16
-80.47
-30.54
21.79
69.26
106.29
130.31
141.90
143.69
138.88
130.02
118.47
104.94
90.10
75.20
62.00
52.11
46.29
44.00
43.69
43.49
42.00
38.75
34.10
28.76
23.14
17.07
9.84
0.68
-10.68
-23.72
-37.26
-49.70
-59.75
-66.78
-71.14
-74.06
-77.24
-82.36
-90.61
-102.21
-116.05
-129.54
-138.80
-139.40
-127.56
-101.63
-62.97
-16.14
32.32
75.58
108.53
128.96
137.50
136.71
129.59
118.55
105.11
90.19
74.85
60.51
48.89
41.29
37.90
37.64
38.40
38.06
35.26
29.93
23.05
16.03
9.91
4.74
-0.39
-6.91
-15.96
-27.80
-41.58
-55.58
-67.85
-77.01
-82.72
-85.86
-88.30
-92.23
-99.48
-110.84
-125.56
-141.16
-153.56
-157.93
-149.85
-126.93
-89.80
-42.46
8.58
56.10
94.16
119.63
132.46
135.06
130.80
122.71
112.76
101.85
90.41
78.94
68.30
59.47
53.13
49.17
46.72
44.43
41.10
36.19
30.00
23.41
17.30
12.00
6.92
0.79
-7.78
-19.53
-34.04
-49.70
-64.35
-76.06
-83.94
-88.48
-91.24
-94.25
-99.36
-107.74
-119.43
-133.14
-146.08
-154.18
-152.91
-138.51
-109.46
-67.55
-17.73
33.06
77.91
111.81
132.82
141.98
142.22
137.01
129.02
119.78
109.79
99.13
88.09
77.41
68.11
61.04
56.43
53.74
51.91
49.76
46.42
41.57
35.41
28.42
20.98
13.22
4.95
-4.23
-14.69
-26.46
-39.13
-51.78
-63.32
-72.88
-80.10
-85.41
-89.82
-94.63
-101.09
-110.03
-121.53
-134.66
-147.16
-155.52
-155.51
-143.40
-117.34
-78.50
-31.23
17.96
62.23
96.44
118.37
128.78
130.32
126.09
118.47
108.74
97.48
85.18
72.81
61.74
53.27
47.94
45.25
43.84
42.16
39.13
34.56
29.09
23.62
18.65
13.92
8.41
0.85
-9.59
-22.77
-37.53
-51.94
-64.09
-72.75
-77.83
-80.35
-82.16
-85.25
-91.23
-100.77
-113.25
-126.58
-137.41
-141.52
-134.97
-115.33
-82.80
-40.57
5.72
49.50
85.05
108.93
120.55
121.52
114.68
102.82
88.20
72.48
57.08
43.44
32.93
26.41
23.69
23.46
23.67
22.44
19.00
14.05
9.51
7.42
8.77
12.74
16.89
18.25
14.61
5.58
-7.40
-21.77
-35.09
-46.06
-54.68
-61.92
-68.95
-76.61
-85.01
-93.60
-101.05
-105.33
-103.88
-94.20
-74.83
-46.30
-11.63
24.30
56.06
79.50
92.89
97.22
95.33
90.60
85.64
81.67
78.74
76.30
73.97
71.81
70.17
69.24
68.64
67.45
64.50
59.01
51.11
41.93
33.14
26.20
21.60
18.60
15.46
10.28
1.80
-10.08
-24.17
-38.64
-51.64
-62.09
-69.95
-76.12
-82.07
-89.29
-98.94
-111.32
-125.55
-139.30
-148.83
-149.74
-138.25
-112.66
-74.46
-28.36
18.95
60.75
92.28
111.86
120.67
121.70
118.08
112.07
104.70
96.23
86.87
77.27
68.52
61.76
57.47
55.24
53.83
51.78
48.03
42.40
35.49
28.31
21.59
15.39
9.07
1.59
-7.88
-19.49
-32.49
-45.50
-57.01
-65.94
-72.17
-76.38
-79.94
-84.31
-90.72
-99.76
-111.27
-124.14
-136.10
-143.85
-143.41
-131.27
-105.74
-67.95
-22.11
25.52
68.47
101.92
123.91
135.23
138.47
136.56
131.72
125.08
116.99
107.61
97.41
87.25
78.08
70.63
65.10
61.13
57.99
54.85
51.14
46.54
41.00
34.63
27.58
19.98
11.94
3.52
-5.25
-14.38
-23.86
-33.57
-43.23
-52.48
-60.92
-68.34
-74.76
-80.55
-86.31
-92.89
-101.15
-111.67
-124.29
-137.60
-148.70
-153.51
-147.82
-128.80
-96.30
-53.49
-6.14
38.98
76.12
102.08
116.63
121.91
121.07
117.00
111.58
105.57
99.18
92.52
85.96
80.03
75.13
71.25
67.92
64.40
60.05
54.62
48.34
41.74
35.28
29.14
23.06
16.49
8.80
-0.48
-11.37
-23.42
-35.71
-47.19
-56.92
-64.40
-69.82
-73.94
-77.91
-82.95
-89.95
-99.28
-110.52
-122.30
-132.25
-137.16
-133.62
-119.03
-92.65
-56.38
-14.62
26.82
62.32
88.08
102.89
107.96
105.85
99.29
90.32
80.13
69.53
59.32
50.58
44.37
41.21
40.66
41.47
42.03
41.10
38.31
34.12
29.39
24.79
20.30
15.13
8.23
-1.18
-12.97
-26.07
-38.70
-49.19
-56.55
-60.96
-63.73
-66.75
-71.88
-80.21
-91.56
-104.30
-115.57
-121.74
-119.22
-105.55
-80.25
-45.35
-5.17
34.68
68.72
93.11
106.40
109.50
104.83
95.31
83.42
70.86
58.78
47.93
38.96
32.31
28.02
25.62
24.35
23.36
22.04
20.13
17.52
14.01
9.21
2.57
-6.27
-17.17
-29.34
-41.53
-52.28
-60.63
-66.37
-70.30
-73.99
-79.22
-87.19
-97.76
-109.06
-117.58
-119.08
-109.94
-88.48
-55.91
-16.18
25.04
61.96
90.27
108.00
115.49
114.65
108.02
97.87
86.01
73.81
62.38
52.73
45.44
40.53
37.37
34.84
31.91
28.04
23.41
18.69
14.50
10.85
6.96
1.58
-6.40
-17.26
-30.20
-43.52
-55.35
-64.35
-70.30
-74.22
-77.94
-83.55
-92.45
-104.75
-118.79
-131.19
-137.40
-132.96
-114.98
-83.36
-41.35
5.24
49.63
85.99
111.08
124.62
128.68
126.27
120.04
111.66
101.92
91.35
80.71
71.10
63.52
58.34
54.94
51.96
47.97
42.21
34.94
27.25
20.37
14.91
10.47
5.76
-0.71
-9.91
-21.80
-35.30
-48.68
-60.30
-69.17
-75.27
-79.50
-83.48
-89.04
-97.62
-109.57
-123.51
-136.22
-143.09
-139.32
-121.65
-89.80
-47.03
0.53
45.72
82.55
107.76
121.31
125.59
123.93
119.22
113.11
106.12
98.20
89.47
80.52
72.36
65.91
61.49
58.73
56.65
54.14
50.44
45.39
39.40
33.05
26.79
20.58
13.96
6.26
-3.10
-14.29
-26.97
-40.39
-53.56
-65.52
-75.67
-83.82
-90.31
-95.99
-101.93
-109.32
-118.98
-130.89
-143.68
-154.49
-159.30
-153.90
-135.38
-103.28
-60.23
-11.42
36.79
78.66
110.59
131.84
144.19
150.78
154.78
158.21
161.45
163.64
163.44
159.95
153.33
144.66
135.40
126.69
118.89
111.55
103.91
95.35
85.74
75.37
64.72
54.08
43.38
32.16
19.82
5.98
-9.28
-25.23
-40.74
-54.54
-65.77
-74.30
-80.78
-86.53
-93.03
-101.52
-112.52
-125.50
-138.69
-149.24
-153.65
-148.58
-131.86
-103.42
-65.58
-22.56
20.57
59.20
90.10
111.84
124.38
128.65
125.98
117.90
106.20
92.90
79.99
69.07
60.89
55.28
51.29
47.79
43.86
39.22
34.17
29.29
24.98
21.14
17.07
11.69
4.02
-6.41
-19.27
-33.59
-48.10
-61.77
-74.13
-85.39
-96.35
-108.06
-121.34
-136.26
-151.68
-165.00
-172.57
-170.61
-156.48
-129.89
-93.37
-51.72
-10.59
24.97
51.92
69.38
78.24
80.19
76.91
69.73
59.59
47.56
34.90
23.17
13.78
7.65
4.93
5.05
7.01
9.75
12.32
13.86
13.53
10.62
4.69
-4.10
-14.95
-26.55
-37.55
-46.87
-54.11
-59.57
-64.28
-69.70
-77.18
-87.21
-98.68
-108.61
-112.65
-106.56
-87.81
-56.91
-17.55
24.50
63.17
93.84
114.18
124.09
124.80
118.20
106.25
90.98
74.54
59.11
46.54
37.84
32.85
30.29
28.40
25.74
21.69
16.59
11.24
6.26
1.43
-4.32
-12.50
-24.29
-39.98
-58.75
-78.97
-98.88
-117.13
-133.36
-148.14
-162.91
-179.43
-199.05
-221.75
-245.47
-266.02
-277.93
-276.18
-257.77
-222.84
-174.30
-116.70
-54.85
7.14
65.83
118.22
161.53
193.69
213.91
223.13
223.92
219.54
212.90
205.87
199.09
192.29
184.94
176.67
167.56
158.06
148.71
139.76
130.93
121.32
109.73
95.20
77.61
57.81
37.32
17.73
0.16
-15.20
-28.96
-42.10
-55.64
-70.15
-85.65
-101.62
-117.18
-131.41
-143.69
-154.05
-163.27
-172.83
-184.40
-198.97
-215.99
-232.76
-244.76
-246.70
-234.20
-205.31
-161.37
-106.76
-47.75
9.09
58.44
97.16
124.45
141.34
149.97
152.68
151.58
148.30
143.96
139.41
135.18
131.48
128.15
124.70
120.65
115.80
110.45
105.18
100.54
96.52
92.43
87.15
79.50
68.85
55.39
40.10
24.40
9.68
-3.27
-14.47
-24.73
-35.32
-47.42
-61.65
-77.74
-94.63
-110.76
-124.66
-135.48
-143.34
-149.43
-155.67
-164.06
-175.65
-189.63
-203.01
-211.04
-208.55
-191.57
-158.90
-112.49
-57.22
0.48
54.26
99.26
132.91
155.03
167.27
172.22
172.52
170.22
166.49
161.72
155.89
148.96
141.05
132.50
123.78
115.28
107.37
100.25
93.94
88.14
82.35
75.86
68.02
58.45
47.22
34.78
21.78
8.89
-3.56
-15.56
-27.38
-39.43
-52.03
-65.15
-78.47
-91.30
-103.01
-113.26
-122.27
-130.94
-140.59
-152.30
-166.15
-180.47
-191.79
-195.38
-186.72
-162.97
-124.29
-74.13
-18.54
35.52
81.96
117.07
140.02
152.26
156.52
155.51
151.18
144.61
136.30
126.67
116.46
106.63
98.05
91.21
85.91
81.53
77.24
72.37
66.60
59.97
52.69
44.96
36.85
28.18
18.74
8.34
-3.07
-15.38
-28.33
-41.67
-55.05
-68.06
-80.22
-91.02
-100.26
-108.19
-115.67
-123.89
-133.90
-145.90
-158.67
-169.35
-173.89
-168.13
-149.08
-116.11
-71.53
-20.25
31.37
77.17
112.70
136.06
147.94
150.63
146.99
139.34
129.18
117.34
104.56
91.85
80.52
71.73
65.89
62.44
60.02
57.10
52.68
46.62
39.55
32.35
25.58
19.10
12.16
3.72
-6.98
-19.94
-34.44
-49.13
-62.60
-73.86
-82.71
-89.79
-96.32
-103.72
-113.03
-124.62
-137.79
-150.59
-159.99
-162.29
-154.02
-133.04
-99.41
-55.86
-7.34
40.22
81.35
112.38
131.99
140.98
141.41
135.65
125.75
113.22
99.28
85.09
71.88
60.78
52.40
46.62
42.64
39.34
35.79
31.63
27.06
22.50
18.14
13.55
7.79
-0.18
-11.01
-24.46
-39.40
-54.15
-67.01
-76.98
-84.00
-89.08
-93.86
-100.05
-108.91
-120.52
-133.58
-145.27
-151.71
-148.90
-133.81
-105.61
-66.20
-19.95
27.40
70.12
103.91
126.61
138.21
140.23
134.90
124.51
111.04
96.17
81.26
67.41
55.50
46.00
38.94
33.95
30.33
27.39
24.62
21.69
18.38
14.40
9.25
2.27
-6.97
-18.51
-31.73
-45.42
-58.22
-69.00
-77.32
-83.62
-89.09
-95.34
-103.78
-114.93
-127.81
-139.75
-146.80
-144.67
-130.09
-102.08
-62.53
-15.96
31.62
74.24
107.36
128.73
138.40
138.15
130.56
118.28
103.55
88.15
73.43
60.50
50.11
42.54
37.43
33.94
31.03
27.84
24.00
19.51
14.46
8.73
1.76
-7.18
-18.55
-32.11
-46.79
-60.94
-72.99
-82.06
-88.38
-93.26
-98.61
-106.17
-116.71
-129.46
-141.82
-149.80
-148.95
-135.63
-108.41
-68.82
-21.26
28.02
72.56
107.30
129.64
139.53
138.93
130.65
117.59
102.16
86.22
71.24
58.27
47.98
40.47
35.29
31.55
28.36
25.13
21.62
17.88
13.79
8.95
2.65
-5.77
-16.56
-29.21
-42.54
-55.16
-65.92
-74.49
-81.45
-88.15
-96.23
-106.98
-120.53
-135.42
-148.50
-155.39
-151.66
-134.20
-102.55
-59.38
-10.04
38.91
81.42
113.33
133.13
141.52
140.65
133.12
121.34
107.35
92.84
79.27
67.75
58.95
52.82
48.70
45.61
42.71
39.55
36.06
32.33
28.25
23.26
16.47
7.05
-5.25
-19.76
-35.05
-49.31
-61.02
-69.50
-75.19
-79.70
-85.20
-93.66
-105.85
-120.68
-134.93
-143.83
-142.16
-126.01
-94.38
-49.80
2.27
54.93
101.71
138.19
162.73
176.51
182.30
182.70
179.45
173.46
165.28
155.48
145.13
135.50
128.31
124.42
122.72
120.78
116.12
107.11
92.92
73.53
49.03
20.57
-10.49
-43.52
-77.69
-111.28
-142.68
-171.55
-198.54
-224.05
-244.97
-255.17
-248.59
-221.23
-173.02
-109.43
-41.06
22.84
68.06
85.59
80.90
64.42
43.68
22.50
4.70
-6.38
-7.85
1.17
19.44
42.30
60.64
64.20
50.01
25.15
1.66
-10.81
-9.61
2.41
19.54
35.66
46.90
53.36
57.15
59.61
60.66
59.28
55.12
48.55
40.57
30.89
20.37
10.36
1.51
-6.61
-15.27
-25.84
-39.31
-55.96
-75.88
-97.73
-120.15
-142.66
-165.37
-187.82
-208.01
-222.71
-223.24
-205.54
-170.53
-124.26
-74.75
-27.75
15.76
57.87
99.56
136.62
158.67
155.36
123.47
71.33
16.63
-21.29
-30.65
-12.11
23.39
60.37
86.87
97.47
92.03
72.53
41.29
1.86
-39.04
-71.64
-86.77
-80.10
-55.45
-23.82
1.39
10.09
-0.71
-26.94
-60.47
-92.71
-116.52
-126.86
-120.45
-95.82
-53.85
1.92
65.86
131.97
195.49
254.42
309.36
361.78
413.00
462.89
509.43
549.12
578.25
594.44
597.78
591.03
578.42
564.76
553.96
547.76
545.18
542.94
536.94
523.94
502.64
472.56
435.04
392.61
348.04
303.35
259.43
216.79
175.85
137.07
97.21
53.65
5.95
-44.15
-94.45
-143.63
-191.06
-236.52
-280.09
-328.96
-388.08
-456.70
-528.87
-597.52
-657.99
-707.59
-744.93
-769.52
-792.58
-822.28
-858.57
-894.02
-920.16
-933.21
-932.85
-920.53
-898.40
-883.25
-887.28
-911.59
-947.43
-984.60
-1018.99
-1051.06
-1083.30
-1030.45
-854.35
-582.54
-289.25
-37.59
148.86
273.14
349.47
394.43
424.23
439.43
442.22
440.46
438.87
446.93
463.74
482.90
498.81
509.83
507.06
486.61
452.15
412.73
377.09
348.36
327.00
312.92
306.56
301.35
292.25
278.90
265.51
257.79
257.93
264.74
273.60
277.29
264.39
226.68
163.31
81.23
-8.35
-96.04
-176.30
-247.24
-308.32
-358.66
-394.24
-408.81
-397.60
-360.99
-306.31
-245.05
-188.33
-143.14
-110.98
-88.99
-72.88
-59.29
-46.86
-35.89
-27.12
-20.69
-15.99
-11.97
-7.67
-2.33
4.33
12.31
21.48
31.59
42.53
54.28
67.03
81.22
97.49
116.66
139.83
168.31
202.94
242.91
284.31
319.60
338.73
332.23
294.76
227.57
138.62
39.71
-57.58
-145.22
-220.22
-283.83
-339.56
-390.99
-440.13
-486.34
-526.11
-553.79
-563.10
-549.45
-511.89
-453.92
-382.23
-304.49
-226.97
-153.34
-85.05
-22.57
33.64
82.86
124.61
159.16
187.67
211.67
232.47
250.82
266.98
281.13
293.66
