1531859768.00
64.000000
-0.00
-0.00
-0.00
-0.00
-0.00
-0.00
-0.00
-0.00
-0.00
-0.00
0.00
0.01
0.01
-0.00
-0.03
-0.05
-0.05
0.00
0.13
0.36
0.66
1.01
1.37
1.72
2.06
2.40
2.79
3.24
3.80
4.43
5.08
5.70
6.27
6.81
7.36
8.02
8.82
9.88
11.12
12.43
13.71
14.87
15.95
17.08
18.44
20.20
22.60
25.48
28.59
31.66
34.49
37.14
39.89
43.18
47.37
52.87
59.40
66.44
73.43
79.95
86.03
92.12
98.92
107.04
117.13
128.78
141.26
153.67
165.33
176.12
186.55
197.91
209.05
222.46
238.99
258.89
280.90
301.87
317.10
321.65
312.08
287.74
251.49
207.60
160.63
113.67
67.78
22.58
-22.53
-67.37
-110.80
-150.85
-186.40
-217.42
-244.82
-269.74
-292.90
-314.30
-333.48
-350.36
-365.46
-380.08
-394.98
-409.29
-420.28
-423.96
-417.34
-399.92
-374.00
-343.35
-311.51
-280.25
-249.48
-218.61
-187.90
-159.11
-134.59
-115.72
-101.74
-89.93
-76.99
-60.94
-42.27
-23.65
-8.55
0.81
4.63
5.51
7.02
11.77
20.03
29.61
37.24
40.48
39.32
36.16
34.41
36.39
41.81
47.95
51.24
49.64
43.92
37.31
33.59
34.77
39.87
45.46
47.76
44.91
38.10
30.83
26.87
28.03
33.12
38.66
40.88
38.00
31.11
23.62
19.15
19.44
23.37
27.60
28.70
25.13
18.28
11.65
8.75
11.01
16.87
22.69
24.79
21.67
14.81
7.76
4.10
5.38
10.35
15.77
18.38
16.78
12.23
7.83
6.59
9.55
15.12
19.96
20.95
17.10
10.18
3.82
1.41
4.17
10.39
16.37
18.55
15.54
8.90
2.20
-1.14
0.19
4.65
8.86
9.66
6.07
-0.14
-5.50
-6.96
-3.75
2.07
6.85
7.45
3.12
-4.01
-10.14
-11.99
-8.74
-2.50
2.86
3.98
-0.08
-7.31
-13.92
-16.57
-14.22
-8.67
-3.45
-1.62
-4.05
-8.94
-12.98
-13.41
-9.69
-3.86
0.70
1.29
-2.45
-8.30
-12.72
-12.99
-8.85
-2.70
1.78
1.81
-2.84
-9.65
-14.78
-15.30
-10.87
-3.94
1.62
2.87
-0.59
-6.32
-10.52
-10.25
-5.11
2.50
8.77
10.74
7.98
2.89
-0.87
-0.47
4.34
11.13
16.29
17.25
13.97
9.01
5.93
7.17
12.52
19.30
23.98
24.29
20.60
15.72
13.20
15.20
21.23
28.34
32.87
32.56
27.96
22.06
18.61
19.90
25.41
32.06
35.99
34.85
29.12
21.93
17.21
17.48
22.31
28.64
32.46
31.20
25.13
17.22
11.42
10.31
13.70
18.76
21.75
20.22
14.44
7.21
2.16
1.61
5.20
10.15
12.97
11.55
6.42
0.45
-2.95
-1.89
2.80
8.07
10.43
8.11
2.14
-4.21
-7.32
-5.41
0.37
6.63
9.65
7.60
1.61
-4.88
-8.11
-6.25
-0.45
5.86
8.94
6.97
1.06
-5.35
-8.57
-6.77
-1.04
5.27
8.50
6.83
1.28
-4.91
-8.22
-6.86
-1.81
3.84
6.67
5.10
0.17
-4.96
-7.02
-4.61
0.93
6.23
7.92
4.67
-1.94
-8.28
-10.73
-7.76
-0.91
6.11
9.52
7.58
1.61
-4.89
-8.22
-6.61
-1.20
4.70
7.63
5.99
0.96
-4.27
-6.48
-4.40
0.56
5.17
6.37
3.21
-2.57
-7.48
-8.40
-4.49
2.22
7.97
9.42
5.69
-1.14
-7.16
-8.90
-5.31
1.59
7.83
9.90
6.64
-0.01
-6.21
-8.47
-5.61
0.52
6.27
8.30
5.52
-0.29
-5.68
-7.53
-4.92
0.40
5.10
6.30
3.29
-2.04
-6.41
-7.12
-3.71
1.83
6.16
6.66
2.96
-2.78
-7.16
-7.52
-3.51
2.71
7.60
8.45
4.80
-1.19
-6.05
-7.07
-3.80
1.62
5.81
6.15
2.28
-3.55
-7.95
-8.34
-4.49
1.34
5.74
6.23
2.61
-2.84
-6.75
-6.72
-2.71
2.91
6.74
6.43
2.03
-3.88
-7.77
-7.21
-2.38
3.98
8.15
7.59
2.49
-4.33
-8.95
-8.74
-3.79
3.05
7.87
7.97
3.42
-2.99
-7.40
-7.14
-2.27
4.42
9.06
9.03
4.38
-2.16
-6.84
-7.09
-2.99
2.78
6.58
6.02
1.32
-4.73
-8.46
-7.52
-2.29
4.24
8.29
7.41
2.02
-4.85
-9.24
-8.58
-3.17
3.96
8.84
8.80
4.04
-2.59
-7.26
-7.42
-3.24
2.60
6.50
6.20
2.03
-3.27
-6.29
-5.06
-0.28
5.06
7.58
5.45
-0.36
-6.62
-9.70
-7.67
-1.46
5.61
9.75
8.78
3.44
-3.18
-7.38
-6.99
-2.56
3.04
6.33
5.28
0.51
-5.05
-7.96
-6.31
-0.90
5.20
8.43
6.90
1.46
-4.76
-8.21
-6.94
-1.77
4.25
7.63
6.50
1.73
-3.65
-6.29
-4.52
0.59
5.90
8.03
5.45
-0.61
-6.72
-9.30
-6.67
-0.11
6.81
10.30
8.48
2.53
-4.15
-7.86
-6.78
-1.92
3.51
6.12
4.32
-0.71
-5.83
-7.81
-5.36
0.08
5.19
6.76
3.66
-2.46
-8.04
-9.67
-6.12
0.86
7.54
10.31
7.74
1.42
-5.02
-8.00
-6.03
-0.47
5.31
7.94
6.03
0.88
-4.31
-6.46
-4.37
0.53
5.08
6.33
3.32
-2.31
-7.21
-8.32
-4.71
1.76
7.49
9.18
5.80
-0.80
-6.92
-9.15
-6.27
-0.01
6.05
8.50
6.11
0.51
-4.86
-6.79
-4.24
1.06
5.71
6.64
3.04
-3.15
-8.30
-9.26
-5.21
1.74
7.76
9.51
6.07
-0.53
-6.56
-8.72
-6.06
-0.43
4.71
6.33
3.66
-1.43
-5.62
-6.14
-2.54
3.06
7.26
7.34
3.04
-3.34
-8.11
-8.43
-3.96
2.85
8.18
9.02
4.92
-1.68
-6.93
-7.76
-3.65
3.04
8.48
9.60
5.83
-0.63
-6.06
-7.46
-4.22
1.52
6.20
6.95
3.28
-2.68
-7.42
-8.19
-4.59
1.16
5.58
6.02
2.21
-3.55
-7.74
-7.78
-3.48
2.79
7.47
7.91
3.92
-2.17
-6.85
-7.50
-3.90
1.72
5.93
6.24
2.49
-2.99
-6.83
-6.65
-2.46
3.31
7.22
6.92
2.51
-3.43
-7.48
-7.30
-3.03
2.81
6.81
6.74
2.79
-2.56
-6.03
-5.52
-1.27
4.20
7.63
6.88
2.24
-3.78
-7.85
-7.70
-3.44
2.49
6.72
6.91
3.06
-2.40
-6.07
-5.58
-1.02
5.01
8.92
8.26
3.19
-3.46
-7.85
-7.43
-2.42
4.26
8.63
8.10
2.98
-3.69
-8.01
-7.50
-2.60
3.59
7.25
6.09
0.76
-5.59
-9.21
-7.95
-2.51
3.97
7.81
6.89
1.85
-4.32
-8.07
-7.32
-2.61
3.23
6.73
5.85
1.09
-4.74
-8.14
-6.97
-1.75
4.61
8.43
7.51
2.34
-4.02
-7.79
-6.68
-1.29
5.25
9.09
8.00
2.65
-3.75
-7.43
-6.32
-1.24
4.59
7.54
5.77
0.33
-5.54
-8.30
-6.27
-0.61
5.35
8.12
6.07
0.43
-5.49
-8.23
-6.16
-0.47
5.54
8.43
6.55
0.95
-5.18
-8.42
-7.00
-1.82
4.11
7.44
6.38
1.69
-3.76
-6.72
-5.43
-0.71
4.59
7.19
5.36
0.04
-5.72
-8.48
-6.48
-0.71
5.59
8.80
7.06
1.37
-4.98
-8.28
-6.63
-1.03
5.15
8.26
6.47
0.89
-5.10
-7.85
-5.67
0.16
6.16
8.72
6.24
0.09
-6.19
-8.99
-6.76
-0.91
5.09
7.70
5.51
-0.07
-5.58
-7.61
-4.90
0.96
6.44
8.15
4.94
-1.45
-7.33
-9.25
-6.02
0.54
6.70
8.92
6.03
-0.24
-6.20
-8.42
-5.75
0.05
5.42
7.08
4.04
-1.89
-7.12
-8.43
-4.91
1.49
7.09
8.61
5.17
-1.25
-6.87
-8.33
-4.70
2.02
7.98
9.75
6.33
-0.35
-6.43
-8.44
-5.25
1.24
7.21
9.15
5.90
-0.70
-6.80
-8.80
-5.44
1.41
7.89
10.31
7.32
0.69
-5.81
-8.57
-6.26
-0.53
5.02
6.99
4.26
-1.44
-6.59
-8.07
-5.00
0.68
5.41
6.16
2.29
-4.02
-9.04
-9.63
-5.13
2.16
8.27
9.87
6.10
-0.83
-7.04
-9.09
-5.96
0.45
6.45
8.77
6.33
0.84
-4.33
-6.15
-3.74
1.23
5.60
6.60
3.60
-1.58
-5.76
-6.33
-2.86
2.63
6.81
7.04
3.01
-3.11
-7.85
-8.48
-4.63
1.46
6.27
7.01
3.27
-2.73
-7.43
-7.95
-3.84
2.69
8.01
9.12
5.42
-0.96
-6.40
-7.87
-4.69
1.08
5.92
6.89
3.44
-2.32
-6.87
-7.33
-3.26
3.04
7.94
8.55
4.47
-2.00
-7.15
-8.04
-4.20
2.08
7.13
8.00
4.22
-1.96
-6.88
-7.59
-3.60
2.75
7.73
8.33
4.08
-2.66
-8.05
-9.00
-4.96
1.70
7.10
8.11
4.21
-2.24
-7.35
-8.03
-3.81
2.87
8.12
8.87
4.71
-1.88
-7.01
-7.66
-3.50
2.92
7.73
7.98
3.49
-3.12
-7.94
-8.12
-3.56
2.98
7.58
7.43
2.55
-4.21
-8.87
-8.64
-3.57
3.42
8.32
8.36
3.58
-3.15
-7.85
-7.81
-3.15
3.24
7.46
6.94
1.93
-4.58
-8.71
-7.96
-2.75
3.89
8.12
7.57
2.76
-3.34
-7.05
-6.24
-1.55
4.04
7.08
5.64
0.50
-5.40
-8.68
-7.43
-2.36
3.68
7.31
6.59
2.04
-3.62
-7.02
-6.08
-1.25
4.75
8.43
7.60
2.63
-3.68
-7.66
-7.00
-2.09
4.16
7.99
7.01
1.68
-4.99
-9.14
-8.32
-2.93
3.97
8.52
8.22
3.43
-2.94
-7.11
-6.65
-1.85
4.42
8.46
7.96
3.31
-2.63
-6.25
-5.41
-0.74
4.75
7.54
5.68
0.07
-6.12
-9.25
-7.39
-1.49
5.17
8.87
7.61
2.22
-4.16
-7.94
-7.06
-2.22
3.66
7.10
6.17
1.55
-3.87
-6.76
-5.36
-0.60
4.50
6.63
4.21
-1.59
-7.48
-9.97
-7.38
-0.90
6.07
9.87
8.58
3.16
-3.22
-6.95
-6.05
-1.27
4.45
7.64
6.46
1.62
-3.94
-6.92
-5.57
-0.80
4.40
6.77
4.76
-0.51
-5.91
-8.10
-5.63
0.19
6.02
8.43
5.90
-0.24
-6.56
-9.54
-7.50
-1.65
4.69
7.98
6.50
1.36
-4.23
-6.86
-5.03
0.03
5.08
6.88
4.16
-1.63
-7.15
-9.13
-6.32
-0.21
5.81
8.42
6.24
0.63
-5.16
-7.80
-5.75
-0.21
5.64
8.46
6.66
1.41
-4.06
-6.40
-4.11
1.45
6.88
8.73
5.68
-0.73
-6.96
-9.54
-7.17
-1.36
4.42
6.82
4.56
-0.92
-6.29
-8.32
-5.69
0.20
6.05
8.57
6.37
0.83
-4.68
-6.78
-4.08
1.90
7.60
9.52
6.34
-0.28
-6.65
-9.28
-6.86
-1.02
4.72
7.03
4.74
-0.61
-5.67
-7.31
-4.45
1.32
6.66
8.47
5.67
-0.16
-5.65
-7.67
-5.14
0.32
5.31
6.70
3.45
-2.65
-8.09
-9.63
-6.25
0.25
6.26
8.45
5.72
-0.22
-5.85
-7.96
-5.46
-0.03
4.95
6.42
3.47
-2.09
-6.83
-7.75
-4.14
1.99
7.07
8.07
4.34
-1.98
-7.15
-8.03
-3.92
2.96
8.73
10.13
6.35
-0.42
-6.33
-8.07
-4.77
1.52
7.11
8.81
5.76
-0.13
-5.35
-6.87
-3.90
1.69
6.49
7.60
4.35
-1.38
-6.23
-7.34
-4.04
1.72
6.56
7.60
4.18
-1.77
-6.85
-8.17
-4.96
0.92
6.09
7.63
4.72
-0.90
-5.96
-7.56
-4.87
0.40
5.04
6.23
3.24
-2.14
-6.65
-7.53
-4.10
1.72
6.57
7.65
4.36
-1.32
-6.02
-6.96
-3.57
2.14
6.75
7.53
3.96
-1.92
-6.72
-7.75
-4.51
0.98
5.42
6.21
2.94
-2.34
-6.43
-6.85
-3.29
2.19
6.36
6.80
3.27
-2.15
-6.30
-6.79
-3.39
1.82
5.73
5.99
2.43
-2.86
-6.77
-6.95
-3.22
2.34
6.53
6.94
3.31
-2.28
-6.61
-7.15
-3.54
2.15
6.64
7.32
3.82
-1.78
-6.11
-6.54
-2.68
3.25
7.76
8.14
4.11
-1.97
-6.47
-6.68
-2.41
3.78
8.15
7.97
3.20
-3.45
-8.10
-8.00
-3.17
3.61
8.43
8.54
3.98
-2.49
-7.05
-7.09
-2.72
3.27
7.17
6.54
1.68
-4.54
-8.44
-7.73
-2.84
3.29
7.00
6.09
1.11
-4.98
-8.56
-7.53
-2.47
3.66
7.29
6.36
1.43
-4.61
-8.21
-7.28
-2.29
3.92
7.85
7.31
2.70
-3.23
-7.01
-6.45
-1.88
4.03
7.80
7.21
2.58
-3.44
-7.38
-7.02
-2.66
3.12
6.88
6.50
2.29
-3.12
-6.42
-5.61
-1.20
4.10
6.97
5.53
0.49
-5.25
-8.28
-6.74
-1.45
4.52
7.67
6.08
0.61
-5.58
-8.84
-7.15
-1.33
5.40
9.29
8.20
2.84
-3.66
-7.53
-6.56
-1.30
5.22
9.32
8.76
3.97
-2.20
-6.22
-5.90
-1.65
3.82
7.08
6.10
1.35
-4.40
-7.79
-6.83
-2.11
3.58
6.88
5.86
1.20
-4.30
-7.31
-5.99
-1.05
4.62
7.69
6.30
1.20
-4.73
-8.16
-7.25
-2.69
2.70
5.66
4.40
-0.28
-5.56
-8.20
-6.49
-1.28
4.51
7.59
6.24
1.25
-4.47
-7.66
-6.54
-1.86
3.57
6.52
5.25
0.53
-4.82
-7.51
-5.79
-0.48
5.45
8.58
7.01
1.54
-4.76
-8.30
-6.99
-1.50
5.11
9.15
8.43
3.50
-2.65
-6.36
-5.45
-0.52
5.40
8.69
7.31
2.01
-4.07
-7.32
-5.80
-0.48
5.35
8.03
5.80
-0.13
-6.28
-9.04
-6.77
-0.84
5.17
7.69
5.20
-0.82
-6.84
-9.32
-6.80
-0.74
5.38
8.07
5.85
0.07
-5.91
-8.63
-6.54
-0.89
5.07
7.90
6.03
0.65
-4.96
-7.39
-5.15
0.49
6.17
8.51
6.04
0.16
-5.73
-8.25
-5.98
-0.28
5.48
7.96
5.73
0.11
-5.62
-8.13
-5.94
-0.29
5.58
8.31
6.37
1.02
-4.53
-6.95
-4.80
0.52
5.69
7.39
4.37
-1.81
-7.62
-9.63
-6.56
-0.00
6.44
9.26
7.01
1.17
-4.83
-7.51
-5.43
0.06
5.58
7.76
5.26
-0.49
-6.08
-8.19
-5.52
0.36
6.01
8.07
5.32
-0.59
-6.14
-7.98
-4.95
1.24
6.93
8.75
5.56
-0.85
-6.81
-8.94
-6.09
-0.05
5.55
7.41
4.46
-1.52
-7.03
-8.89
-6.08
-0.31
5.02
6.82
4.11
-1.47
-6.55
-8.05
-4.92
1.16
6.79
8.72
5.82
-0.26
-5.98
-7.95
-4.92
1.43
7.47
9.75
6.96
0.78
-5.14
-7.34
-4.53
1.62
7.51
9.71
7.02
1.09
-4.58
-6.73
-4.34
0.86
5.44
6.32
2.73
-3.40
-8.48
-9.44
-5.55
1.04
6.59
7.92
4.27
-2.19
-7.69
-8.99
-5.23
1.54
7.57
9.61
6.72
0.78
-4.69
-6.66
-4.32
0.52
4.59
5.16
1.72
-3.74
-7.86
-7.95
-3.64
2.80
7.75
8.30
4.02
-2.77
-8.21
-9.15
-4.93
2.22
8.33
10.09
6.61
0.01
-5.92
-7.94
-5.16
0.46
5.40
6.71
3.72
-1.58
-5.82
-6.34
-2.79
2.68
6.69
6.71
2.57
-3.37
-7.64
-7.69
-3.41
2.73
7.11
7.10
2.58
-3.91
-8.63
-8.78
-4.14
2.73
8.00
8.71
4.49
-2.20
-7.49
-8.32
-4.18
2.59
8.16
9.42
5.77
-0.57
-5.91
-7.26
-4.08
1.45
5.83
6.28
2.52
-3.21
-7.38
-7.36
-3.03
3.15
7.56
7.56
3.03
-3.50
-8.34
-8.74
-4.41
2.22
7.50
8.55
5.04
-0.73
-5.15
-5.43
-1.33
4.71
8.97
8.72
3.79
-3.21
-8.46
-9.12
-5.03
1.26
6.01
6.45
2.49
-3.38
-7.50
-7.33
-2.88
3.26
7.44
7.16
2.44
-4.07
-8.69
-8.75
-4.13
2.63
7.85
8.76
5.10
-0.83
-5.52
-6.38
-3.18
1.84
5.36
5.05
0.90
-4.66
-8.25
-7.58
-2.85
3.28
7.29
6.79
2.07
-4.10
-8.06
-7.39
-2.36
4.19
8.50
8.08
3.16
-3.41
-7.82
-7.54
-2.76
3.66
7.93
7.53
2.72
-3.62
-7.66
-6.91
-1.71
4.93
9.08
8.21
2.71
-4.34
-8.89
-8.33
-3.02
3.95
8.55
8.18
3.18
-3.39
-7.54
-6.73
-1.38
5.40
9.64
8.80
3.30
-3.76
-8.37
-7.96
-2.91
3.71
7.96
7.30
2.10
-4.58
-8.78
-7.96
-2.54
4.36
8.74
8.05
2.71
-4.15
-8.48
-7.76
-2.44
4.31
8.45
7.53
2.07
-4.68
-8.69
-7.58
-1.99
4.76
8.68
7.46
1.85
-4.81
-8.60
-7.29
-1.72
4.77
8.33
6.89
1.37
-4.94
-8.32
-6.85
-1.47
4.60
7.80
6.33
1.15
-4.63
-7.60
-6.00
-0.77
5.05
8.06
6.51
1.21
-4.84
-8.24
-7.10
-2.13
3.78
7.16
6.06
1.12
-4.67
-7.79
-6.25
-0.81
5.41
8.75
7.18
1.57
-4.91
-8.56
-7.38
-2.19
3.84
7.13
5.74
0.52
-5.45
-8.68
-7.32
-2.17
3.76
7.08
5.97
1.24
-4.13
-6.77
-4.94
0.41
6.17
8.85
6.73
0.95
-5.17
-8.03
-5.92
-0.07
6.07
8.84
6.52
0.41
-6.06
-9.25
-7.42
-1.72
4.52
7.78
6.33
1.18
-4.58
-7.54
-6.01
-0.94
4.65
7.40
5.66
0.40
-5.29
-8.05
-6.21
-0.83
4.97
7.74
5.87
0.51
-5.07
-7.47
-5.20
0.43
6.02
8.18
5.50
-0.52
-6.41
-8.79
-6.28
-0.37
5.53
8.06
5.89
0.38
-5.19
-7.62
-5.56
-0.28
5.11
7.43
5.37
0.11
-5.25
-7.48
-5.11
0.65
6.63
9.46
7.53
2.00
-3.90
-6.71
-4.80
0.62
6.23
8.58
6.11
0.22
-5.63
-7.97
-5.42
0.48
6.11
8.03
4.98
-1.34
-7.31
-9.51
-6.75
-0.71
4.99
7.05
4.29
-1.63
-7.30
-9.49
-7.03
-1.43
4.02
6.21
3.96
-1.31
-6.40
-8.16
-5.36
0.58
6.41
8.87
6.63
1.06
-4.52
-6.76
-4.28
1.52
7.19
9.29
6.45
0.20
-5.91
-8.34
-5.70
0.44
6.46
8.82
6.18
0.15
-5.64
-7.68
-4.72
1.51
7.29
9.16
5.96
-0.43
-6.24
-8.02
-4.74
1.59
7.11
8.38
4.48
-2.44
-8.44
-10.12
-6.57
0.06
5.90
7.63
4.42
-1.70
-7.06
-8.54
-5.35
0.59
5.81
7.35
4.45
-1.11
-6.04
-7.42
-4.44
1.16
6.13
7.53
4.45
-1.42
-6.67
-8.19
-4.93
1.40
7.22
9.22
6.22
0.01
-5.75
-7.61
-4.47
1.81
7.40
8.90
5.30
-1.31
-7.04
-8.51
-4.88
1.67
7.21
8.45
4.67
-1.87
-7.37
-8.71
-5.28
0.68
5.52
6.34
2.71
-3.16
-7.71
-8.17
-4.15
2.12
7.15
8.13
4.64
-1.22
-5.99
-6.89
-3.41
2.37
7.04
7.81
4.19
-1.76
-6.56
-7.35
-3.63
2.50
7.44
8.29
4.48
-1.80
-6.93
-7.92
-4.23
1.96
6.98
7.86
4.07
-2.14
-7.13
-8.03
-4.41
1.47
6.00
6.43
2.49
-3.51
-7.99
-8.26
-4.03
2.36
7.35
8.17
4.43
-1.67
-6.65
-7.66
-4.21
1.64
6.43
7.31
3.75
-2.15
-6.84
-7.41
-3.35
3.13
8.35
9.29
5.44
-0.93
-6.07
-6.98
-3.19
2.98
7.78
8.27
4.09
-2.35
-7.28
-7.83
-3.73
2.53
7.19
7.43
3.05
-3.39
-8.08
-8.19
-3.55
3.19
8.17
8.49
3.94
-2.87
-8.05
-8.68
-4.54
1.79
6.48
6.69
2.31
-4.05
-8.54
-8.40
-3.67
2.90
7.41
7.17
2.29
-4.41
-8.98
-8.74
-3.80
2.95
7.65
7.64
3.09
-3.19
-7.38
-6.94
-2.10
4.30
8.47
7.92
2.93
-3.59
-7.81
-7.23
-2.16
4.43
8.67
8.00
2.75
-4.11
-8.64
-8.29
-3.32
3.28
7.66
7.30
2.50
-3.80
-7.76
-6.92
-1.63
5.07
9.32
8.56
3.13
-3.97
-8.76
-8.54
-3.46
3.58
8.61
8.85
4.31
-2.27
-7.03
-7.23
-2.84
3.44
7.86
7.76
3.21
-3.10
-7.36
-6.95
-1.99
4.68
9.17
8.82
3.73
-3.25
-8.23
-8.46
-3.94
2.63
7.42
7.76
3.68
-2.22
-6.33
-6.22
-2.11
3.30
6.53
5.36
0.28
-5.83
-9.37
-8.16
-2.76
3.81
7.84
7.11
2.12
-4.17
-8.14
-7.54
-2.78
3.33
7.27
6.85
2.50
-3.06
-6.44
-5.62
-1.17
4.11
6.85
5.19
-0.11
-6.01
-8.97
-7.03
-1.06
5.71
9.51
8.18
2.48
-4.34
-8.39
-7.36
-1.85
4.96
9.19
8.46
3.26
-3.40
-7.73
-7.40
-2.83
3.13
6.86
6.23
1.73
-3.78
-6.87
-5.57
-0.57
5.18
8.20
6.59
1.15
-5.03
-8.43
-7.13
-1.98
3.91
6.97
5.33
-0.09
-6.10
-9.16
-7.44
-1.89
4.29
7.55
6.08
0.88
-4.82
-7.48
-5.36
0.39
6.48
9.29
7.14
1.20
-5.11
-8.14
-6.21
-0.57
5.35
7.95
5.63
-0.30
-6.34
-8.91
-6.49
-0.47
5.67
8.41
6.25
0.59
-5.15
-7.54
-5.20
0.46
6.03
8.13
5.42
-0.61
-6.54
-8.98
-6.54
-0.68
5.23
7.78
5.54
-0.20
-6.12
-8.87
-6.91
-1.45
4.35
7.14
5.38
0.14
-5.41
-7.95
-5.90
-0.36
5.51
8.33
6.48
1.12
-4.55
-7.13
-5.05
0.45
6.08
8.45
6.03
0.13
-5.89
-8.57
-6.32
-0.39
5.87
8.97
7.24
1.80
-4.08
-6.91
-5.01
0.50
6.34
9.00
6.82
1.02
-5.04
-7.84
-5.79
-0.19
5.54
7.93
5.48
-0.43
-6.39
-8.92
-6.56
-0.66
5.40
8.16
6.13
0.61
-5.07
-7.50
-5.19
0.53
6.27
8.57
5.95
-0.20
-6.40
-9.13
-6.88
-1.05
4.93
7.57
5.40
-0.20
-5.89
-8.30
-6.04
-0.48
5.09
7.39
5.06
-0.49
-6.00
-8.18
-5.72
-0.01
5.63
7.88
5.40
-0.42
-6.25
-8.75
-6.49
-0.81
5.02
7.71
5.83
0.70
-4.48
-6.50
-4.05
1.44
6.66
8.37
5.36
-0.81
-6.64
-8.78
-5.93
0.29
6.39
8.93
6.56
0.77
-5.00
-7.39
-5.05
0.59
6.13
8.26
5.66
-0.16
-5.81
-7.96
-5.37
0.38
5.82
7.63
4.64
-1.51
-7.25
-9.25
-6.29
0.01
6.10
8.61
6.24
0.52
-5.12
-7.33
-4.79
0.98
6.51
8.42
5.45
-0.80
-6.71
-8.83
-5.91
0.37
6.30
8.42
5.50
-0.74
-6.65
-8.78
-5.92
0.25
6.13
8.32
5.60
-0.42
-6.17
-8.29
-5.51
0.53
6.28
8.34
5.50
-0.55
-6.26
-8.29
-5.55
0.14
5.24
6.58
3.28
-2.69
-7.74
-8.75
-4.94
1.68
7.46
9.21
6.06
-0.13
-5.80
-7.76
-5.02
0.69
5.95
7.66
4.86
-0.69
-5.57
-6.75
-3.39
2.63
7.75
8.91
5.30
-1.15
-6.85
-8.65
-5.60
0.45
6.01
7.90
5.11
-0.60
-5.80
-7.39
-4.41
1.39
6.51
7.85
4.52
-1.72
-7.28
-9.02
-5.95
0.09
5.55
7.24
4.19
-1.72
-6.96
-8.32
-4.87
1.48
7.11
8.79
5.59
-0.66
-6.30
-8.10
-5.09
0.91
6.31
7.99
5.03
-0.67
-5.60
-6.75
-3.39
2.49
7.38
8.29
4.58
-1.71
-7.01
-8.30
-4.86
1.30
6.59
7.97
4.65
-1.43
-6.75
-8.28
-5.22
0.51
5.41
6.43
2.84
-3.34
-8.42
-9.29
-5.21
1.67
7.54
9.15
5.68
-0.74
-6.34
-7.85
-4.41
1.93
7.44
8.88
5.47
-0.78
-6.16
-7.57
-4.27
1.70
6.66
7.61
3.93
-2.19
-7.05
-7.66
-3.53
2.95
8.01
8.63
4.39
-2.30
-7.61
-8.53
-4.59
1.83
6.95
7.80
3.91
-2.43
-7.51
-8.44
-4.77
1.25
6.06
6.82
3.14
-2.77
-7.38
-7.88
-3.85
2.51
7.64
8.71
5.24
-0.61
-5.34
-6.18
-2.71
2.83
6.96
6.94
2.53
-3.88
-8.59
-8.76
-4.15
2.75
8.05
8.81
4.66
-1.90
-7.07
-7.87
-3.94
2.29
7.12
7.70
3.76
-2.34
-6.94
-7.34
-3.32
2.76
7.29
7.66
3.65
-2.31
-6.69
-6.88
-2.76
3.18
7.34
7.12
2.48
-3.97
-8.48
-8.36
-3.57
3.20
8.08
8.31
3.81
-2.71
-7.39
-7.44
-2.82
3.80
8.55
8.65
4.04
-2.67
-7.64
-8.16
-4.17
1.77
6.01
6.03
1.87
-3.87
-7.71
-7.32
-2.86
3.06
6.99
6.67
2.32
-3.48
-7.30
-6.87
-2.41
3.50
7.40
7.01
2.48
-3.57
-7.70
-7.58
-3.39
2.33
6.14
5.76
1.44
-4.21
-7.70
-6.76
-1.70
4.75
8.97
8.56
3.75
-2.72
-7.14
-7.01
-2.46
3.85
8.21
8.13
3.68
-2.46
-6.70
-6.59
-2.28
3.60
7.52
7.09
2.54
-3.44
-7.29
-6.69
-1.98
3.99
7.59
6.55
1.29
-5.25
-9.34
-8.57
-3.27
3.66
8.45
8.59
4.26
-1.83
-6.08
-6.10
-2.11
3.26
6.52
5.45
0.38
-5.92
-9.87
-9.12
-3.94
2.88
7.66
7.90
3.78
-2.00
-5.88
-5.55
-1.33
3.99
6.87
5.14
-0.58
-7.17
-10.82
-9.24
-3.07
4.43
9.25
8.94
3.98
-2.56
-6.82
-6.38
-1.62
4.61
8.65
8.19
3.60
-2.34
-6.18
-5.79
-1.62
3.59
6.53
5.27
0.45
-5.14
-8.17
-6.78
-1.61
4.44
7.96
6.92
1.91
-4.28
-8.21
-7.76
-3.29
2.58
6.47
6.22
2.12
-3.32
-6.76
-6.06
-1.53
4.19
7.72
6.91
2.16
-3.74
-7.23
-6.15
-0.98
5.31
9.00
7.84
2.41
-4.13
-7.92
-6.67
-1.09
5.55
9.31
7.94
2.21
-4.52
-8.32
-7.00
-1.42
5.07
8.65
7.27
1.88
-4.20
-7.31
-5.64
-0.29
5.37
7.80
5.38
-0.65
-6.91
-9.90
-8.01
-2.47
3.41
6.21
4.40
-0.84
-6.31
-8.74
-6.64
-1.17
4.54
7.23
5.40
0.13
-5.51
-8.24
-6.45
-1.13
4.69
7.73
6.29
1.27
-4.40
-7.42
-6.03
-1.02
4.75
7.97
6.80
1.93
-3.77
-6.94
-5.67
-0.64
5.22
8.46
7.12
1.92
-4.14
-7.49
-6.14
-0.89
5.14
8.32
6.74
1.36
-4.54
-7.32
-5.23
0.57
6.62
9.28
6.90
0.82
-5.46
-8.32
-6.18
-0.40
5.52
8.04
5.64
-0.36
-6.57
-9.52
-7.63
-2.12
3.80
6.75
5.10
-0.07
-5.65
-8.31
-6.43
-1.06
4.68
7.47
5.73
0.53
-4.93
-7.32
-5.08
0.58
6.42
9.03
6.84
1.12
-4.80
-7.44
-5.23
0.53
6.42
8.88
6.35
0.13
-6.32
-9.39
-7.47
-1.85
4.10
6.91
5.09
-0.01
-5.09
-6.89
-4.17
1.57
6.93
8.68
5.67
-0.53
-6.48
-8.87
-6.41
-0.59
5.25
7.76
5.59
0.11
-5.36
-7.57
-5.14
0.57
6.21
8.50
6.08
0.28
-5.58
-8.20
-6.13
-0.70
4.88
7.32
5.20
-0.17
-5.55
-7.68
-5.21
0.48
5.97
7.89
4.91
-1.49
-7.75
-10.32
-7.74
-1.52
4.79
7.64
5.57
0.03
-5.52
-7.65
-5.00
0.97
6.79
9.10
6.58
0.71
-5.07
-7.41
-4.96
0.77
6.41
8.60
6.07
0.33
-5.22
-7.31
-4.76
0.84
6.04
7.64
4.53
-1.55
-7.11
-8.87
-5.73
0.54
6.40
8.48
5.61
-0.55
-6.44
-8.71
-6.10
-0.17
5.57
7.81
5.34
-0.26
-5.54
-7.29
-4.41
1.37
6.56
7.95
4.59
-1.71
-7.33
-8.98
-5.59
0.99
7.10
9.35
6.54
0.44
-5.32
-7.35
-4.49
1.49
6.95
8.56
5.28
-1.04
-6.73
-8.53
-5.50
0.48
5.79
7.32
4.23
-1.57
-6.62
-7.91
-4.70
1.11
6.12
7.38
4.17
-1.60
-6.50
-7.59
-4.17
1.78
6.77
7.83
4.31
-1.79
-6.92
-8.10
-4.66
1.43
6.62
7.97
4.77
-0.99
-5.86
-6.93
-3.54
2.29
7.12
8.01
4.33
-1.88
-7.11
-8.40
-5.08
0.85
5.84
6.97
3.59
-2.24
-7.00
-7.81
-4.10
1.99
6.89
7.69
3.87
-2.38
-7.37
-8.12
-4.11
2.42
7.73
8.82
5.15
-1.05
-6.15
-7.23
-3.77
1.99
6.53
7.01
3.06
-3.06
-7.76
-8.21
-4.05
2.46
7.60
8.48
4.62
-1.73
-6.89
-7.92
-4.32
1.70
6.53
7.31
3.59
-2.38
-7.03
-7.51
-3.43
2.95
7.98
8.75
4.80
-1.59
-6.73
-7.65
-3.83
2.45
7.46
8.22
4.23
-2.16
-7.21
-8.02
-4.25
1.70
6.10
6.24
1.99
-4.10
-8.38
-8.23
-3.67
2.70
7.21
7.24
2.78
-3.65
-8.35
-8.60
-4.21
2.39
7.57
8.50
4.81
-1.20
-5.93
-6.55
-2.66
3.46
8.13
8.52
4.27
-2.17
-6.99
-7.32
-2.87
3.78
8.71
9.01
4.47
-2.22
-7.12
-7.40
-3.04
3.19
7.42
7.01
2.14
-4.34
-8.62
-8.24
-3.48
2.81
6.95
6.58
2.01
-4.04
-8.05
-7.73
-3.30
2.64
6.73
6.67
2.61
-2.98
-6.74
-6.38
-2.04
3.76
7.52
6.89
2.01
-4.41
-8.72
-8.45
-3.76
2.60
6.94
6.79
2.39
-3.55
-7.39
-6.79
-2.02
4.19
8.26
7.85
3.23
-2.88
-6.90
-6.44
-1.73
4.50
8.56
7.99
3.01
-3.58
-8.01
-7.77
-3.07
3.23
7.37
6.90
2.14
-4.04
-7.94
-7.20
-2.19
4.24
8.43
8.04
3.42
-2.68
-6.71
-6.39
-2.09
3.47
6.81
5.77
0.81
-5.22
-8.80
-7.76
-2.61
3.77
7.75
7.13
2.32
-3.82
-7.72
-7.15
-2.48
3.50
7.27
6.62
2.02
-3.74
-7.13
-6.04
-1.02
4.97
8.35
7.03
1.66
-4.66
-8.27
-7.05
-1.65
4.85
8.75
7.86
2.78
-3.53
-7.46
-6.82
-2.15
3.66
7.06
5.95
0.88
-5.21
-8.73
-7.56
-2.33
3.93
7.56
6.44
1.27
-4.83
-8.20
-6.74
-1.21
5.24
8.92
7.76
2.50
-3.76
-7.38
-6.36
-1.46
4.34
7.55
6.27
1.28
-4.44
-7.47
-5.95
-0.75
5.10
8.13
6.48
1.06
-5.00
-8.14
-6.53
-1.12
4.87
7.87
6.06
0.45
-5.65
-8.65
-6.74
-1.02
5.15
8.12
6.07
0.15
-6.22
-9.27
-7.14
-0.98
5.73
9.16
7.36
1.42
-5.19
-8.65
-6.97
-1.22
5.22
8.60
7.01
1.49
-4.65
-7.82
-6.25
-0.99
4.72
7.44
5.54
0.20
-5.35
-7.71
-5.36
0.42
6.28
8.71
6.15
-0.13
-6.70
-9.92
-8.01
-2.08
4.48
8.04
6.75
1.63
-4.08
-6.90
-5.12
0.16
5.74
8.20
6.01
0.40
-5.36
-7.86
-5.63
-0.00
5.65
7.94
5.44
-0.44
-6.29
-8.66
-6.10
-0.00
6.22
9.10
7.13
1.63
-4.09
-6.67
-4.69
0.53
5.72
7.65
5.06
-0.65
-6.18
-8.26
-5.65
0.16
5.78
7.88
5.17
-0.79
-6.54
-8.69
-5.95
0.12
6.00
8.28
5.66
-0.34
-6.21
-8.52
-5.96
-0.05
5.74
8.02
5.48
-0.34
-5.96
-8.03
-5.28
0.71
6.38
8.34
5.34
-0.98
-7.02
-9.37
-6.76
-0.81
4.95
7.21
4.80
-0.68
-5.78
-7.31
-4.18
1.91
7.52
9.41
6.50
0.50
-5.09
-7.02
-4.20
1.63
6.92
8.39
4.97
-1.50
-7.41
-9.46
-6.61
-0.67
4.82
6.66
3.88
-1.75
-6.78
-8.10
-4.78
1.37
6.90
8.64
5.65
-0.32
-5.75
-7.44
-4.39
1.62
7.04
8.63
5.38
-0.80
-6.30
-7.90
-4.70
1.31
6.43
7.52
3.82
-2.59
-7.99
-9.22
-5.52
1.03
6.72
8.36
5.13
-1.04
-6.53
-8.17
-5.03
1.03
6.51
8.23
5.25
-0.59
-5.73
-7.06
-3.75
2.22
7.22
8.18
4.39
-1.95
-7.10
-7.99
-4.06
2.44
7.68
8.64
4.82
-1.47
-6.50
-7.38
-3.71
2.21
6.76
7.17
3.12
-3.06
-7.82
-8.42
-4.58
1.40
5.98
6.52
2.73
-3.10
-7.48
-7.83
-3.91
2.02
6.50
6.95
3.13
-2.75
-7.23
-7.67
-3.74
2.37
7.22
8.03
4.33
-1.76
-6.73
-7.71
-4.09
2.05
7.16
8.27
4.76
-1.19
-5.97
-6.64
-2.77
3.32
7.85
7.96
3.39
-3.32
-8.36
-8.87
-4.60
1.94
6.99
7.75
3.95
-2.04
-6.61
-7.06
-3.11
2.92
7.52
7.98
4.00
-2.09
-6.74
-7.24
-3.34
2.59
6.95
7.04
2.68
-3.66
-8.28
-8.47
-4.04
2.55
7.60
8.33
4.46
-1.66
-6.43
-7.06
-3.25
2.68
7.18
7.47
3.32
-2.90
-7.56
-7.90
-3.72
2.50
7.08
7.33
3.12
-3.00
-7.35
-7.31
-2.86
3.41
7.83
7.80
3.37
-2.86
-7.27
-7.34
-3.13
2.74
6.70
6.38
1.94
-3.99
-7.94
-7.61
-3.24
2.60
6.48
6.20
1.98
-3.64
-7.32
-6.82
-2.30
3.72
7.89
7.86
3.67
-2.27
-6.54
-6.67
-2.61
3.29
7.54
7.61
3.39
-2.69
-7.10
-7.24
-2.98
3.20
7.68
7.79
3.44
-2.86
-7.47
-7.72
-3.52
2.60
7.00
7.06
2.77
-3.28
-7.44
-7.14
-2.46
3.95
8.38
8.24
3.60
-2.84
-7.40
-7.51
-3.22
2.83
7.01
6.85
2.47
-3.49
-7.46
-7.06
-2.48
3.65
7.75
7.50
3.09
-2.87
-6.92
-6.76
-2.63
2.92
6.50
5.94
1.55
-4.02
-7.42
-6.57
-1.91
3.84
7.24
6.25
1.38
-4.53
-8.01
-6.99
-2.07
3.84
7.17
5.86
0.56
-5.71
-9.27
-8.00
-2.55
3.98
7.86
6.89
1.70
-4.60
-8.23
-6.98
-1.51
5.05
8.87
7.74
2.31
-4.25
-8.10
-7.02
-1.68
4.78
8.57
7.50
2.25
-4.07
-7.67
-6.36
-0.83
5.74
9.56
8.43
2.98
-3.66
-7.69
-6.83
-1.66
4.75
8.65
7.76
2.58
-3.90
-7.98
-7.33
-2.40
3.88
7.85
7.18
2.31
-3.90
-7.85
-7.26
-2.53
3.48
7.18
6.37
1.54
-4.45
-8.05
-7.11
-2.13
3.96
7.59
6.58
1.48
-4.81
-8.69
-7.95
-3.04
3.20
7.19
6.68
2.06
-3.93
-7.75
-7.12
-2.40
3.67
7.57
7.02
2.38
-3.63
-7.50
-7.02
-2.54
3.22
6.79
6.09
1.64
-3.73
-6.60
-5.05
0.15
5.90
8.68
6.61
0.69
-5.78
-9.07
-7.21
-1.21
5.53
9.20
7.73
2.02
-4.62
-8.44
-7.36
-2.22
3.79
7.07
5.66
0.46
-5.37
-8.29
-6.42
-0.75
5.49
8.62
6.81
1.01
-5.42
-8.74
-6.97
-1.08
5.53
9.03
7.39
1.58
-5.00
-8.47
-6.76
-0.87
5.75
9.20
7.48
1.63
-4.86
-8.11
-6.19
-0.27
6.09
9.02
6.73
0.55
-5.87
-8.68
-6.20
0.16
6.67
9.52
7.10
0.86
-5.55
-8.49
-6.42
-0.78
4.96
7.38
5.08
-0.53
-6.13
-8.48
-6.23
-0.72
4.87
7.35
5.36
0.09
-5.41
-7.95
-6.08
-0.88
4.68
7.34
5.57
0.41
-5.09
-7.59
-5.51
0.04
5.84
8.45
6.25
0.47
-5.55
-8.32
-6.23
-0.56
5.34
8.02
5.94
0.39
-5.35
-7.92
-5.86
-0.46
5.03
7.35
5.12
-0.25
-5.52
-7.44
-4.78
0.93
6.33
8.15
5.24
-0.83
-6.56
-8.68
-5.95
0.03
5.83
8.16
5.76
0.18
-5.21
-7.16
-4.48
1.29
6.71
8.49
5.43
-0.87
-6.88
-9.21
-6.54
-0.46
5.54
8.07
5.77
0.17
-5.31
-7.37
-4.75
1.02
6.49
8.37
5.48
-0.57
-6.27
-8.33
-5.55
0.39
6.02
8.06
5.40
-0.30
-5.61
-7.37
-4.58
1.02
6.00
7.27
3.97
-2.02
-7.16
-8.35
-4.82
1.44
6.75
7.99
4.36
-2.05
-7.54
-8.93
-5.43
0.92
6.50
8.15
5.04
-0.95
-6.33
-8.04
-5.19
0.46
5.57
7.18
4.42
-0.92
-5.54
-6.55
-3.23
2.47
7.12
7.78
3.85
-2.63
-8.01
-9.23
-5.57
0.92
6.60
8.32
5.22
-0.73
-5.93
-7.24
-3.80
2.45
7.88
9.29
5.83
-0.59
-6.32
-8.16
-5.24
0.52
5.62
7.05
4.03
-1.43
-5.89
-6.44
-2.52
3.73
8.70
9.40
5.28
-1.45
-7.05
-8.41
-4.85
1.45
6.75
7.93
4.29
-2.02
-7.29
-8.46
-4.90
1.25
6.30
7.27
3.61
-2.51
-7.47
-8.36
-4.68
1.30
6.02
6.62
2.71
-3.43
-8.13
-8.54
-4.27
2.36
7.61
8.55
4.72
-1.58
-6.64
-7.52
-3.72
2.48
7.41
8.14
4.25
-2.02
-7.00
-7.82
-4.07
2.01
6.79
7.48
3.69
-2.26
-6.78
-7.12
-2.98
3.20
7.78
7.97
3.61
-2.82
-7.55
-7.83
-3.48
2.92
7.61
7.85
3.51
-2.87
-7.55
-7.82
-3.53
2.84
7.63
8.11
4.14
-1.87
-6.33
-6.63
-2.70
2.94
6.75
6.30
1.67
-4.48
-8.54
-8.09
-3.33
3.08
7.48
7.41
3.00
-3.17
-7.53
-7.64
-3.57
2.13
6.00
5.65
1.24
-4.60
-8.30
-7.48
-2.34
4.34
8.86
8.68
3.98
-2.51
-7.04
-7.07
-2.70
3.39
7.54
7.25
2.69
-3.45
-7.49
-7.02
-2.32
3.76
7.50
6.56
1.37
-5.03
-8.84
-7.70
-2.10
4.83
9.24
8.72
3.72
-2.78
-7.00
-6.63
-2.09
3.80
7.46
6.68
1.89
-4.12
-7.85
-7.08
-2.25
3.84
7.63
6.90
2.04
-4.15
-8.05
-7.39
-2.54
3.66
7.55
6.85
1.97
-4.15
-7.89
-7.04
-2.12
3.86
7.31
6.10
0.88
-5.31
-8.77
-7.37
-1.79
4.91
8.95
8.16
3.17
-2.98
-6.57
-5.45
-0.25
5.91
9.32
7.84
2.20
-4.40
-8.25
-7.26
-2.19
3.83
7.19
5.91
0.81
-5.03
-8.13
-6.59
-1.29
4.70
7.88
6.44
1.23
-4.62
-7.59
-5.86
-0.39
5.62
8.58
6.66
0.91
-5.33
-8.43
-6.61
-0.98
5.05
7.91
5.91
0.28
-5.67
-8.49
-6.59
-1.21
4.42
6.97
4.96
-0.42
-6.02
-8.56
-6.51
-0.97
4.94
7.87
6.16
0.77
-5.23
-8.40
-6.92
-1.68
4.26
7.42
5.96
0.79
-4.96
-7.75
-5.77
-0.03
6.20
9.28
7.36
1.56
-4.74
-7.82
-5.85
-0.02
6.21
9.11
6.96
1.04
-5.11
-7.82
-5.49
0.48
6.49
8.94
6.39
0.40
-5.40
-7.50
-4.60
1.55
7.24
8.97
5.58
-1.12
-7.32
-9.52
-6.54
-0.25
5.59
7.52
4.46
-1.73
-7.33
-8.98
-5.71
0.55
6.14
7.76
4.51
-1.68
-7.15
-8.68
-5.32
1.00
6.63
8.36
5.23
-0.85
-6.30
-7.93
-4.83
1.10
6.31
7.67
4.32
-1.81
-7.19
-8.70
-5.48
0.62
6.11
7.92
5.12
-0.55
-5.76
-7.50
-4.82
0.66
5.74
7.43
4.76
-0.73
-5.82
-7.54
-4.88
0.59
5.61
7.17
4.28
-1.37
-6.37
-7.60
-4.11
2.26
7.87
9.47
6.06
-0.36
-6.06
-7.71
-4.40
1.81
7.12
8.26
4.44
-2.16
-7.70
-8.98
-5.26
1.27
6.82
8.24
4.89
-1.12
-6.19
-7.32
-3.92
1.91
6.66
7.43
3.72
-2.37
-7.30
-8.15
-4.33
2.03
7.39
8.75
5.44
-0.51
-5.57
-6.80
-3.57
2.06
6.54
7.03
3.06
-3.10
-7.84
-8.37
-4.38
1.74
6.34
6.72
2.72
-3.21
-7.47
-7.44
-3.04
3.27
7.87
8.15
3.96
-2.26
-6.94
-7.40
-3.42
2.63
7.20
7.60
3.60
-2.45
-6.98
-7.30
-3.21
2.93
7.53
7.94
3.98
-1.91
-6.19
-6.31
-2.24
3.49
7.33
6.78
2.00
-4.40
-8.75
-8.53
-3.83
2.68
7.30
7.47
3.19
-2.92
-7.25
-7.27
-2.99
2.99
7.11
6.85
2.34
-3.79
-7.91
-7.57
-2.98
3.08
6.93
6.25
1.42
-4.69
-8.44
-7.56
-2.51
3.83
7.83
7.25
2.51
-3.62
-7.60
-7.15
-2.55
3.51
7.53
7.23
2.81
-3.05
-6.81
-6.17
-1.46
4.57
8.25
7.28
2.10
-4.35
-8.35
-7.62
-2.65
3.55
7.31
6.42
1.49
-4.51
-7.99
-6.83
-1.64
4.66
8.52
7.85
3.13
-2.78
-6.40
-5.63
-0.96
4.78
8.10
6.93
1.87
-4.19
-7.73
-6.70
-1.75
4.16
7.45
6.12
0.81
-5.45
-9.08
-8.00
-2.84
3.44
7.32
6.69
2.17
-3.38
-6.50
-5.21
-0.23
5.44
8.30
6.48
0.83
-5.49
-8.86
-7.35
-1.84
4.53
8.11
6.92
1.79
-4.16
-7.38
-5.96
-0.72
5.18
8.23
6.57
1.09
-5.03
-8.30
-6.86
-1.68
4.13
7.10
5.49
0.34
-5.20
-7.69
-5.53
0.16
6.05
8.64
6.31
0.24
-6.20
-9.36
-7.48
-1.68
4.72
8.08
6.60
1.33
-4.46
-7.21
-5.25
0.31
6.12
8.67
6.36
0.42
-5.75
-8.66
-6.69
-1.16
4.63
7.24
5.18
-0.24
-5.69
-7.89
-5.43
0.29
5.92
8.13
5.58
-0.34
-6.26
-8.79
-6.50
-0.75
5.17
7.85
5.81
0.36
-5.22
-7.56
-5.25
0.38
5.97
8.13
5.48
-0.58
-6.61
-9.13
-6.64
-0.52
5.81
8.83
7.02
1.68
-3.84
-6.21
-4.03
1.27
6.39
8.07
5.15
-0.85
-6.47
-8.46
-5.64
0.35
6.03
8.11
5.41
-0.37
-5.79
-7.62
-4.81
0.92
6.14
7.69
4.63
-1.29
-6.60
-8.19
-5.15
0.77
6.12
7.83
4.97
-0.68
-5.77
-7.30
-4.39
1.14
5.96
7.10
3.80
-2.12
-7.18
-8.36
-4.84
1.52
7.17
8.97
5.96
-0.05
-5.58
-7.46
-4.73
0.83
5.82
7.11
3.83
-2.16
-7.34
-8.60
-5.07
1.31
6.96
8.70
5.62
-0.40
-5.86
-7.64
-4.81
0.86
5.94
7.42
4.47
-1.14
-6.04
-7.35
-4.38
0.96
5.32
5.96
2.37
-3.34
-7.75
-8.05
-3.83
2.68
7.93
9.04
5.48
-0.60
-5.66
-6.81
-3.49
2.25
6.95
7.76
4.14
-1.82
-6.62
-7.38
-3.59
2.63
7.66
8.50
4.55
-2.08
-7.73
-9.33
-6.17
-0.28
4.78
6.02
2.80
-2.80
-7.26
-7.71
-3.65
2.70
7.73
8.53
4.65
-1.63
-6.62
-7.42
-3.56
2.69
7.65
8.44
4.61
-1.60
-6.58
-7.53
-4.06
1.62
5.98
6.35
2.46
-3.35
-7.54
-7.53
-3.19
3.00
7.45
7.52
3.16
-3.11
-7.59
-7.61
-3.12
3.27
7.86
7.94
3.46
-3.01
-7.71
-7.94
-3.54
2.99
7.94
8.53
4.54
-1.71
-6.59
-7.40
-3.85
1.84
6.19
6.58
2.82
-2.81
-6.86
-6.78
-2.52
3.45
7.60
7.42
2.96
-3.18
-7.40
-7.20
-2.66
3.57
7.80
7.55
2.88
-3.48
-7.84
-7.65
-3.01
3.36
7.75
7.61
3.06
-3.23
-7.57
-7.46
-3.05
2.97
6.99
6.56
1.89
-4.29
-8.30
-7.70
-2.64
4.09
8.77
8.81
4.28
-2.13
-6.67
-6.76
-2.48
3.51
7.48
7.01
2.31
-3.83
-7.76
-7.18
-2.47
3.50
7.15
6.27
1.37
-4.73
-8.46
-7.62
-2.68
3.56
7.54
7.01
2.25
-4.01
-8.20
-7.92
-3.34
2.91
7.26
7.25
3.01
-2.82
-6.65
-6.11
-1.51
4.36
7.82
6.66
1.40
-4.91
-8.55
-7.30
-1.83
4.70
8.55
7.52
2.32
-4.01
-7.84
-7.07
-2.33
3.42
6.72
5.55
0.56
-5.37
-8.74
-7.55
-2.42
3.75
7.46
6.66
1.92
-3.88
-7.23
-6.06
-0.98
5.12
8.71
7.75
2.83
-3.09
-6.51
-5.40
-0.43
5.36
8.44
6.77
1.14
-5.34
-9.00
-7.76
-2.35
4.10
7.87
6.86
1.74
-4.39
-7.89
-6.68
-1.46
4.62
7.96
6.51
1.04
-5.32
-8.86
-7.51
-1.99
4.51
8.31
7.27
2.12
-4.07
-7.63
-6.50
-1.39
4.60
7.89
6.50
1.22
-4.83
-8.08
-6.55
-1.05
5.24
8.71
7.33
1.90
-4.45
-8.06
-6.85
-1.53
4.82
8.57
7.64
2.69
-3.33
-6.93
-6.11
-1.51
3.92
6.84
5.40
0.43
-5.10
-7.79
-5.88
-0.31
5.76
8.80
6.97
1.22
-5.23
-8.70
-7.20
-1.61
4.85
8.46
7.22
1.97
-4.09
-7.30
-5.73
-0.36
5.52
8.30
6.22
0.44
-5.60
-8.30
-6.04
-0.18
5.76
8.19
5.64
-0.39
-6.36
-8.82
-6.43
-0.71
4.85
6.95
4.37
-1.37
-6.88
-8.96
-6.35
-0.52
5.29
7.83
5.78
0.42
-5.10
-7.54
-5.50
-0.16
5.31
7.66
5.46
-0.03
-5.60
-8.00
-5.83
-0.41
4.98
7.12
4.70
-0.85
-6.21
-8.15
-5.40
0.56
6.34
8.66
6.21
0.47
-5.20
-7.48
-5.04
0.65
6.23
8.33
5.68
-0.28
-6.09
-8.35
-5.71
0.37
6.45
9.13
6.98
1.45
-4.17
-6.58
-4.52
0.55
5.33
6.69
3.57
-2.36
-7.66
-9.14
-5.78
0.64
6.55
8.66
5.83
-0.19
-5.88
-7.92
-5.16
0.73
6.22
7.99
4.92
-1.30
-7.11
-9.18
-6.31
-0.21
5.67
8.04
5.70
0.26
-4.93
-6.73
-4.04
1.53
6.57
7.98
4.76
-1.39
-6.97
-8.78
-5.75
0.35
6.01
7.96
5.13
-0.70
-6.00
-7.53
-4.29
1.90
7.46
9.12
5.91
-0.38
-6.15
-8.11
-5.15
0.99
6.76
8.85
6.10
0.17
-5.48
-7.65
-5.28
-0.02
4.77
6.04
2.94
-2.71
-7.47
-8.33
-4.54
1.90
7.37
8.72
5.14
-1.43
-7.32
-9.32
-6.44
-0.49
4.97
6.78
3.96
-1.69
-6.63
-7.75
-4.18
2.15
7.67
9.23
6.00
-0.09
-5.48
-7.08
-4.04
1.70
6.62
7.68
4.14
-2.03
-7.25
-8.49
-4.97
1.31
6.74
8.21
4.92
-1.18
-6.46
-7.86
-4.61
1.28
6.23
7.23
3.65
-2.38
-7.25
-8.00
-4.09
2.19
7.19
7.93
3.92
-2.54
-7.73
-8.66
-4.78
1.70
7.07
8.33
4.87
-1.17
-6.20
-7.30
-3.90
1.89
6.57
7.30
3.63
-2.33
-7.03
-7.64
-3.69
2.66
7.75
8.64
4.77
-1.69
-7.09
-8.39
-4.94
1.11
6.16
7.22
3.75
-2.09
-6.64
-7.04
-2.91
3.41
8.16
8.52
4.25
-2.14
-6.87
-7.13
-2.74
3.71
8.44
8.64
4.15
-2.43
-7.28
-7.60
-3.23
3.21
7.95
8.21
3.87
-2.51
-7.23
-7.59
-3.47
2.60
7.00
7.07
2.78
-3.40
-7.86
-8.06
-4.00
1.84
5.92
5.77
1.45
-4.51
-8.52
-8.09
-3.28
3.28
7.91
7.98
3.48
-3.03
-7.86
-8.30
-4.18
2.05
6.75
7.23
3.27
-2.72
-7.13
-7.31
-3.10
3.01
7.43
7.53
3.27
-2.84
-7.15
-7.08
-2.64
3.60
7.99
7.98
3.62
-2.49
-6.75
-6.70
-2.43
3.43
7.33
6.89
2.25
-3.93
-8.06
-7.70
-3.01
3.37
7.76
7.69
3.27
-2.91
-7.25
-7.27
-3.03
2.85
6.84
6.50
1.95
-4.14
-8.18
-7.72
-2.97
3.38
7.68
7.49
3.05
-2.96
-6.97
-6.62
-2.14
3.77
7.60
7.07
2.41
-3.63
-7.50
-6.87
-2.00
4.38
8.62
8.29
3.61
-2.71
-7.01
-6.82
-2.33
3.72
7.71
7.20
2.45
-3.77
-7.83
-7.39
-2.73
3.39
7.36
6.82
2.04
-4.22
-8.34
-7.96
-3.35
2.70
6.56
5.95
1.23
-4.70
-8.21
-7.09
-1.91
4.35
8.01
6.96
1.90
-4.13
-7.58
-6.44
-1.46
4.36
7.59
6.35
1.39
-4.36
-7.52
-6.22
-1.15
4.79
8.19
7.06
1.94
-4.34
-8.25
-7.61
-2.81
3.44
7.54
7.22
2.75
-3.10
-6.77
-5.99
-1.19
4.77
8.25
7.06
1.83
-4.38
-7.90
-6.62
-1.30
4.88
8.25
6.82
1.46
-4.66
-7.97
-6.59
-1.40
4.46
7.52
5.95
0.61
-5.39
-8.56
-6.98
-1.48
4.87
8.46
7.28
2.05
-4.13
-7.62
-6.38
-1.16
4.92
8.22
6.71
1.26
-4.99
-8.44
-7.14
-1.96
4.01
7.27
5.95
0.90
-4.87
-7.90
-6.30
-0.91
5.27
8.70
7.42
2.18
-3.94
-7.33
-6.00
-0.71
5.33
8.45
6.64
0.85
-5.64
-9.09
-7.53
-1.94
4.38
7.75
6.28
0.93
-5.07
-8.16
-6.53
-1.12
4.85
7.91
6.30
1.03
-4.76
-7.59
-5.77
-0.34
5.54
8.36
6.42
0.72
-5.49
-8.70
-7.11
-1.63
4.52
7.85
6.49
1.37
-4.41
-7.41
-5.84
-0.64
5.11
7.98
6.27
1.00
-4.71
-7.47
-5.64
-0.31
5.33
7.88
5.69
-0.06
-6.10
-8.90
-6.75
-0.79
5.60
8.73
6.75
0.74
-5.89
-9.39
-7.85
-2.26
4.03
7.37
5.91
0.70
-5.01
-7.66
-5.58
0.08
5.96
8.57
6.28
0.35
-5.85
-8.80
-6.82
-1.11
5.03
8.08
6.39
1.08
-4.61
-7.27
-5.27
0.27
6.09
8.78
6.74
1.16
-4.73
-7.51
-5.64
-0.33
5.15
7.41
5.01
-0.74
-6.47
-8.80
-6.28
-0.25
5.87
8.61
6.48
0.75
-5.21
-7.96
-5.92
-0.29
5.57
8.23
6.13
0.50
-5.33
-7.92
-5.76
-0.13
5.63
8.12
5.89
0.28
-5.35
-7.64
-5.22
0.48
6.13
8.32
5.71
-0.29
-6.27
-8.82
-6.49
-0.63
5.36
8.02
5.85
0.13
-5.76
-8.38
-6.19
-0.49
5.32
7.80
5.51
-0.17
-5.83
-8.11
-5.70
-0.08
5.37
7.41
4.88
-0.64
-5.83
-7.55
-4.73
0.97
6.30
8.18
5.54
-0.06
-5.40
-7.42
-5.00
0.38
5.55
7.40
4.73
-1.03
-6.59
-8.73
-6.10
-0.10
5.87
8.40
6.08
0.29
-5.51
-7.88
-5.38
0.55
6.39
8.70
6.12
0.21
-5.52
-7.64
-4.90
1.00
6.52
8.31
5.20
-1.02
-6.77
-8.69
-5.64
0.57
6.34
8.32
5.36
-0.78
-6.52
-8.51
-5.55
0.69
6.66
8.95
6.31
0.26
-5.70
-8.26
-6.11
-0.72
4.56
6.53
4.06
-1.33
-6.30
-7.78
-4.81
0.89
5.97
7.41
4.37
-1.30
-6.17
-7.27
-3.80
2.24
7.43
8.74
5.40
-0.67
-5.99
-7.55
-4.47
1.44
6.75
8.38
5.40
-0.46
-5.83
-7.63
-4.93
0.56
5.51
6.89
3.82
-1.96
-7.05
-8.41
-5.19
0.81
6.12
7.72
4.77
-0.86
-5.80
-7.09
-3.99
1.55
6.12
6.81
3.03
-3.19
-8.26
-9.22
-5.40
1.12
6.69
8.23
4.97
-1.11
-6.45
-7.99
-4.92
0.83
5.83
7.10
3.92
-1.80
-6.62
-7.62
-4.10
2.04
7.37
8.94
5.98
0.36
-4.55
-5.85
-2.78
2.73
7.26
7.87
3.94
-2.51
-7.86
-9.02
-5.30
1.21
6.74
8.11
4.54
-1.86
-7.35
-8.70
-5.13
1.26
6.74
8.10
4.61
-1.65
-6.96
-8.22
-4.71
1.42
6.51
7.57
3.97
-2.06
-6.88
-7.58
-3.67
2.58
7.52
8.22
4.28
-2.06
-7.09
-7.87
-3.89
2.63
8.01
9.25
5.73
-0.42
-5.63
-6.92
-3.70
1.94
6.52
7.21
3.53
-2.37
-6.98
-7.53
-3.60
2.56
7.42
8.19
4.48
-1.49
-6.24
-7.03
-3.51
2.14
6.47
6.81
2.86
-3.09
-7.49
-7.65
-3.36
2.94
7.52
7.60
2.97
-3.86
-9.03
-9.64
-5.36
1.36
6.69
7.68
3.89
-2.28
-7.12
-7.72
-3.69
2.61
7.48
8.04
3.96
-2.40
-7.34
-8.04
-4.15
1.97
6.66
7.18
3.24
-2.76
-7.24
-7.52
-3.44
2.54
6.85
6.84
2.39
-4.01
-8.65
-8.76
-4.14
2.79
8.24
9.35
5.72
-0.37
-5.28
-6.21
-2.72
2.96
7.32
7.63
3.61
-2.45
-6.96
-7.27
-3.23
2.73
6.98
6.89
2.46
-3.77
-8.10
-7.91
-3.24
3.25
7.78
7.70
3.05
-3.46
-8.04
-8.00
-3.33
3.27
7.96
8.06
3.57
-2.83
-7.35
-7.32
-2.83
3.43
7.67
7.35
2.59
-3.81
-8.12
-7.78
-2.94
3.66
8.26
8.28
3.80
-2.61
-7.26
-7.60
-3.59
2.31
6.56
6.65
2.53
-3.32
-7.39
-7.16
-2.66
3.52
7.77
7.54
2.90
-3.52
-8.05
-8.10
-3.69
2.62
7.17
7.44
3.39
-2.43
-6.51
-6.40
-2.18
3.55
7.33
6.83
2.31
-3.56
-7.23
-6.42
-1.48
4.78
8.73
8.10
3.25
-2.95
-6.90
-6.38
-1.82
3.91
7.25
6.04
0.82
-5.52
-9.38
-8.57
-3.60
2.68
6.66
6.13
1.52
-4.41
-8.11
-7.36
-2.49
3.76
7.86
7.50
2.92
-3.17
-7.21
-6.81
-2.20
3.91
7.88
7.30
2.44
-3.92
-8.09
-7.64
-2.82
3.58
7.86
7.57
2.94
-3.31
-7.54
-7.33
-2.89
3.12
7.14
6.84
2.47
-3.24
-6.73
-5.77
-0.82
5.22
8.64
7.21
1.54
-5.24
-9.32
-8.42
-3.14
3.45
7.59
7.05
2.44
-3.36
-6.84
-6.01
-1.48
3.95
6.97
5.73
0.91
-4.71
-7.86
-6.61
-1.62
4.33
7.88
7.04
2.30
-3.56
-7.14
-6.34
-1.61
4.30
7.93
7.13
2.35
-3.61
-7.22
-6.31
-1.37
4.70
8.25
7.07
1.68
-4.89
-8.90
-8.02
-2.78
3.74
7.73
6.85
1.68
-4.65
-8.31
-7.04
-1.53
4.99
8.67
7.34
1.80
-4.63
-8.09
-6.50
-0.78
5.70
9.10
7.44
1.73
-4.63
-7.90
-6.21
-0.69
5.28
8.06
5.91
0.03
-6.19
-9.19
-7.29
-1.68
4.34
7.30
5.56
0.20
-5.60
-8.40
-6.53
-1.00
5.10
8.33
6.92
1.80
-3.94
-6.87
-5.26
-0.11
5.41
7.85
5.54
-0.38
-6.57
-9.43
-7.23
-1.15
5.45
8.92
7.40
1.95
-4.17
-7.37
-5.81
-0.49
5.37
8.25
6.40
0.89
-5.06
-7.93
-6.07
-0.63
5.14
7.78
5.75
0.30
-5.24
-7.54
-5.18
0.45
5.96
7.97
5.10
-1.18
-7.42
-10.13
-7.79
-1.77
4.56
7.66
5.94
0.65
-4.92
-7.35
-5.11
0.54
6.25
8.62
6.19
0.34
-5.54
-8.00
-5.63
0.12
5.85
8.15
5.65
-0.15
-5.76
-7.79
-4.92
1.28
7.22
9.41
6.49
0.01
-6.47
-9.37
-7.21
-1.40
4.62
7.35
5.34
-0.04
-5.42
-7.47
-4.87
0.86
6.30
8.17
5.25
-0.86
-6.68
-8.88
-6.18
-0.17
5.71
8.13
5.82
0.33
-4.97
-6.87
-4.29
1.16
6.09
7.41
4.17
-1.86
-7.24
-8.79
-5.54
0.71
6.43
8.39
5.50
-0.51
-6.16
-8.18
-5.43
0.49
6.10
8.12
5.38
-0.55
-6.20
-8.26
-5.52
0.46
6.16
8.27
5.59
-0.27
-5.79
-7.68
-4.85
0.96
6.18
7.60
4.29
-1.80
-7.02
-8.17
-4.47
1.91
7.21
8.24
4.32
-2.31
-7.80
-8.94
-5.08
1.59
7.24
8.72
5.39
-0.65
-5.70
-6.72
-3.17
2.82
7.58
8.18
4.15
-2.26
-7.35
-8.16
-4.20
2.21
7.34
8.21
4.31
-2.10
-7.30
-8.28
-4.46
1.99
7.34
8.57
5.01
-1.26
-6.63
-8.09
-4.97
0.66
5.30
6.03
2.34
-3.61
-8.21
-8.57
-4.25
2.46
7.80
8.77
4.84
-1.72
-7.19
-8.50
-5.02
1.13
6.35
7.63
4.39
-1.30
-5.91
-6.61
-2.97
2.83
7.20
7.41
3.20
-3.01
-7.53
-7.59
-2.98
3.69
8.58
8.85
4.29
-2.46
-7.52
-8.01
-3.71
2.76
7.58
7.89
3.48
-3.09
-8.05
-8.60
-4.49
1.83
6.71
7.39
3.63
-2.22
-6.63
-6.96
-3.04
2.78
6.99
7.05
2.83
-3.23
-7.60
-7.69
-3.41
2.76
7.19
7.25
2.86
-3.45
-8.01
-8.12
-3.64
2.88
7.72
8.18
4.09
-2.04
-6.53
-6.71
-2.50
3.54
7.75
7.59
3.10
-3.07
-7.25
-6.95
-2.33
3.86
7.90
7.36
2.56
-3.70
-7.69
-7.01
-2.06
4.23
8.08
7.15
1.91
-4.64
-8.68
-7.84
-2.56
4.10
8.32
7.74
2.79
-3.55
-7.58
-6.97
-2.15
3.95
7.70
6.89
2.01
-4.09
-7.85
-7.12
-2.38
3.56
7.19
6.42
1.75
-4.02
-7.44
-6.48
-1.68
4.15
7.55
6.51
1.63
-4.19
-7.48
-6.26
-1.20
4.70
7.91
6.48
1.15
-4.98
-8.35
-7.00
-1.68
4.47
7.91
6.70
1.62
-4.27
-7.49
-6.20
-1.22
4.46
7.46
6.02
1.05
-4.51
-7.29
-5.60
-0.41
5.29
8.10
6.25
0.69
-5.48
-8.76
-7.22
-1.72
4.58
8.04
6.66
1.23
-5.08
-8.62
-7.33
-1.98
4.32
7.91
6.78
1.71
-4.20
-7.40
-6.03
-1.01
4.47
6.94
4.71
-1.07
-7.05
-9.63
-7.10
-0.74
5.99
9.35
7.55
1.77
-4.51
-7.61
-5.73
-0.04
6.03
8.84
6.66
0.69
-5.65
-8.73
-6.84
-1.24
4.72
7.48
5.45
-0.08
-5.69
-7.86
-5.10
1.21
7.49
10.13
7.60
1.33
-5.10
-8.03
-5.86
-0.02
6.00
8.60
6.24
0.32
-5.66
-8.20
-5.82
0.11
6.05
8.54
6.10
0.17
-5.82
-8.41
-6.17
-0.56
5.02
7.18
4.60
-1.18
-6.68
-8.53
-5.52
0.69
6.48
8.44
5.37
-1.05
-7.15
-9.44
-6.59
-0.24
5.99
8.56
6.11
0.21
-5.59
-7.83
-5.25
0.56
6.10
8.10
5.43
-0.22
-5.39
-6.87
-3.70
2.32
7.64
9.06
5.65
-0.75
-6.57
-8.61
-5.92
-0.34
4.62
5.85
2.52
-3.40
-8.30
-9.06
-4.95
1.89
7.64
9.07
5.36
-1.33
-7.18
-8.90
-5.60
0.64
6.13
7.66
4.41
-1.61
-6.78
-7.99
-4.47
1.77
7.09
8.41
4.94
-1.25
-6.51
-7.70
-4.07
2.29
7.68
8.94
5.33
-1.06
-6.50
-7.81
-4.24
2.15
7.59
8.92
5.37
-0.95
-6.33
-7.61
-4.05
2.17
7.32
8.21
4.21
-2.49
-8.01
-9.19
-5.36
1.21
6.68
7.90
4.29
-1.83
-6.71
-7.35
-3.36
2.82
7.42
7.59
3.14
-3.38
-8.11
-8.22
-3.59
3.17
8.15
8.55
4.20
-2.33
-7.32
-8.01
-4.24
1.52
5.74
5.83
1.73
-4.07
-7.98
-7.48
-2.58
4.10
8.82
8.90
4.29
-2.43
-7.52
-8.25
-4.48
1.28
5.41
5.37
1.10
-4.79
-8.70
-8.14
-3.26
3.26
7.69
7.53
2.96
-3.35
-7.71
-7.65
-3.35
2.51
6.34
5.74
0.97
-5.23
-9.24
-8.72
-3.97
2.19
6.17
5.68
1.17
-4.53
-7.85
-6.67
-1.61
4.38
7.72
6.40
1.20
-4.75
-7.85
-6.18
-0.65
5.46
8.49
6.55
0.75
-5.36
-7.79
-4.39
3.87
13.39
19.88
20.76
16.64
11.03
8.52
12.60
24.21
41.55
61.25
79.77
94.48
104.17
108.95
109.94
108.97
108.31
110.01
115.41
124.48
135.57
145.97
152.62
152.66
144.10
126.23
100.55
71.36
45.04
27.91
23.39
29.80
40.69
47.69
43.84
26.83
-0.46
-32.09
-62.49
-89.28
-114.06
-141.00
-174.23
-215.36
-262.19
-309.15
-349.08
-375.66
-385.26
-377.80
-355.67
-321.96
-279.63
-231.70
-182.37
-137.93
-105.87
-92.24
-98.47
-119.85
-146.30
-166.62
-172.49
-161.00
-134.48
-98.19
-57.58
-16.42
23.35
60.82
95.09
125.00
149.35
167.40
179.09
185.20
186.94
185.56
182.01
176.68
169.65
160.89
150.57
139.19
127.51
116.32
106.13
97.08
88.88
81.05
73.21
65.21
57.23
49.63
42.80
36.94
31.99
27.71
23.77
19.90
16.05
12.31
8.86
5.90
3.50
1.63
0.15
-1.09
-2.21
-3.27
-4.26
-5.16
-5.93
-6.55
-7.03
-7.39
-7.63
-7.78
-7.83
-7.79
-7.67
-7.49
-7.27
-7.02
-6.68
-6.32
-5.94
-5.57
-5.21
-4.87
-4.54
-4.23
-3.94
-3.67
-3.43
-3.20
-3.00
-2.81
-2.64
-2.47
-2.32
-2.18
-2.05
-1.94
-1.83
-1.73
-1.64
-1.56
-1.48
-1.41
-1.33
-1.27
-1.22
-1.16
-1.12
-1.07
-1.03
-0.99
-0.95
-0.92
-0.87
-0.85
-0.82
-0.79
-0.77
-0.74
-0.72
-0.70
-0.68
-0.66
-0.64
-0.62
-0.61
-0.59
-0.57
-0.56
-0.54
-0.51
-0.48
-0.44
-0.39
-0.34
-0.29
-0.21
-0.14
-0.07
0.01
0.08
0.15
0.21
0.26
0.30
0.35
0.38
0.41
0.45
0.49
0.54
0.60
0.69
0.82
1.00
1.20
1.41
1.59
1.73
1.84
1.94
2.08
2.33
2.68
3.14
3.63
4.11
4.52
4.87
5.23
5.63
6.16
6.84
7.63
8.44
9.16
9.71
10.13
10.50
11.01
11.81
12.96
14.36
15.78
16.94
17.63
17.88
17.93
18.10
18.67
19.60
20.38
20.27
18.38
14.11
7.40
-1.22
-10.82
-20.32
-29.01
-36.73
-43.72
-50.38
-56.78
-62.26
-65.62
-65.51
-61.08
-52.42
-40.74
-28.03
-16.17
-7.33
-2.98
-4.02
-10.66
-21.41
-33.16
-41.55
-42.38
-33.67
-17.00
2.94
20.27
30.00
30.93
25.30
17.16
10.05
5.52
3.16
1.97
1.48
2.25
5.42
11.52
19.97
29.17
37.18
42.40
44.37
43.63
41.26
38.33
35.40
32.14
28.21
23.05
16.47
8.91
1.28
-5.38
-10.26
-13.10
-14.26
-14.40
-14.39
-14.79
-15.77
-17.09
-18.46
-19.52
-20.16
-20.48
-20.71
-21.14
-21.94
-23.15
-24.62
-26.22
-27.80
-29.32
-30.80
-32.27
-33.85
-35.60
-37.53
-39.58
-41.71
-43.81
-45.82
-47.56
-48.79
-49.34
-49.05
-47.71
-45.12
-41.16
-35.74
-28.92
-20.77
-11.40
-1.15
9.55
20.34
30.85
40.71
49.63
57.35
63.07
67.22
69.97
71.38
71.68
71.07
69.74
67.85
65.48
62.77
59.85
57.02
53.89
50.42
46.54
42.23
37.78
32.95
27.81
22.55
17.27
12.05
7.10
2.54
-1.54
-5.08
-8.10
-10.56
-12.43
-13.79
-14.75
-15.29
-15.51
-15.52
-15.42
-15.29
-15.18
-15.07
-14.95
-14.80
-14.45
-13.86
-13.00
-11.85
-10.48
-8.91
-7.22
-5.54
-4.03
-2.71
-1.80
-1.47
-1.93
-3.39
-5.99
-9.75
-14.55
-21.00
-27.97
-34.67
-40.52
-45.25
-48.81
-51.18
-52.43
-52.62
-51.32
-48.51
-44.27
-38.74
-32.43
-26.25
-20.89
-16.99
-14.84
-14.17
-14.24
-14.27
-13.44
-11.68
-9.81
-8.46
-8.41
-9.83
-12.04
-13.67
-13.24
-9.33
-1.83
7.80
18.12
27.39
34.86
41.13
48.17
58.96
77.93
109.33
149.73
195.68
241.50
280.11
304.44
309.58
294.48
263.40
223.46
181.95
145.37
116.79
96.27
81.02
67.21
45.64
13.49
-24.97
-61.35
-88.19
-103.44
-109.00
-108.92
-106.41
-102.82
-97.12
-88.41
-79.03
-70.43
-64.99
-64.22
-68.76
-77.55
-88.86
-100.65
-112.44
-125.52
-141.61
-162.82
-184.34
-202.84
-215.79
-222.25
-222.18
-216.16
-204.68
-187.69
-165.39
-138.82
-111.31
-87.03
-69.58
-60.33
-58.14
-60.15
-63.12
-64.84
-64.36
-62.33
-59.35
-55.36
-49.35
-40.13
-27.12
-10.92
6.86
24.52
40.87
56.23
72.02
89.64
109.32
129.69
148.38
163.08
172.60
177.03
177.53
175.34
171.04
164.47
155.18
143.15
129.16
114.62
100.89
88.73
78.05
68.07
57.94
47.18
35.91
24.73
14.47
5.78
-1.02
-6.08
-10.00
-13.83
-18.95
-26.67
-37.61
-51.05
-64.76
-75.45
-79.71
-75.26
-61.78
-41.18
-17.10
5.85
22.93
30.05
24.61
6.28
-22.36
-55.87
-87.07
-109.02
-117.20
-110.92
-93.16
-69.18
-44.46
-22.93
-6.33
5.48
13.65
19.52
24.13
28.30
32.68
37.84
44.06
51.15
58.33
64.38
68.15
68.90
66.53
61.51
54.56
46.21
36.60
25.57
13.06
-0.56
-14.28
-26.59
-35.93
-41.11
-41.64
-37.76
-30.40
-20.98
-11.21
-2.74
3.25
6.36
7.21
7.19
7.89
10.41
14.81
20.10
24.67
27.00
26.37
23.08
18.26
13.37
9.71
8.10
8.88
11.98
17.06
23.59
30.83
37.96
44.13
48.66
51.18
51.60
50.06
46.79
42.15
36.72
31.34
27.03
24.67
24.48
25.82
27.30
27.28
24.70
19.51
12.59
5.30
-1.31
-6.88
-11.70
-16.23
-20.56
-24.18
-26.17
-25.77
-22.83
-18.04
-12.59
-7.70
-4.19
-2.31
-1.84
-2.39
-3.44
-4.45
-4.85
-4.19
-2.36
0.04
1.76
1.35
-2.20
-8.75
-16.88
-24.47
-29.57
-31.32
-30.37
-28.22
-26.19
-24.70
-23.21
-20.73
-16.51
-10.62
-4.01
1.80
5.70
7.58
8.37
9.27
10.97
13.16
14.86
15.19
13.97
12.82
15.00
23.82
40.50
62.94
86.06
103.71
111.03
105.27
88.07
65.22
44.28
31.14
28.04
33.53
43.49
52.07
50.42
31.65
-5.46
-55.37
-107.36
-147.98
-164.42
-149.04
-103.25
-42.14
14.52
51.53
62.95
51.19
23.65
-11.01
-46.52
-80.94
-121.32
-174.17
-239.13
-309.08
-375.09
-429.79
-468.00
-487.00
-454.17
-358.01
-221.94
-87.97
16.37
87.66
135.48
170.31
197.66
218.00
224.36
213.15
189.59
164.68
148.24
144.39
151.78
165.98
181.34
188.38
179.84
154.71
117.84
75.94
35.90
3.70
-16.64
-24.21
-23.86
-21.62
-17.74
-13.11
-6.48
3.64
17.21
32.27
45.70
53.37
52.19
43.75
31.18
18.28
7.44
-1.22
-8.88
-17.02
-25.06
-34.05
-43.62
-53.33
-62.72
-71.18
-77.52
-79.54
-74.52
-60.65
-38.57
-10.88
18.11
43.35
62.88
75.22
79.26
75.12
64.48
50.40
37.11
28.24
25.82
29.14
35.51
41.05
43.32
42.10
38.77
34.83
30.75
26.34
20.66
13.23
3.21
-9.37
-24.38
-42.07
-63.93
-93.21
-128.83
-171.14
-211.05
-241.65
-259.89
-266.84
-264.35
-251.73
-225.93
-184.22
-128.24
-64.14
-2.46
46.96
78.84
93.94
97.36
95.17
91.75
88.31
84.60
79.39
72.73
66.02
61.02
58.54
57.94
57.68
55.86
51.89
45.91
39.11
33.07
28.96
26.97
26.18
25.18
22.71
18.56
13.26
7.98
3.94
1.76
1.16
1.12
0.47
-1.45
-4.30
-6.98
-8.02
-6.30
-1.61
5.31
13.03
20.14
25.87
30.37
34.53
39.46
46.08
54.80
65.32
76.43
85.95
90.99
88.76
77.73
58.66
34.81
11.08
-7.82
-19.07
-22.58
-20.60
-16.35
-12.52
-10.35
-9.42
-8.35
-5.64
-0.63
6.19
13.21
18.41
20.15
17.96
12.78
6.43
0.65
-3.83
-7.41
-11.09
-15.55
-20.46
-24.65
-26.86
-26.57
-24.41
-21.79
-20.05
-19.71
-20.36
-20.39
-18.64
-14.82
-9.55
-3.97
0.94
4.81
7.87
10.63
13.48
16.29
18.63
20.08
20.54
20.30
19.97
20.11
21.03
22.59
24.24
25.38
25.65
25.11
24.13
23.11
22.25
21.44
20.45
19.14
17.78
16.85
16.84
17.88
19.63
21.45
22.80
23.50
23.81
24.33
25.54
27.48
29.50
30.39
28.75
23.63
15.15
4.79
-4.86
-11.01
-11.73
-6.80
2.21
12.57
21.35
26.16
25.47
18.49
5.11
-13.94
-36.75
-60.07
-79.88
-92.53
-96.23
-91.91
-82.87
-73.34
-66.69
-64.14
-64.79
-66.68
-68.14
-68.69
-68.85
-69.19
-69.41
-68.10
-63.52
-54.93
-43.49
-32.20
-24.61
-23.23
-28.32
-37.74
-47.90
-55.14
-56.93
-52.42
-42.16
-27.57
-10.24
8.42
27.20
45.03
60.90
73.86
83.09
87.91
87.92
82.95
73.20
59.35
42.64
24.88
8.19
-5.40
-14.47
-18.54
-18.02
-13.92
-7.39
0.61
9.25
17.67
24.80
29.51
30.99
29.22
25.07
20.14
16.22
14.67
16.00
19.76
24.76
29.55
32.92
34.36
34.18
33.18
32.19
31.42
30.39
28.21
24.18
18.31
11.27
4.16
-1.94
-6.14
-7.58
-5.23
1.88
14.10
30.31
47.71
62.45
71.07
71.95
66.10
56.60
47.12
40.31
36.70
34.92
32.69
28.11
20.52
10.50
-0.79
-12.54
-24.80
-38.45
-54.61
-73.97
-96.32
-120.70
-145.62
-169.36
-189.87
-204.64
-210.97
-206.91
-192.27
-169.33
-142.34
-116.15
-94.47
-78.90
-69.03
-63.51
-61.08
-60.96
-62.42
-64.29
-64.85
-62.59
-57.14
-49.71
-42.61
-37.97
-36.54
-37.35
-38.22
-36.91
-32.11
-23.82
-13.07
-1.38
9.86
19.70
27.77
34.28
39.87
45.36
51.37
57.95
64.49
69.98
73.57
75.02
74.84
73.83
72.44
70.25
66.18
59.07
48.58
35.63
22.17
10.46
2.08
-2.69
-4.76
-5.81
-7.43
-10.59
-15.37
-21.11
-26.93
-32.13
-36.38
-39.52
-41.20
-40.56
-36.39
-27.69
-14.35
2.47
20.52
37.32
51.05
61.09
67.88
72.34
75.24
76.80
76.98
75.79
73.63
71.23
69.32
68.33
68.19
68.55
68.95
69.02
68.54
67.37
65.62
63.77
62.82
64.06
68.64
76.85
87.77
99.39
109.21
115.08
115.92
111.97
104.54
95.58
87.05
80.47
76.57
75.18
75.27
75.13
72.85
66.83
56.31
41.60
24.13
6.02
-10.40
-23.22
-31.42
-35.11
-35.46
-34.30
-33.52
-34.52
-37.76
-42.77
-48.31
-52.83
-54.88
-53.47
-48.26
-39.60
-28.34
-15.63
-2.65
9.54
20.02
28.00
32.81
33.91
31.02
24.13
13.35
-1.13
-19.05
-39.75
-61.88
-83.23
-101.14
-113.61
-120.54
-124.37
-129.27
-139.11
-155.05
-174.15
-190.03
-195.38
-184.80
-156.77
-113.71
-60.83
-4.69
47.83
90.20
117.04
125.56
116.89
96.57
73.31
55.96
50.15
56.23
69.53
82.94
90.25
88.52
78.68
64.23
49.22
36.75
28.48
25.10
26.95
34.26
46.72
62.62
78.54
89.96
92.84
85.39
68.86
47.06
24.61
5.08
-10.11
-21.83
-32.51
-44.93
-61.18
-81.91
-106.06
-131.21
-154.40
-173.21
-186.79
-196.19
-203.55
-210.88
-218.89
-226.68
-232.51
-235.03
-234.11
-231.26
-228.73
-228.04
-228.61
-227.65
-221.06
-205.32
-179.22
-143.81
-102.22
-57.92
-12.87
32.88
80.35
129.65
178.56
222.68
257.54
279.41
285.60
274.37
245.30
200.25
144.80
88.82
45.19
27.00
41.71
87.26
151.92
218.52
270.76
298.59
300.26
275.57
230.42
174.54
118.30
69.07
29.65
-0.10
-21.00
-33.60
-38.38
-36.27
-29.83
-22.78
-18.56
-18.75
-22.46
-27.01
-29.68
-28.74
-23.56
-15.31
-6.62
-0.43
1.24
-1.96
-8.79
-17.58
-26.59
-34.71
-42.06
-50.00
-60.41
-74.64
-92.98
-113.27
-134.80
-156.92
-178.15
-195.47
-204.33
-199.99
-179.67
-144.63
-100.56
-56.12
-19.20
5.93
19.73
26.04
29.49
33.30
38.15
43.45
48.38
53.13
58.69
65.87
74.56
83.59
91.32
96.34
98.57
99.01
99.39
100.94
103.61
105.84
105.28
99.89
88.89
73.20
54.93
36.63
20.37
7.18
-2.89
-10.45
-16.16
-20.41
-23.27
-24.73
-24.94
-24.39
-23.93
-24.32
-26.28
-29.99
-34.94
-40.10
-44.46
-47.50
-49.42
-51.01
-53.20
-56.48
-60.47
-64.03
-65.85
-65.18
-62.32
-58.49
-55.13
-53.03
-51.66
-49.39
-44.31
-35.28
-22.70
-8.41
5.19
16.09
23.47
27.69
29.88
31.35
33.32
37.00
43.61
53.96
67.45
81.19
89.98
87.92
71.13
40.45
2.51
-31.93
-51.95
-51.24
-31.30
-1.13
26.40
39.99
34.64
13.17
-16.00
-43.54
-63.81
-76.72
-86.12
-95.97
-107.08
-116.33
-118.65
-110.53
-92.21
-67.60
-42.10
-20.10
-4.00
5.33
7.37
1.42
-12.59
-32.40
-52.78
-66.51
-66.87
-50.43
-18.34
24.25
70.36
113.72
150.14
177.36
193.94
198.36
189.07
165.84
131.11
90.30
50.60
18.56
-2.45
-13.29
-17.95
-21.34
-26.69
-34.57
-43.49
-51.59
-58.14
-63.84
-70.03
-77.37
-85.35
-92.42
-97.14
-98.85
-97.72
-94.12
-87.92
-78.56
-65.80
-50.64
-35.42
-22.83
-14.34
-9.07
-4.03
4.20
17.41
34.57
52.23
66.33
74.29
76.25
74.92
74.09
76.89
84.42
95.59
107.69
117.88
124.36
127.18
127.88
128.61
130.97
135.17
140.10
144.06
145.83
145.01
141.58
135.09
124.59
109.62
91.68
74.75
64.07
63.42
72.32
85.38
94.29
91.62
74.49
45.37
9.89
-27.21
-64.89
-105.90
-153.92
-209.80
-269.42
-324.48
-365.88
-387.41
-388.16
-372.26
-346.46
-316.99
-287.31
-257.77
-227.06
-194.17
-159.81
-126.38
-96.68
-71.92
-50.41
-27.74
1.19
39.36
85.33
133.02
173.66
199.04
204.57
190.79
162.52
126.56
89.35
55.59
28.35
9.64
0.40
-0.29
3.97
7.36
4.16
-8.06
-26.29
-42.82
-48.81
-38.77
-13.55
20.05
52.91
78.06
93.33
100.97
104.76
107.07
107.89
105.87
100.54
93.49
87.83
86.28
89.30
94.68
98.59
97.70
90.78
79.17
65.86
54.08
45.97
42.07
41.48
42.52
43.41
42.86
40.26
35.78
30.18
24.55
19.93
17.00
15.90
16.23
17.21
17.97
17.82
16.43
13.92
10.70
7.25
3.92
0.87
-1.85
-4.04
-5.32
-5.28
-3.87
-1.68
0.11
0.19
-2.25
-7.06
-13.13
-18.87
-22.87
-24.44
-23.68
-21.15
-17.44
-12.86
-7.44
-1.26
5.29
11.41
16.20
19.06
19.99
19.67
19.01
18.63
18.43
17.67
15.50
11.66
6.85
2.28
-1.16
-3.84
-7.49
-14.52
-26.79
-44.75
-67.29
-92.32
-117.54
-140.98
-161.05
-176.36
-185.58
-187.65
-182.24
-170.10
-153.17
-134.10
-115.64
-99.71
-86.93
-76.45
-66.49
-55.14
-41.29
-25.27
-8.77
5.91
16.77
22.85
24.34
22.13
17.21
10.21
1.56
-8.03
-17.11
-23.46
-24.73
-19.58
-8.68
5.04
17.14
23.37
21.41
11.91
-1.65
-14.36
-21.69
-20.98
-12.06
3.13
21.65
40.54
57.55
71.37
81.49
88.00
91.33
92.22
91.61
90.43
89.33
88.47
87.42
85.39
81.53
75.33
66.84
56.64
45.57
34.37
23.42
12.58
1.36
-10.80
-24.19
-38.56
-53.09
-66.61
-77.89
-85.98
-90.27
-90.66
-87.50
-81.71
-74.70
-68.05
-62.91
-59.33
-55.95
-50.40
-40.22
-23.99
-2.02
23.86
51.08
77.41
101.60
123.31
142.50
158.77
171.11
178.26
179.32
174.29
164.06
150.10
133.87
116.60
99.27
82.84
68.34
56.65
47.92
41.22
34.48
25.19
11.40
-7.32
-29.70
-53.24
-75.23
-93.76
-108.17
-118.87
-126.69
-132.28
-135.72
-136.64
-134.56
-129.32
-121.27
-111.19
-99.97
-88.25
-76.08
-63.04
-48.52
-32.24
-14.61
3.28
19.99
34.27
45.41
53.42
58.68
61.70
62.79
62.10
59.70
55.81
50.73
44.82
38.36
31.57
24.72
18.23
12.72
8.72
6.41
5.37
4.55
2.57
-1.93
-9.76
-21.02
-35.05
-50.59
-66.07
-79.91
-90.77
-97.82
-100.90
-100.43
-97.28
-92.41
-86.60
-80.19
-73.14
-65.17
-56.13
-46.32
-36.61
-28.37
-22.90
-20.71
-20.67
-19.82
-14.11
-0.13
22.99
52.47
82.53
106.53
119.72
121.16
113.79
102.65
92.46
85.62
81.85
79.17
75.61
70.42
64.24
58.43
54.07
51.27
49.20
46.67
42.98
38.34
33.87
30.72
29.21
28.31
26.21
21.32
13.75
5.59
-0.01
-0.61
4.05
11.87
19.70
25.17
27.68
28.18
27.83
26.84
24.20
18.66
10.15
0.39
-7.73
-12.16
-13.26
-14.03
-18.68
-29.94
-46.97
-64.93
-76.70
-75.93
-60.07
-31.12
5.52
43.59
78.25
106.72
127.41
138.72
138.42
124.09
94.84
52.64
2.24
-50.21
-99.24
-141.49
-175.97
-200.96
-214.97
-216.62
-205.61
-183.50
-153.53
-119.73
-85.52
-53.30
-24.71
-1.24
15.86
25.84
28.89
26.26
19.58
10.44
0.21
-10.67
-22.75
-36.88
-53.88
-74.40
-99.07
-128.76
-163.11
-199.40
-232.40
-255.24
-261.58
-248.08
-215.72
-166.33
-105.55
-38.86
30.09
98.63
163.16
217.35
253.13
263.87
247.73
208.74
155.79
98.85
45.13
-2.40
-43.71
-79.39
-108.63
-129.42
-140.45
-142.01
-136.15
-125.39
-110.92
-91.95
-66.58
-33.49
6.36
49.32
90.66
126.46
154.86
176.19
191.93
203.50
211.59
216.10
217.05
215.04
210.98
205.66
199.14
190.91
180.31
167.19
152.00
135.53
118.38
100.72
82.45
63.72
45.38
28.93
15.94
7.31
2.75
0.80
-0.58
-3.14
-7.79
-14.38
-21.95
-29.22
-35.23
-39.64
-42.98
-46.49
-51.45
-58.55
-67.43
-76.41
-83.28
-86.24
-84.88
-80.37
-75.03
-71.37
-71.16
-74.54
-79.69
-82.89
-79.13
-63.44
-32.83
11.83
64.77
116.05
154.03
169.35
158.42
125.26
80.59
38.26
10.36
3.14
15.07
37.52
58.18
65.19
51.67
18.08
-28.16
-75.42
-112.26
-131.28
-130.83
-113.62
-84.16
-46.34
-2.93
43.01
86.59
121.07
140.23
141.87
129.79
112.72
100.36
98.81
107.88
121.94
133.46
136.44
128.73
111.59
87.61
58.79
26.01
-10.00
-47.15
-81.53
-108.54
-124.88
-130.43
-128.44
-124.04
-121.87
-124.15
-130.36
-138.55
-147.18
-156.07
-166.01
-177.36
-188.96
-198.31
-202.71
-200.62
-192.32
-179.36
-163.43
-145.72
-126.89
-107.35
-87.83
-69.39
-53.05
-39.30
-27.87
-18.15
-9.65
-2.36
3.20
6.30
6.31
2.96
-3.54
-12.39
-22.32
-31.64
-38.54
-41.60
-40.44
-35.96
-30.06
-24.93
-22.03
-21.43
-21.79
-21.00
-17.30
-10.21
-0.96
8.06
14.40
16.73
15.48
12.56
10.24
9.87
11.12
12.30
11.39
7.38
0.91
-6.12
-11.69
-14.92
-16.49
-18.20
-21.85
-28.19
-36.57
-45.37
-52.68
-57.03
-57.31
-52.54
-41.70
-24.22
-0.91
25.22
49.12
65.18
69.47
61.62
45.14
25.97
9.95
0.64
-1.26
3.23
13.05
28.08
48.48
73.09
98.24
118.22
127.58
123.97
109.81
91.48
76.53
70.34
74.05
84.79
97.78
108.60
114.77
116.01
113.80
110.54
108.56
109.09
111.34
112.39
108.08
95.02
72.54
43.34
12.24
-16.47
-41.21
-63.26
-84.75
-105.74
-122.77
-130.04
-122.70
-100.14
-67.02
-31.52
-1.82
17.18
25.27
25.97
24.03
22.94
23.40
23.52
20.25
11.53
-2.18
-17.56
-29.77
-34.71
-31.18
-21.59
-11.00
-4.82
-6.23
-15.01
-28.02
-41.22
-51.67
-58.53
-62.77
-65.79
-68.33
-70.29
-71.35
-71.83
-72.86
-75.74
-80.80
-86.66
-90.31
-88.20
-77.98
-59.61
-35.55
-9.71
14.00
32.98
46.28
54.40
58.48
59.65
58.76
56.69
54.51
53.50
54.59
57.77
61.77
64.54
64.13
59.78
52.18
42.95
33.71
25.36
17.86
10.76
3.78
-2.70
-7.79
-10.53
-10.44
-7.82
-3.82
-0.06
1.94
1.27
-1.92
-6.48
-10.87
-13.88
-15.19
-15.50
-15.95
-17.29
-19.68
-22.62
-25.65
-28.46
-31.10
-33.49
-35.08
-34.81
-31.54
-24.67
-14.54
-2.59
9.13
18.65
24.68
27.10
26.73
25.04
23.31
22.21
21.64
21.08
20.12
18.96
18.29
18.67
19.82
20.26
17.90
11.04
-0.28
-14.03
-26.73
-35.04
-37.51
-35.03
-30.55
-27.42
-27.77
-31.58
-36.97
-41.37
-42.79
-40.84
-36.44
-31.03
-25.61
-20.25
-14.44
-7.60
0.38
9.02
17.59
25.47
32.30
37.99
42.54
46.19
49.95
55.74
66.00
82.26
103.74
126.59
144.88
152.88
147.63
130.34
105.75
79.92
57.61
40.70
28.39
18.70
10.33
3.46
-0.76
-1.43
1.04
4.86
7.66
7.61
4.12
-2.10
-9.60
-16.94
-23.11
-27.64
-30.48
-31.85
-32.08
-31.49
-30.25
-28.34
-25.65
-22.27
-18.71
-16.00
-15.28
-17.19
-21.33
-26.24
-29.95
-30.98
-29.05
-25.21
-21.23
-18.47
-17.00
-15.48
-11.86
-4.63
6.35
19.92
34.49
49.18
64.37
80.97
99.10
116.83
130.20
134.53
126.49
105.65
74.68
38.08
0.33
-35.33
-67.01
-93.42
-113.08
-124.36
-126.44
-120.34
-109.25
-97.65
-89.47
-86.38
-87.27
-89.10
-88.71
-84.54
-77.08
-68.26
-59.86
-52.23
-43.95
-32.77
-16.85
3.94
27.43
49.31
64.21
67.25
55.88
31.10
-2.36
-37.42
-66.91
-85.98
-93.33
-90.82
-81.76
-68.82
-53.03
-34.14
-11.89
12.68
36.96
57.62
71.88
78.51
78.01
72.06
62.71
51.78
40.56
29.94
20.74
13.83
10.19
10.63
15.51
24.45
36.26
49.20
61.33
71.06
77.60
81.12
82.65
83.63
85.35
88.44
92.60
96.80
99.80
100.61
98.81
94.45
87.66
78.32
66.08
50.66
32.52
13.26
-4.46
-17.59
-23.74
-22.23
-14.82
-5.64
-0.22
-3.89
-19.87
-48.05
-84.87
-124.60
-161.34
-190.91
-211.83
-225.04
-232.67
-236.53
-237.06
-233.13
-222.67
-203.62
-174.65
-135.75
-88.41
-35.72
17.87
67.29
107.81
136.23
151.63
155.42
150.68
141.04
129.62
118.42
108.47
100.03
93.02
87.23
82.23
77.42
72.09
65.81
58.45
50.34
42.04
34.30
28.01
24.08
23.02
24.33
26.48
27.00
23.80
15.89
4.26
-8.41
-18.78
-24.39
-24.88
-21.15
-14.86
-6.54
4.39
19.27
38.97
62.64
87.69
110.16
127.30
138.19
144.90
150.96
160.16
175.09
196.06
221.19
246.42
268.02
276.33
264.23
228.69
172.98
106.01
38.66
-16.39
-57.31
-86.06
-105.56
-117.71
-124.51
-128.55
-132.50
-138.62
-147.70
-159.18
-170.31
-178.53
-182.35
-182.48
-180.91
-179.46
-178.65
-177.34
-173.87
-166.24
-153.70
-136.99
-118.18
-99.87
-84.36
-73.26
-67.45
-66.95
-69.78
-71.75
-66.91
-49.72
-17.86
25.37
71.03
107.48
125.01
120.43
98.15
68.07
41.04
24.61
20.78
26.69
37.15
47.28
54.34
57.67
57.86
55.70
51.53
44.90
34.90
20.58
1.92
-19.79
-42.04
-61.90
-77.13
-86.83
-91.52
-92.37
-90.32
-85.56
-77.65
-66.08
-51.08
-33.88
-16.45
-0.82
11.54
20.06
24.88
26.41
25.03
20.80
13.68
3.92
-7.44
-18.31
-25.71
-26.39
-17.85
0.50
26.51
55.31
80.23
94.63
93.69
75.86
43.26
1.07
-43.86
-84.75
-116.26
-135.84
-143.65
-142.41
-136.28
-129.43
-124.62
-122.18
-120.24
-115.41
-104.86
-86.94
-62.07
-32.61
-2.10
25.60
47.16
60.52
66.08
66.14
65.31
68.10
76.07
85.62
88.51
75.55
41.04
-13.12
-78.66
-139.65
-179.41
-187.79
-166.31
-126.67
-82.91
-48.35
-23.15
-3.58
13.15
26.50
33.49
32.24
22.67
8.23
-5.04
-10.43
-4.60
11.59
32.92
51.85
61.84
60.48
51.02
40.58
36.71
42.70
56.94
74.29
89.23
98.73
103.26
105.79
109.35
115.25
121.93
126.50
126.44
120.77
110.31
96.91
82.73
69.43
58.17
49.16
41.97
35.67
28.92
20.30
8.75
-6.18
-24.18
-44.29
-65.39
-86.24
-105.52
-121.76
-133.47
-139.48
-139.35
-133.73
-124.36
-113.67
-103.91
-96.47
-91.47
-87.85
-83.95
-78.03
-68.73
-55.36
-38.10
-18.30
1.31
16.70
23.21
17.03
-3.22
-35.34
-73.58
-110.05
-136.79
-147.81
-140.32
-114.85
-74.81
-25.58
26.33
74.28
112.40
136.55
145.20
139.83
124.79
106.13
89.74
79.26
74.66
72.28
66.45
52.08
27.09
-6.50
-43.44
-77.58
-103.94
-120.00
-125.59
-121.74
-109.91
-91.83
-69.58
-45.79
-22.99
-2.66
15.40
32.79
51.19
71.08
91.19
109.39
123.89
134.24
141.23
145.72
147.57
145.55
138.17
125.07
108.04
90.80
77.43
70.59
70.12
73.19
75.39
72.74
63.62
49.23
32.83
18.25
8.14
2.94
1.29
1.41
2.75
6.37
13.56
24.14
35.52
44.08
47.52
46.74
45.05
45.71
49.27
52.12
47.90
30.96
0.10
-40.10
-80.96
-113.63
-132.46
-135.95
-125.98
-104.57
-74.55
-39.55
-4.22
27.55
51.54
63.04
59.10
40.33
11.15
-21.61
-51.02
-72.24
-83.76
-87.22
-85.60
-81.08
-74.42
-65.25
-53.31
-39.23
-24.63
-11.62
-2.21
2.56
3.12
0.90
-2.22
-4.82
-6.26
-6.51
-5.99
-5.40
-5.27
-5.73
-6.62
-7.71
-8.94
-10.45
-12.46
-15.08
-18.23
-21.45
-23.99
-24.99
-23.89
-20.62
-15.64
-9.73
-3.70
1.80
6.38
9.84
11.99
12.68
11.89
9.85
7.11
4.32
2.00
0.37
-0.74
-1.68
-2.71
-3.86
-4.91
-5.56
-5.65
-5.21
-4.45
-3.60
-2.76
-1.95
-1.10
-0.17
0.79
1.69
2.49
3.22
3.93
4.67
5.31
5.57
5.06
3.43
0.56
-3.41
-8.04
-12.69
-16.59
-19.02
-19.44
-17.62
-13.75
-8.33
-2.04
4.43
10.59
16.12
20.86
24.65
27.34
28.81
28.99
27.97
25.92
23.06
19.62
15.81
11.91
8.25
5.19
3.02
1.86
1.62
2.01
2.67
3.24
3.53
3.45
2.97
2.09
0.78
-0.93
-2.98
-5.15
-7.21
-8.90
-10.16
-11.13
-12.14
-13.54
-15.60
-18.37
-21.67
-25.08
-28.07
-30.08
-30.64
-29.48
-26.61
-22.32
-17.10
-11.48
-5.94
-0.78
3.83
7.86
11.27
14.00
16.00
17.21
17.68
17.51
16.86
15.92
14.86
13.79
12.77
11.82
10.93
10.12
9.37
8.67
7.90
6.94
5.71
4.19
2.46
0.69
-0.96
-2.42
-3.69
-4.90
-6.21
-7.79
-9.71
-11.97
-14.52
-17.28
-20.21
-23.22
-26.15
-28.68
-30.34
-30.64
-29.22
-26.09
-21.60
-16.37
-11.07
-6.17
-1.83
2.04
5.57
8.80
11.59
13.65
14.73
14.69
13.57
11.62
9.17
6.66
4.51
3.06
2.41
2.37
2.43
1.96
0.51
-1.95
-4.97
-7.80
-9.82
-10.82
-11.22
-11.90
-13.72
-17.14
-21.97
-27.36
-32.18
-35.51
-36.99
-36.94
-36.34
-36.53
-38.81
-44.06
-52.28
-62.24
-71.23
-75.37
-70.54
-53.89
-25.21
12.49
53.73
92.43
123.98
146.53
160.74
168.36
170.65
167.72
159.09
145.12
127.91
110.95
97.67
89.56
85.35
81.54
74.28
61.14
42.14
19.57
-3.46
-23.99
-39.77
-49.21
-51.10
-45.06
-32.68
-18.37
-8.62
-9.55
-23.56
-47.34
-72.81
-90.68
-95.07
-86.18
-69.68
-53.26
-42.49
-38.55
-38.90
-39.97
-39.80
-38.88
-39.13
-41.81
-46.24
-50.06
-50.45
-45.87
-36.78
-25.26
-14.24
-6.09
-1.71
-0.36
-0.18
0.88
4.13
9.56
16.01
21.70
25.18
25.88
24.28
21.62
19.25
18.07
18.18
18.96
19.43
18.72
16.49
12.96
8.78
4.69
1.19
-1.56
-3.70
-5.52
-7.19
-8.76
-10.16
-11.38
-12.53
-13.78
-15.25
-16.81
-18.09
-18.58
-17.83
-15.61
-12.02
-7.42
-2.30
2.82
7.48
11.29
13.97
15.36
15.45
14.43
12.68
10.66
8.85
7.56
6.94
6.90
7.24
7.69
8.02
8.07
7.81
7.22
6.38
5.31
4.06
2.69
1.25
-0.20
-1.59
-2.83
-3.84
-4.59
-5.06
-5.32
-5.50
-5.78
-6.37
-7.43
-9.05
-11.15
-13.51
-15.75
-17.48
-18.28
-17.86
-16.11
-13.09
-9.09
-4.49
0.18
4.46
7.96
10.48
12.00
12.64
12.59
12.02
11.09
9.93
8.70
7.51
6.44
5.51
4.67
3.86
3.05
2.28
1.63
1.19
1.05
1.25
1.79
2.65
3.74
4.83
5.60
5.75
5.07
3.60
1.56
-0.74
-3.03
-5.17
-7.16
-9.08
-10.99
-12.91
-14.81
-16.60
-18.10
-19.06
-19.13
-17.99
-15.48
-11.71
-7.06
-2.08
2.70
6.90
10.37
13.06
14.97
16.08
16.36
15.80
14.54
12.81
10.92
9.17
7.71
6.60
5.78
5.19
4.81
4.68
4.81
5.17
5.64
6.02
6.08
5.66
4.71
3.36
1.81
0.29
-1.03
-2.09
-2.96
-3.79
-4.75
-5.94
-7.41
-9.14
-11.04
-13.04
-14.98
-16.65
-17.74
-17.85
-16.64
-13.97
-10.03
-5.30
-0.43
3.94
7.42
9.91
11.50
12.36
12.66
12.47
11.86
10.93
9.81
8.67
7.66
6.84
6.24
5.79
5.44
5.15
4.91
4.75
4.67
4.64
4.54
4.21
3.51
2.38
0.89
-0.77
-2.35
-3.67
-4.67
-5.42
-6.06
-6.82
-7.90
-9.46
-11.55
-14.07
-16.71
-19.00
-20.37
-20.31
-18.55
-15.11
-10.38
-5.00
0.34
5.02
8.71
11.33
13.02
13.96
14.31
14.14
13.49
12.43
11.12
9.79
8.71
8.06
7.90
8.12
8.48
8.71
8.61
8.12
7.36
6.53
5.82
5.29
4.86
4.30
3.39
2.02
0.23
-1.77
-3.70
-5.35
-6.63
-7.61
-8.48
-9.46
-10.71
-12.30
-14.16
-16.09
-17.77
-18.79
-18.73
-17.27
-14.32
-10.08
-5.05
0.13
4.81
8.61
11.36
13.16
14.16
14.53
14.34
13.65
12.54
11.19
9.80
8.55
7.55
6.77
6.16
5.66
5.27
5.00
4.85
4.73
4.51
4.04
3.28
2.29
1.21
0.15
-0.87
-1.97
-3.28
-4.82
-6.50
-8.08
-9.37
-10.33
-11.09
-11.92
-13.02
-14.50
-16.27
-18.17
-19.95
-21.30
-21.84
-21.15
-18.91
-15.03
-9.80
-3.86
1.96
6.92
10.55
12.78
13.82
13.99
13.59
12.83
11.83
10.72
9.67
8.87
8.57
8.94
10.09
11.93
14.18
16.43
18.23
19.17
19.08
17.98
16.12
13.85
11.53
9.42
7.61
6.07
4.67
3.26
1.71
-0.02
-1.85
-3.68
-5.41
-6.98
-8.43
-9.83
-11.28
-12.87
-14.60
-16.37
-17.96
-19.00
-19.10
-17.89
-15.22
-11.18
-6.23
-0.99
3.82
7.64
10.22
11.62
12.21
12.47
12.75
13.15
13.48
13.38
12.52
10.79
8.50
6.23
4.70
4.43
5.53
7.59
9.92
11.90
13.34
14.66
16.71
20.52
26.92
36.30
48.41
62.12
75.21
84.34
85.52
75.39
52.73
19.54
-18.99
-55.94
-84.98
-102.37
-107.80
-103.83
-94.35
-83.03
-72.53
-64.33
-58.95
-56.06
-54.46
-52.20
-47.02
-37.28
-22.81
-5.22
12.62
27.65
37.72
42.24
42.10
39.04
34.92
31.13
28.42
27.04
26.86
27.53
28.65
29.75
30.40
30.33
29.47
27.93
26.00
23.97
22.08
20.40
18.78
16.99
14.77
11.97
8.68
5.18
1.86
-0.91
-3.00
-4.53
-5.81
-7.13
-8.66
-10.35
-11.96
-13.22
-13.92
-14.12
-14.05
-14.10
-14.70
-16.11
-18.30
-20.95
-23.48
-25.24
-25.70
-24.61
-21.97
-18.07
-13.31
-8.17
-3.09
1.52
5.44
8.57
11.00
12.85
14.28
15.33
15.97
16.14
15.84
15.09
14.01
12.72
11.32
9.86
8.40
7.04
5.89
5.04
4.51
4.19
3.88
3.38
2.57
1.45
0.17
-1.09
-2.18
-3.05
-3.76
-4.43
-5.15
-6.01
-7.01
-8.11
-9.23
-10.29
-11.22
-12.07
-12.95
-14.06
-15.49
-17.15
-18.71
-19.65
-19.48
-17.91
-15.01
-11.09
-6.67
-2.22
1.86
5.31
7.94
9.63
10.32
10.10
9.19
7.93
6.66
5.64
5.00
4.70
4.65
4.71
4.81
4.93
5.10
5.36
5.73
6.16
6.60
6.99
7.25
7.34
7.19
6.74
5.96
4.93
3.78
2.71
1.90
1.37
0.98
0.50
-0.27
-1.38
-2.70
-3.97
-4.99
-5.65
-6.05
-6.40
-6.94
-7.86
-9.21
-10.95
-12.87
-14.65
-15.87
-16.10
-14.99
-12.44
-8.67
-4.21
0.28
4.14
6.97
8.66
9.39
9.45
9.14
8.61
7.88
6.97
5.90
4.79
3.85
3.24
3.03
3.09
3.19
3.10
2.69
2.04
1.35
0.84
0.63
0.64
0.66
0.44
-0.21
-1.30
-2.68
-4.13
-5.37
-6.26
-6.79
-7.03
-7.18
-7.41
-7.83
-8.45
-9.20
-9.92
-10.48
-10.79
-10.89
-10.92
-11.08
-11.60
-12.62
-14.14
-15.95
-17.68
-18.80
-18.78
-17.23
-14.07
-9.50
-4.08
1.51
6.56
10.57
13.29
14.71
14.99
14.37
13.10
11.45
9.71
8.17
7.12
6.72
6.98
7.77
8.83
9.88
10.72
11.26
11.55
11.66
11.68
11.63
11.51
11.25
10.82
10.22
9.47
8.60
7.68
6.81
6.07
5.51
5.07
4.61
3.95
2.94
1.58
0.03
-1.42
-2.52
-3.15
-3.40
-3.54
-3.89
-4.75
-6.26
-8.43
-11.10
-13.96
-16.56
-18.34
-18.76
-17.45
-14.37
-9.88
-4.63
0.56
5.05
8.42
10.57
11.64
11.87
11.55
10.89
10.10
9.29
8.53
7.87
7.32
6.88
6.54
6.30
6.11
5.90
5.62
5.23
4.79
4.37
4.09
4.00
4.09
4.24
4.33
4.22
3.86
3.30
2.64
1.97
1.32
0.65
-0.10
-0.96
-1.85
-2.65
-3.23
-3.55
-3.67
-3.72
-3.84
-4.10
-4.53
-5.13
-5.94
-6.99
-8.30
-9.75
-11.06
-11.87
-11.84
-10.72
-8.45
-5.17
-1.15
3.21
7.44
11.09
13.77
15.30
15.66
15.06
13.82
12.27
10.63
9.04
7.53
6.11
4.75
3.44
2.13
0.80
-0.54
-1.79
-2.78
-3.29
-3.18
-2.48
-1.41
-0.34
0.32
0.38
-0.14
-0.93
-1.58
-1.81
-1.63
-1.33
-1.36
-2.11
-3.70
-5.94
-8.42
-10.75
-12.67
-14.14
-15.28
-16.28
-17.29
-18.40
-19.65
-21.00
-22.27
-23.19
-23.36
-22.43
-20.19
-16.70
-12.32
-7.63
-3.21
0.48
3.24
5.07
6.17
6.81
7.20
7.50
7.75
7.98
8.16
8.28
8.32
8.27
8.13
7.96
7.90
8.08
8.57
9.31
10.03
10.39
10.14
9.26
7.93
6.49
5.24
4.29
3.59
2.96
2.20
1.21
0.00
-1.38
-2.84
-4.28
-5.63
-6.74
-7.56
-8.09
-8.46
-8.92
-9.71
-10.95
-12.58
-14.25
-15.49
-15.80
-14.81
-12.46
-8.98
-4.86
-0.64
3.21
6.40
8.81
10.49
11.48
11.81
11.51
10.62
9.29
7.76
6.30
5.15
4.42
4.12
4.17
4.47
4.91
5.42
5.93
6.38
6.66
6.69
6.43
5.95
5.32
4.67
4.03
3.38
2.69
1.89
1.04
0.20
-0.59
-1.35
-2.18
-3.19
-4.39
-5.69
-6.84
-7.67
-8.10
-8.27
-8.48
-9.03
-10.11
-11.68
-13.48
-15.09
-16.05
-15.96
-14.56
-11.86
-8.06
-3.59
1.02
5.26
8.75
11.29
12.87
13.56
13.50
12.83
11.72
10.37
9.03
7.93
7.21
6.84
6.67
6.52
6.28
5.97
5.69
5.53
5.54
5.64
5.70
5.61
5.29
4.72
3.88
2.76
1.40
-0.09
-1.57
-2.88
-3.94
-4.72
-5.30
-5.75
-6.15
-6.52
-6.87
-7.18
-7.45
-7.74
-8.11
-8.69
-9.56
-10.81
-12.40
-14.17
-15.86
-17.06
-17.38
-16.57
-14.54
-11.47
-7.71
-3.72
0.01
3.15
5.49
7.00
7.76
7.83
7.33
6.37
5.08
3.64
2.29
1.29
0.81
0.96
1.70
2.85
4.20
5.53
6.64
7.40
7.77
7.71
7.26
6.55
5.70
4.92
4.29
3.83
3.43
2.94
2.20
1.18
-0.05
-1.36
-2.62
-3.75
-4.73
-5.59
-6.34
-6.99
-7.59
-8.24
-9.07
-10.23
-11.74
-13.41
-14.82
-15.42
-14.77
-12.63
-9.16
-4.85
-0.31
3.86
7.30
9.91
11.78
13.05
13.83
14.12
13.88
13.14
11.98
10.60
9.24
8.13
7.38
7.03
7.02
7.27
7.67
8.11
8.47
8.65
8.59
8.27
7.73
6.99
6.10
5.10
4.02
2.91
1.85
0.91
0.10
-0.63
-1.37
-2.24
-3.26
-4.38
-5.46
-6.39
-7.10
-7.65
-8.19
-8.89
-9.89
-11.24
-12.87
-14.57
-15.99
-16.74
-16.40
-14.71
-11.64
-7.47
-2.70
2.01
6.10
9.17
11.14
12.18
12.55
12.51
12.21
11.69
10.90
9.86
8.66
7.48
6.51
5.87
5.60
5.59
5.74
5.93
6.12
6.30
6.43
6.47
6.33
5.96
5.31
4.39
3.22
1.93
0.67
-0.42
-1.20
-1.69
-2.05
-2.48
-3.16
-4.12
-5.22
-6.24
-7.00
-7.44
-7.69
-7.98
-8.54
-9.49
-10.85
-12.52
-14.32
-15.98
-17.21
-17.66
-17.06
-15.30
-12.47
-8.84
-4.83
-0.83
2.86
6.03
8.55
10.31
11.19
11.11
10.17
8.66
6.97
5.52
4.59
4.31
4.64
5.47
6.61
7.90
9.22
10.58
12.15
14.11
16.51
19.14
21.50
22.97
23.12
22.06
20.51
19.71
20.92
24.99
31.99
41.13
51.06
60.36
68.04
73.83
78.25
82.31
87.11
93.36
100.92
108.63
114.47
116.09
111.84
101.59
87.15
71.66
58.49
49.82
45.91
45.23
45.41
44.39
40.95
34.63
25.35
13.16
-1.51
-17.47
-32.77
-45.43
-54.29
-59.43
-61.58
-61.15
-57.57
-49.82
-37.79
-23.55
-11.54
-6.98
-13.42
-30.63
-54.22
-77.22
-92.85
-96.92
-88.97
-71.92
-50.63
-30.29
-15.08
-7.16
-6.10
-8.78
-10.16
-5.19
9.10
32.02
59.31
84.96
103.82
113.50
114.58
109.16
98.87
83.85
63.36
37.28
7.54
-21.93
-46.63
-63.39
-71.69
-73.45
-71.69
-69.01
-66.72
-64.86
-62.92
-60.58
-58.09
-56.14
-55.46
-56.22
-57.87
-59.27
-59.07
-56.28
-50.62
-42.53
-32.95
-22.84
-12.78
-2.89
7.12
17.61
28.61
39.52
48.97
55.12
56.19
51.09
39.93
24.08
5.79
-12.48
-28.79
-42.09
-52.20
-59.48
-64.42
-67.38
-68.57
-68.30
-67.04
-65.41
-64.00
-63.15
-62.87
-62.99
-63.25
-63.51
-63.62
-63.32
-62.09
-59.23
-54.00
-45.97
-35.21
-22.38
-8.59
4.88
16.79
26.18
32.49
35.63
35.96
34.15
31.00
27.27
23.56
20.27
17.65
15.76
14.58
13.94
13.64
13.48
13.40
13.39
13.49
13.71
13.92
13.95
13.68
13.04
12.04
10.68
8.85
6.42
3.34
-0.27
-4.05
-7.56
-10.53
-12.99
-15.22
-17.61
-20.45
-23.75
-27.29
-30.72
-33.66
-35.78
-36.77
-36.36
-34.33
-30.62
-25.33
-18.80
-11.51
-4.04
3.06
9.29
14.33
18.03
20.44
21.73
22.11
21.77
20.88
19.58
18.06
16.57
15.35
14.58
14.36
14.60
15.08
15.48
15.42
14.63
12.98
10.56
7.69
4.74
2.06
-0.21
-2.12
-3.82
-5.50
-7.28
-9.18
-11.19
-13.30
-15.47
-17.64
-19.71
-21.56
-23.18
-24.65
-26.21
-28.09
-30.44
-33.13
-35.79
-37.89
-38.89
-38.49
-36.63
-33.51
-29.42
-24.65
-19.48
-14.08
-8.69
-3.58
0.91
4.45
6.81
7.95
7.98
7.15
5.79
4.22
2.75
1.67
1.20
1.44
2.37
3.74
5.22
6.44
7.16
7.24
6.71
5.71
4.38
2.90
1.43
0.13
-0.90
-1.68
-2.34
-3.15
-4.35
-6.09
-8.30
-10.74
-13.04
-14.88
-16.14
-16.92
-17.51
-18.33
-19.69
-21.78
-24.56
-27.74
-30.85
-33.30
-34.49
-33.95
-31.51
-27.33
-21.85
-15.61
-9.10
-2.60
3.77
9.99
15.93
21.38
26.00
29.51
31.72
32.70
32.67
31.94
30.85
29.64
28.47
27.43
26.56
25.83
25.21
24.59
23.80
22.70
21.17
19.26
17.13
15.11
13.50
12.51
12.11
12.03
11.85
11.17
9.75
7.64
5.05
2.30
-0.33
-2.77
-5.05
-7.36
-9.93
-12.99
-16.74
-21.24
-26.24
-31.17
-35.13
-37.19
-36.63
-33.28
-27.50
-20.04
-11.75
-3.34
4.67
11.89
17.98
22.66
25.75
27.33
27.68
27.19
26.25
25.12
23.92
22.73
21.56
20.44
19.34
18.21
17.03
15.86
14.79
13.96
13.35
12.78
11.92
10.43
8.16
5.23
2.02
-1.01
-3.51
-5.37
-6.75
-7.90
-9.05
-10.32
-11.65
-12.93
-14.03
-14.90
-15.64
-16.41
-17.46
-19.04
-21.31
-24.25
-27.59
-30.79
-33.12
-33.92
-32.78
-29.70
-25.10
-19.58
-13.75
-8.03
-2.63
2.37
6.91
10.87
14.07
16.36
17.68
18.14
17.95
17.38
16.61
15.74
14.75
13.59
12.34
11.14
10.30
10.07
10.53
11.51
12.62
13.41
13.55
12.90
11.56
9.79
7.88
6.09
4.57
3.36
2.41
1.59
0.76
-0.17
-1.25
-2.46
-3.69
-4.84
-5.84
-6.66
-7.35
-8.02
-8.88
-10.15
-12.06
-14.62
-17.60
-20.41
-22.25
-22.38
-20.36
-16.22
-10.48
-3.92
2.64
8.64
13.74
17.84
20.87
22.71
23.28
22.58
20.84
18.54
16.21
14.29
12.97
12.15
11.59
11.08
10.53
10.07
9.86
10.04
10.59
11.32
11.91
12.07
11.56
10.31
8.37
5.86
3.00
-0.03
-3.04
-5.88
-8.51
-10.95
-13.27
-15.51
-17.66
-19.68
-21.50
-23.16
-24.78
-26.62
-28.94
-31.91
-35.49
-39.39
-42.98
-45.52
-46.19
-44.45
-40.14
-33.56
-25.36
-16.36
-7.31
1.23
8.86
15.35
20.51
24.23
26.50
27.49
27.51
26.93
26.09
25.25
24.50
23.88
23.37
22.95
22.65
22.50
22.52
22.64
22.72
22.56
21.95
20.77
19.02
16.81
14.33
11.78
9.39
7.31
5.61
4.26
3.04
1.68
-0.07
-2.33
-5.04
-7.96
-10.83
-13.50
-15.94
-18.26
-20.63
-23.18
-26.02
-29.17
-32.58
-36.03
-39.07
-41.04
-41.26
-39.23
-34.86
-28.51
-20.91
-12.91
-5.25
1.62
7.45
12.16
15.75
18.20
19.58
20.02
19.77
19.10
18.25
17.43
16.71
16.12
15.64
15.27
15.07
15.07
15.28
15.59
15.80
15.65
14.93
13.52
11.50
9.12
6.69
4.52
2.76
1.38
0.18
-1.09
-2.66
-4.65
-6.97
-9.43
-11.69
-13.49
-14.65
-15.26
-15.59
-16.09
-17.27
-19.49
-22.86
-27.11
-31.57
-35.30
-37.36
-37.03
-34.07
-28.75
-21.74
-13.88
-5.92
1.62
8.42
14.32
19.17
22.80
25.11
26.07
25.88
24.94
23.76
22.84
22.45
22.64
23.18
23.80
24.27
24.57
24.86
25.30
25.91
26.43
26.43
25.46
23.36
20.27
16.63
12.95
9.59
6.70
4.17
1.76
-0.74
-3.44
-6.32
-9.23
-11.99
-14.45
-16.50
-18.20
-19.73
-21.46
-23.79
-26.97
-30.95
-35.23
-38.95
-41.05
-40.70
-37.53
-31.83
-24.37
-16.17
-8.14
-0.89
5.32
10.46
14.59
17.77
20.08
21.64
22.64
23.31
23.81
24.20
24.37
24.18
23.57
22.59
21.48
20.51
19.88
19.70
19.84
20.04
19.95
19.27
17.85
15.70
13.01
10.05
7.13
4.41
1.94
-0.37
-2.72
-5.25
-8.05
-11.05
-14.13
-17.14
-19.97
-22.53
-24.86
-27.04
-29.23
-31.68
-34.60
-38.02
-41.69
-45.00
-47.13
-47.26
-44.90
-40.06
-33.24
-25.23
-16.86
-8.80
-1.48
4.89
10.19
14.35
17.31
19.13
19.95
20.04
19.70
19.18
18.66
18.19
17.74
17.33
17.08
17.18
17.82
19.04
20.69
22.41
23.75
24.38
24.17
23.23
21.79
20.12
18.41
16.69
14.91
13.00
10.88
8.57
6.10
3.59
1.11
-1.28
-3.62
-6.06
-8.78
-11.95
-15.66
-19.82
-24.14
-28.15
-31.25
-32.86
-32.47
-29.86
-25.08
-18.51
-10.80
-2.69
5.11
12.07
17.85
22.34
25.51
27.38
27.95
27.26
25.48
22.91
19.97
17.09
14.63
12.76
11.52
10.84
10.64
10.83
11.29
11.84
12.23
12.18
11.50
10.19
8.43
6.54
4.82
3.41
2.27
1.13
-0.35
-2.40
-5.10
-8.33
-11.82
-15.29
-18.48
-21.26
-23.61
-25.65
-27.64
-29.88
-32.63
-35.91
-39.33
-42.20
-43.63
-42.90
-39.68
-34.15
-26.89
-18.69
-10.26
-2.09
5.50
12.28
18.03
22.50
25.53
27.09
27.37
26.71
25.54
24.19
22.88
21.63
20.37
19.05
17.68
16.42
15.52
15.18
15.42
16.06
16.72
16.94
16.43
15.10
13.09
10.70
8.29
6.08
4.17
2.49
0.87
-0.82
-2.69
-4.73
-6.91
-9.15
-11.42
-13.70
-16.03
-18.50
-21.22
-24.37
-28.06
-32.22
-36.52
-40.30
-42.67
-42.81
-40.21
-34.92
-27.50
-18.86
-9.97
-1.59
5.78
11.89
16.62
19.92
21.83
22.51
22.27
21.44
20.37
19.22
18.08
16.93
15.81
14.81
14.07
13.71
13.74
14.06
14.49
14.87
15.06
14.96
14.51
13.68
12.47
10.93
9.15
7.21
5.14
2.89
0.38
-2.39
-5.35
-8.33
-11.14
-13.65
-15.99
-18.44
-21.39
-25.15
-29.70
-34.60
-39.10
-42.23
-43.21
-41.61
-37.48
-31.26
-23.58
-15.10
-6.38
2.15
10.06
16.97
22.51
26.47
28.81
29.73
29.57
28.77
27.66
26.50
25.39
24.33
23.27
22.19
21.12
20.16
19.51
19.25
19.38
19.70
19.87
19.55
18.54
16.80
14.50
11.90
9.23
6.67
4.22
1.83
-0.64
-3.30
-6.22
-9.36
-12.63
-15.85
-18.80
-21.29
-23.27
-24.78
-26.12
-27.72
-30.05
-33.40
-37.64
-42.16
-45.94
-47.89
-47.21
-43.61
-37.35
-29.12
-19.76
-10.05
-0.63
8.06
15.73
22.16
27.22
30.86
33.11
34.11
34.14
33.53
32.58
31.53
30.42
29.22
27.86
26.35
24.89
23.74
23.07
22.90
23.01
23.03
22.62
21.56
19.85
17.65
15.19
12.70
10.32
8.08
5.94
3.82
1.63
-0.67
-3.09
-5.62
-8.19
-10.70
-13.06
-15.19
-17.16
-19.21
-21.71
-25.03
-29.21
-33.80
-37.89
-40.33
-40.18
-37.05
-31.20
-23.46
-14.81
-6.08
2.19
9.77
16.54
22.38
27.13
30.69
33.09
34.47
35.08
35.12
34.69
33.82
32.50
30.71
28.54
26.16
23.76
21.59
19.83
18.60
17.87
17.49
17.21
16.72
15.79
14.34
12.42
10.22
8.00
5.95
4.08
2.27
0.24
-2.26
-5.36
-8.98
-12.84
-16.52
-19.65
-21.96
-23.45
-24.31
-24.96
-25.95
-27.77
-30.70
-34.60
-38.84
-42.38
-44.08
-43.04
-38.92
-31.96
-22.92
-12.71
-2.18
8.04
17.49
25.84
32.79
38.12
41.74
43.76
44.41
44.01
42.85
41.13
39.01
36.62
34.14
31.73
29.62
27.89
26.53
25.43
24.39
23.28
22.02
20.62
19.08
17.34
15.29
12.81
9.89
6.67
3.43
0.37
-2.38
-4.92
-7.44
-10.15
-13.15
-16.39
-19.77
-23.17
-26.55
-29.91
-33.28
-36.68
-40.12
-43.60
-47.12
-50.61
-53.80
-56.18
-57.01
-55.58
-51.43
-44.60
-35.64
-25.46
-15.11
-5.49
2.76
9.30
14.06
17.09
18.57
18.74
17.94
16.63
15.33
14.55
14.60
15.52
17.00
18.54
19.66
20.09
19.87
19.29
18.69
18.32
18.25
18.34
18.38
18.12
17.35
15.97
14.03
11.75
9.51
7.69
6.48
5.77
5.17
4.15
2.35
-0.28
-3.43
-6.56
-9.19
-11.09
-12.40
-13.49
-14.82
-16.74
-19.37
-22.52
-25.78
-28.54
-30.09
-29.90
-27.68
-23.53
-17.83
-11.08
-3.82
3.50
10.41
16.33
20.67
22.91
22.86
20.79
17.44
13.69
10.35
7.91
6.56
6.25
6.87
8.22
10.11
12.23
14.25
15.91
17.03
17.60
17.66
17.35
16.73
15.80
14.50
12.73
10.40
7.47
3.99
0.20
-3.61
-7.13
-10.19
-12.75
-14.98
-17.07
-19.14
-21.22
-23.19
-24.95
-26.40
-27.54
-28.49
-29.40
-30.49
-32.00
-34.02
-36.47
-38.91
-40.64
-40.86
-38.92
-34.57
-28.05
-20.04
-11.39
-2.97
4.56
10.76
15.32
18.08
18.96
18.05
15.63
12.24
8.57
5.33
3.07
2.11
2.42
3.71
5.52
7.37
8.88
9.80
10.09
9.86
9.32
8.69
8.04
7.37
6.55
5.44
4.01
2.34
0.64
-0.89
-2.11
-3.02
-3.68
-4.19
-4.60
-4.95
-5.27
-5.59
-5.97
-6.54
-7.40
-8.70
-10.56
-13.10
-16.35
-20.15
-24.08
-27.51
-29.65
-29.82
-27.62
-23.06
-16.53
-8.72
-0.42
7.56
14.55
20.05
23.74
25.52
25.57
24.26
22.15
19.81
17.69
16.03
14.85
13.98
13.25
12.50
11.68
10.81
9.88
8.88
7.74
6.41
4.88
3.18
1.42
-0.26
-1.68
-2.69
-3.18
-3.18
-2.82
-2.38
-2.16
-2.35
-3.04
-4.12
-5.37
-6.56
-7.48
-8.04
-8.27
-8.31
-8.43
-8.89
-9.84
-11.18
-12.45
-12.93
-11.79
-8.45
-2.79
4.75
13.26
21.61
28.76
33.91
36.62
36.74
34.39
29.87
23.69
16.55
9.26
2.67
-2.54
-5.99
-7.65
-7.78
-6.89
-5.52
-4.14
-3.01
-2.18
-1.58
-1.10
-0.66
-0.28
-0.08
-0.14
-0.54
-1.25
-2.15
-3.06
-3.81
-4.28
-4.44
-4.34
-4.11
-3.87
-3.71
-3.69
-3.80
-4.09
-4.63
-5.57
-7.06
-9.25
-12.14
-15.57
-19.15
-22.28
-24.23
-24.33
-22.20
-17.83
-11.68
-4.58
2.55
8.88
13.80
17.06
18.62
18.63
17.40
15.25
12.59
9.79
7.26
5.26
3.99
3.46
3.55
4.00
4.50
4.80
4.82
4.59
4.24
3.84
3.36
2.70
1.67
0.22
-1.64
-3.82
-6.17
-8.53
-10.79
-12.84
-14.60
-16.04
-17.20
-18.23
-19.34
-20.75
-22.65
-25.05
-27.81
-30.49
-32.45
-32.97
-31.46
-27.68
-21.82
-14.52
-6.65
0.98
7.63
12.89
16.53
18.49
18.90
18.00
16.18
13.94
11.74
9.96
8.77
8.15
7.97
8.07
8.31
8.59
8.89
9.16
9.33
9.32
9.04
8.42
7.42
6.11
4.54
2.79
0.88
-1.22
-3.50
-5.92
-8.35
-10.63
-12.64
-14.41
-16.11
-18.03
-20.44
-23.45
-26.91
-30.42
-33.33
-34.96
-34.74
-32.34
-27.87
-21.74
-14.61
-7.22
-0.25
5.79
10.56
13.90
15.83
16.50
16.22
15.36
14.26
13.18
12.29
11.65
11.28
11.21
11.44
11.95
12.67
13.47
14.19
14.65
14.68
14.17
13.11
11.59
9.77
7.86
6.02
4.32
2.71
1.09
-0.69
-2.68
-4.89
-7.24
-9.64
-12.01
-14.34
-16.68
-19.16
-21.91
-25.01
-28.32
-31.48
-33.89
-34.82
-33.65
-30.06
-24.21
-16.68
-8.39
-0.34
6.68
12.19
16.11
18.61
20.01
20.61
20.57
20.00
18.99
17.76
16.58
15.76
15.48
15.71
16.25
16.82
17.21
17.31
17.13
16.72
16.06
15.08
13.70
11.91
9.79
7.50
5.24
3.16
1.32
-0.34
-1.99
-3.83
-6.02
-8.62
-11.59
-14.89
-18.49
-22.42
-26.66
-30.92
-34.57
-36.67
-36.20
-32.51
-25.62
-16.29
-5.82
4.36
13.10
19.79
24.30
26.86
27.78
27.40
26.08
24.20
22.17
20.37
19.06
18.28
17.91
17.74
17.56
17.26
16.86
16.46
16.17
16.00
15.84
15.50
14.73
13.35
11.34
8.83
6.11
3.44
1.02
-1.12
-3.07
-4.99
-7.03
-9.26
-11.63
-14.00
-16.21
-18.14
-19.75
-21.13
-22.49
-24.18
-26.49
-29.54
-33.06
-36.39
-38.57
-38.65
-36.04
-30.68
-23.10
-14.24
-5.16
3.18
10.17
15.49
19.14
21.31
22.30
22.44
21.99
21.18
20.14
19.03
18.00
17.25
16.92
17.04
17.49
18.06
18.52
18.68
18.46
17.82
16.74
15.22
13.29
11.08
8.72
6.39
4.19
2.10
-0.00
-2.25
-4.71
-7.27
-9.75
-11.94
-13.74
-15.24
-16.64
-18.23
-20.27
-22.99
-26.51
-30.75
-35.33
-39.54
-42.35
-42.72
-39.95
-33.94
-25.35
-15.38
-5.41
3.43
10.52
15.77
19.43
21.89
23.48
24.40
24.83
24.90
24.79
24.65
24.57
24.56
24.53
24.40
24.13
23.81
23.55
23.44
23.46
23.47
23.23
22.53
21.19
19.23
16.78
14.08
11.45
9.17
7.36
6.01
4.92
3.79
2.33
0.35
-2.14
-5.00
-8.00
-10.93
-13.65
-16.12
-18.41
-20.69
-23.21
-26.22
-29.82
-33.76
-37.42
-39.84
-40.00
-37.19
-31.28
-22.84
-13.01
-3.13
5.60
12.43
17.16
20.03
21.48
21.96
21.77
21.09
20.05
18.83
17.67
16.84
16.49
16.60
17.04
17.63
18.23
18.89
19.68
20.58
21.47
22.05
22.03
21.23
19.74
17.84
15.93
14.28
12.91
11.65
10.17
8.20
5.61
2.46
-1.09
-4.76
-8.35
-11.70
-14.71
-17.45
-20.01
-22.58
-25.35
-28.47
-31.93
-35.55
-38.85
-41.14
-41.61
-39.55
-34.59
-26.96
-17.42
-7.12
2.67
10.93
17.09
21.06
23.08
23.59
23.00
21.63
19.68
17.31
14.70
12.04
9.52
7.34
5.59
4.25
3.18
2.18
1.02
-0.46
-2.34
-4.65
-7.39
-10.59
-14.24
-18.33
-22.76
-27.27
-31.48
-34.98
-37.49
-38.95
-39.56
-39.75
-39.95
-40.54
-41.67
-43.32
-45.40
-47.83
-50.53
-53.48
-56.62
-59.92
-63.44
-67.39
-72.11
-77.88
-84.67
-91.95
-98.58
-102.97
-103.41
-98.48
-87.24
-69.35
-44.92
-14.61
20.30
57.72
94.70
127.81
153.85
170.69
177.79
176.20
168.03
155.81
141.90
128.30
116.58
107.84
102.46
99.83
98.42
96.30
91.94
84.75
75.09
63.73
51.27
37.89
23.65
9.14
-4.26
-14.55
-19.94
-19.84
-15.26
-8.62
-2.83
-0.25
-1.85
-7.04
-14.15
-21.43
-27.97
-34.10
-41.10
-50.17
-61.37
-73.14
-82.67
-87.13
-84.87
-76.23
-63.13
-48.19
-33.52
-20.24
-8.58
1.46
9.61
15.25
17.77
17.03
13.63
8.64
3.25
-1.64
-5.63
-8.66
-10.79
-12.09
-12.56
-12.27
-11.49
-10.52
-9.63
-8.83
-7.97
-6.82
-5.29
-3.55
-1.96
-0.91
-0.70
-1.46
-3.16
-5.65
-8.68
-11.87
-14.79
-17.05
-18.51
-19.35
-20.00
-20.93
-22.34
-24.05
-25.60
-26.58
-26.89
-26.82
-26.90
-27.57
-29.05
-31.22
-33.82
-36.48
-38.76
-40.13
-40.00
-37.81
-33.38
-27.06
-19.72
-12.49
-6.29
-1.56
1.86
4.55
7.14
10.07
13.33
16.61
19.39
21.24
21.99
21.84
21.24
20.69
20.51
20.61
20.56
19.79
17.86
14.73
10.79
6.70
3.11
0.49
-0.90
-0.85
0.82
4.39
9.96
17.31
25.71
34.08
41.16
45.91
47.79
46.82
43.61
39.13
34.54
30.82
28.55
27.74
27.82
27.85
26.91
24.41
20.34
15.26
10.09
5.80
3.18
2.68
4.29
7.59
11.82
16.04
19.41
21.42
22.04
21.56
20.45
19.00
17.23
14.93
11.94
8.32
4.53
1.27
-0.83
-1.45
-0.73
0.77
2.26
3.01
2.52
0.73
-2.04
-5.14
-7.93
-10.07
-11.68
-13.20
-15.11
-17.63
-20.47
-23.02
-24.65
-25.06
-24.53
-23.68
-23.18
-23.27
-23.66
-23.69
-22.69
-20.47
-17.46
-14.69
-13.31
-14.10
-17.01
-21.05
-24.61
-26.02
-24.19
-19.02
-11.35
-2.58
5.89
13.17
18.97
23.58
27.53
31.40
35.68
40.63
46.18
51.69
55.96
57.44
54.95
48.44
39.35
30.37
24.37
23.16
26.63
32.68
38.20
40.33
37.59
30.12
19.38
7.23
-4.66
-15.26
-24.03
-30.83
-35.70
-38.99
-41.34
-43.59
-46.50
-50.39
-54.98
-59.50
-63.06
-65.08
-65.50
-64.76
-63.50
-62.36
-61.74
-61.73
-62.07
-62.15
-61.05
-57.82
-51.74
-42.67
-31.30
-18.95
-7.27
2.24
8.66
11.79
12.09
10.45
7.93
5.44
3.51
2.26
1.43
0.67
-0.18
-0.91
-0.94
0.31
3.21
7.55
12.68
17.74
21.99
25.03
26.88
27.74
27.87
27.42
26.46
25.02
23.20
21.20
19.29
17.74
16.69
16.10
15.67
14.98
13.58
11.19
7.80
3.67
-0.77
-4.96
-8.26
-9.98
-9.48
-6.38
-0.79
6.56
14.53
21.91
27.88
32.23
35.24
37.24
38.25
37.82
35.31
30.23
22.67
13.33
3.45
-5.51
-12.12
-15.17
-14.01
-8.73
-0.37
9.20
17.72
23.33
25.14
23.52
19.81
15.71
12.54
10.89
10.56
10.89
11.12
10.71
9.45
7.40
4.82
2.03
-0.76
-3.43
-6.07
-8.83
-11.85
-15.18
-18.75
-22.40
-25.91
-28.99
-31.20
-31.99
-30.89
-27.59
-22.23
-15.37
-7.87
-0.62
5.66
10.57
14.01
16.04
16.84
16.62
15.60
14.07
12.27
10.46
8.82
7.54
6.72
6.42
6.62
7.23
8.04
8.81
9.28
9.25
8.62
7.41
5.71
3.66
1.40
-0.91
-3.14
-5.15
-6.85
-8.24
-9.40
-10.46
-11.58
-12.90
-14.50
-16.49
-18.95
-21.88
-25.11
-28.15
-30.28
-30.69
-28.79
-24.43
-17.96
-10.17
-1.93
5.93
12.82
18.41
22.55
25.24
26.57
26.71
25.91
24.46
22.73
21.02
19.59
18.61
18.05
17.75
17.43
16.84
15.86
14.57
13.23
12.13
11.45
11.16
11.06
10.80
10.09
8.78
6.84
4.41
1.68
-1.15
-3.94
-6.61
-9.17
-11.73
-14.44
-17.50
-21.04
-25.00
-29.04
-32.55
-34.76
-34.94
-32.69
-28.02
-21.40
-13.57
-5.34
2.58
9.66
15.57
20.12
23.24
24.95
25.40
24.86
23.66
22.13
20.51
18.97
17.57
16.39
15.49
14.92
14.72
14.83
15.11
15.34
15.32
14.91
14.07
12.85
11.33
9.59
7.63
5.46
3.10
0.60
-1.95
-4.48
-6.98
-9.47
-12.04
-14.73
-17.59
-20.61
-23.74
-26.82
-29.54
-31.45
-32.01
-30.76
-27.44
-22.16
-15.36
-7.71
0.02
7.21
13.38
18.25
21.73
23.79
24.53
24.11
22.80
20.91
18.81
16.81
15.18
14.09
13.61
13.71
14.28
15.15
16.09
16.85
17.23
17.07
16.30
14.91
12.98
10.66
8.18
5.76
3.60
1.77
0.18
-1.38
-3.14
-5.24
-7.65
-10.20
-12.61
-14.70
-16.41
-17.87
-19.35
-21.19
-23.61
-26.61
-29.86
-32.70
-34.35
-34.07
-31.49
-26.64
-20.01
-12.28
-4.20
3.59
10.59
16.40
20.70
23.28
24.07
23.26
21.27
18.69
16.11
13.97
12.49
11.63
11.25
11.17
11.33
11.73
12.37
13.14
13.80
14.05
13.63
12.49
10.75
8.69
6.57
4.53
2.58
0.62
-1.46
-3.70
-6.04
-8.34
-10.41
-12.12
-13.46
-14.52
-15.47
-16.56
-18.00
-19.93
-22.32
-25.00
-27.58
-29.52
-30.22
-29.22
-26.24
-21.34
-14.83
-7.28
0.63
8.23
14.93
20.25
23.92
25.84
26.13
25.10
23.15
20.73
18.21
15.88
13.96
12.60
11.90
11.88
12.48
13.45
14.45
15.09
15.09
14.35
12.99
11.23
9.25
7.11
4.75
2.11
-0.80
-3.81
-6.72
-9.31
-11.54
-13.46
-15.17
-16.81
-18.39
-19.96
-21.57
-23.36
-25.50
-28.10
-31.02
-33.84
-35.92
-36.54
-35.15
-31.52
-25.75
-18.26
-9.67
-0.70
7.89
15.36
21.13
24.83
26.46
26.37
25.11
23.28
21.36
19.65
18.28
17.24
16.47
15.89
15.40
14.94
14.54
14.24
14.13
14.21
14.38
14.42
14.05
13.02
11.26
8.89
6.18
3.46
0.99
-1.16
-3.06
-4.84
-6.62
-8.41
-10.16
-11.81
-13.37
-14.97
-16.76
-18.90
-21.42
-24.27
-27.26
-30.16
-32.65
-34.34
-34.79
-33.58
-30.42
-25.23
-18.23
-9.98
-1.26
7.03
14.03
19.15
22.15
23.19
22.71
21.26
19.31
17.22
15.19
13.36
11.89
10.91
10.50
10.64
11.21
11.98
12.76
13.36
13.62
13.47
12.86
11.83
10.48
8.95
7.38
5.89
4.50
3.12
1.62
-0.21
-2.51
-5.33
-8.54
-11.87
-14.95
-17.47
-19.28
-20.51
-21.52
-22.78
-24.61
-27.03
-29.65
-31.79
-32.67
-31.69
-28.58
-23.48
-16.86
-9.36
-1.62
5.75
12.23
17.40
20.97
22.78
22.90
21.65
19.58
17.35
15.61
14.77
14.96
15.95
17.31
18.59
19.62
20.50
21.57
23.07
24.94
26.65
27.43
26.56
23.76
19.32
14.08
9.05
5.12
2.70
1.65
1.36
0.99
-0.28
-2.91
-6.90
-11.69
-16.33
-19.74
-21.14
-20.35
-18.06
-15.92
-16.13
-20.81
-30.87
-45.01
-59.38
-68.31
-66.25
-50.02
-20.35
18.10
58.42
93.95
120.30
135.95
141.51
138.30
127.27
109.22
85.50
58.86
33.12
11.93
-2.78
-11.55
-16.86
-21.56
-27.38
-34.42
-41.70
-48.40
-54.60
-61.15
-68.81
-77.58
-86.53
-94.56
-101.23
-107.15
-113.35
-120.05
-125.63
-126.84
-120.30
-104.41
-80.75
-53.86
-29.55
-12.49
-4.26
-2.88
-4.00
-3.04
2.69
13.07
25.64
37.13
45.17
49.26
50.73
51.91
55.09
61.53
71.22
83.16
96.15
109.41
122.84
136.82
151.62
167.01
182.15
195.84
206.81
213.79
215.54
210.68
197.89
176.40
146.48
109.78
69.05
27.50
-12.04
-47.62
-78.21
-103.39
-123.00
-136.95
-145.49
-149.43
-150.30
-150.15
-151.02
-154.47
-161.27
-171.24
-183.39
-196.05
-207.14
-214.46
-216.09
-210.92
-199.00
-181.66
-161.10
-139.81
-119.84
-102.38
-87.81
-75.93
-66.46
-59.20
-54.01
-50.61
-48.50
-46.91
-44.99
-41.90
-36.96
-29.67
-19.71
-6.97
8.27
25.16
42.29
57.82
69.86
76.96
78.49
74.75
66.80
56.08
44.04
31.84
20.33
10.06
1.35
-5.73
-11.32
-15.87
-20.05
-24.49
-29.58
-35.17
-40.52
-44.49
-45.91
-44.22
-39.73
-33.69
-27.75
-23.22
-20.38
-18.32
-15.23
-9.10
1.47
16.85
36.14
57.46
78.36
96.43
109.94
118.25
121.97
122.58
121.78
120.75
119.66
117.78
114.00
107.54
98.35
87.25
75.57
64.68
55.59
48.69
43.75
40.09
36.90
33.48
29.44
24.70
19.31
13.29
6.51
-1.19
-9.81
-19.01
-28.05
-36.09
-42.45
-46.92
-49.77
-51.54
-52.77
-53.70
-54.28
-54.32
-53.70
-52.45
-50.64
-48.15
-44.48
-38.83
-30.43
-19.04
-5.20
9.73
23.95
35.76
44.01
48.38
49.23
47.35
43.66
38.97
33.99
29.29
25.31
22.37
20.54
19.75
19.74
20.31
21.32
22.70
24.37
26.07
27.40
27.86
27.06
24.89
21.58
17.60
13.45
9.47
5.82
2.51
-0.42
-2.84
-4.54
-5.35
-5.29
-4.64
-3.93
-3.77
-4.73
-7.09
-10.75
-15.18
-19.49
-22.56
-23.33
-21.07
-15.66
-7.64
1.84
11.36
19.56
25.49
28.74
29.43
28.03
25.16
21.44
17.43
13.59
10.29
7.79
6.18
5.39
5.18
5.27
5.41
5.47
5.48
5.54
5.77
6.15
6.57
6.75
6.42
5.41
3.71
1.46
-1.10
-3.75
-6.33
-8.75
-10.98
-12.94
-14.59
-15.88
-16.83
-17.62
-18.50
-19.81
-21.79
-24.46
-27.47
-30.15
-31.54
-30.70
-27.03
-20.47
-11.68
-1.88
7.41
14.82
19.47
21.19
20.43
18.01
14.82
11.49
8.37
5.58
3.15
1.16
-0.24
-0.91
-0.79
0.08
1.51
3.29
5.18
6.96
8.43
9.42
9.78
9.43
8.34
6.54
4.16
1.38
-1.54
-4.31
-6.66
-8.39
-9.49
-10.08
-10.49
-11.08
-12.18
-14.07
-16.86
-20.47
-24.55
-28.39
-31.05
-31.49
-28.94
-23.22
-14.85
-4.97
4.99
13.71
20.32
24.48
26.29
26.12
24.47
21.88
18.87
15.89
13.21
10.90
8.89
7.11
5.62
4.62
4.38
5.01
6.34
7.92
9.18
9.65
9.13
7.74
5.83
3.75
1.79
0.01
-1.62
-3.18
-4.70
-6.12
-7.38
-8.45
-9.41
-10.41
-11.59
-13.09
-14.98
-17.34
-20.18
-23.36
-26.50
-28.87
-29.54
-27.66
-22.79
-15.16
-5.68
4.24
13.16
19.98
24.20
25.95
25.77
24.35
22.30
20.06
17.88
15.87
14.07
12.52
11.22
10.24
9.64
9.51
9.82
10.45
11.09
11.42
11.21
10.43
9.29
8.07
6.95
5.93
4.81
3.33
1.32
-1.16
-3.94
-6.73
-9.26
-11.33
-12.86
-13.87
-14.51
-15.10
-16.05
-17.76
-20.46
-24.02
-27.88
-31.08
-32.49
-31.16
-26.63
-19.15
-9.72
0.26
9.33
16.37
20.84
22.79
22.65
20.97
18.30
15.06
11.65
8.41
5.71
3.80
2.81
2.68
3.22
4.15
5.19
6.07
6.57
6.57
6.04
5.09
3.91
2.68
1.54
0.45
-0.69
-2.06
-3.75
-5.73
-7.89
-10.01
-11.88
-13.35
-14.40
-15.11
-15.73
-16.59
-18.02
-20.25
-23.18
-26.31
-28.74
-29.38
-27.23
-21.79
-13.37
-3.03
7.60
16.84
23.41
26.75
27.08
25.19
22.03
18.42
14.84
11.48
8.41
5.77
3.83
2.91
3.17
4.49
6.45
8.45
9.95
10.65
10.55
9.85
8.81
7.60
6.26
4.76
3.01
1.00
-1.23
-3.60
-6.02
-8.40
-10.65
-12.70
-14.48
-15.95
-17.10
-18.04
-19.00
-20.32
-22.33
-25.17
-28.61
-31.96
-34.18
-34.12
-30.91
-24.33
-14.96
-4.08
6.71
15.91
22.57
26.40
27.66
26.98
24.97
22.16
18.94
15.66
12.68
10.41
9.11
8.86
9.47
10.54
11.63
12.42
12.83
12.92
12.85
12.70
12.39
11.72
10.47
8.55
6.08
3.38
0.83
-1.26
-2.76
-3.80
-4.62
-5.51
-6.62
-7.94
-9.32
-10.56
-11.55
-12.36
-13.26
-14.65
-16.87
-20.06
-23.92
-27.81
-30.75
-31.75
-30.08
-25.44
-18.14
-9.04
0.72
9.89
17.42
22.63
25.28
25.52
23.81
20.75
17.00
13.15
9.69
7.00
5.29
4.63
4.92
5.96
7.43
9.01
10.43
11.50
12.17
12.45
12.35
11.78
10.63
8.78
6.24
3.22
0.08
-2.74
-4.92
-6.37
-7.23
-7.83
-8.45
-9.27
-10.25
-11.24
-12.07
-12.70
-13.28
-14.11
-15.59
-18.06
-21.55
-25.69
-29.63
-32.20
-32.18
-28.81
-22.03
-12.65
-2.13
7.81
15.77
20.97
23.34
23.36
21.72
19.05
15.79
12.26
8.71
5.49
2.96
1.51
1.32
2.28
4.06
6.15
8.09
9.61
10.62
11.18
11.32
10.99
10.03
8.33
5.91
3.02
0.11
-2.35
-4.08
-5.08
-5.60
-6.10
-6.94
-8.30
-10.10
-12.06
-13.84
-15.17
-15.95
-16.32
-16.68
-17.52
-19.36
-22.46
-26.64
-31.19
-34.88
-36.31
-34.35
-28.54
-19.34
-8.04
3.60
13.84
21.40
25.70
26.89
25.62
22.77
19.15
15.35
11.75
8.56
5.99
4.24
3.52
3.92
5.33
7.42
9.73
11.79
13.37
14.42
15.08
15.42
15.44
14.92
13.67
11.57
8.78
5.70
2.84
0.68
-0.56
-0.95
-0.80
-0.58
-0.73
-1.54
-3.07
-5.15
-7.47
-9.69
-11.51
-12.83
-13.74
-14.56
-15.75
-17.78
-20.90
-24.96
-29.28
-32.73
-34.04
-32.18
-26.81
-18.45
-8.39
1.75
10.47
16.87
20.75
22.53
22.86
22.36
21.40
20.11
18.49
16.59
14.58
12.74
11.37
10.65
10.61
11.13
12.01
13.04
14.06
14.94
15.58
15.83
15.47
14.31
12.27
9.45
6.16
2.86
0.02
-2.04
-3.27
-3.90
-4.32
-4.95
-6.10
-7.81
-9.90
-12.04
-13.93
-15.37
-16.40
-17.27
-18.33
-19.96
-22.35
-25.42
-28.70
-31.39
-32.53
-31.24
-27.07
-20.16
-11.32
-1.82
6.98
13.98
18.63
20.95
21.40
20.54
18.91
16.83
14.51
12.13
9.94
8.27
7.38
7.39
8.19
9.49
10.91
12.12
12.91
13.22
13.11
12.69
12.05
11.21
10.08
8.52
6.42
3.80
0.90
-1.84
-3.95
-5.14
-5.48
-5.37
-5.35
-5.89
-7.15
-8.97
-10.96
-12.71
-14.01
-14.91
-15.69
-16.78
-18.56
-21.32
-25.07
-29.46
-33.80
-37.09
-38.25
-36.42
-31.25
-23.08
-12.88
-2.11
7.77
15.60
20.79
23.32
23.63
22.33
20.10
17.48
14.92
12.75
11.19
10.38
10.32
10.89
11.86
12.97
14.03
14.89
15.57
16.15
16.73
17.35
17.94
18.25
18.01
16.97
15.06
12.43
9.44
6.48
3.93
1.96
0.53
-0.61
-1.80
-3.36
-5.40
-7.81
-10.24
-12.28
-13.63
-14.27
-14.40
-14.37
-14.52
-15.11
-16.32
-18.29
-21.07
-24.48
-28.02
-30.80
-31.73
-29.91
-25.00
-17.40
-8.22
1.11
9.23
15.26
18.88
20.23
19.75
17.96
15.39
12.52
9.82
7.63
6.19
5.58
5.75
6.54
7.78
9.31
10.96
12.56
13.90
14.82
15.19
14.95
14.04
12.47
10.32
7.78
5.15
2.80
1.04
-0.02
-0.51
-0.76
-1.12
-1.85
-3.05
-4.64
-6.50
-8.42
-10.25
-11.84
-13.17
-14.33
-15.58
-17.27
-19.64
-22.66
-25.92
-28.63
-29.84
-28.69
-24.77
-18.27
-9.98
-1.04
7.34
14.19
19.02
21.75
22.67
22.16
20.60
18.29
15.53
12.65
10.06
8.16
7.25
7.37
8.34
9.80
11.38
12.83
14.13
15.33
16.50
17.52
18.12
17.89
16.55
14.06
10.71
6.98
3.40
0.39
-1.90
-3.49
-4.60
-5.54
-6.61
-8.04
-9.91
-12.11
-14.34
-16.22
-17.49
-18.10
-18.32
-18.69
-19.84
-22.26
-26.04
-30.75
-35.45
-38.86
-39.75
-37.31
-31.43
-22.73
-12.40
-1.86
7.59
15.03
20.07
22.76
23.48
22.74
21.05
18.83
16.39
13.96
11.77
10.05
9.04
8.87
9.50
10.68
12.01
13.07
13.54
13.29
12.39
11.00
9.31
7.39
5.21
2.70
-0.20
-3.36
-6.51
-9.24
-11.15
-11.98
-11.73
-10.72
-9.46
-8.51
-8.26
-8.82
-10.06
-11.71
-13.56
-15.51
-17.62
-19.95
-22.57
-25.48
-28.67
-32.07
-35.52
-38.59
-40.60
-40.68
-38.07
-32.44
-24.11
-14.01
-3.50
6.05
13.61
18.66
21.23
21.77
20.88
19.13
16.99
14.81
12.86
11.40
10.67
10.82
11.85
13.56
15.58
17.51
19.00
19.91
20.29
20.28
20.00
19.47
18.55
17.09
15.00
12.41
9.65
7.15
5.27
4.15
3.65
3.42
3.06
2.28
0.98
-0.72
-2.57
-4.36
-5.95
-7.36
-8.78
-10.44
-12.64
-15.57
-19.28
-23.61
-28.11
-32.03
-34.46
-34.48
-31.48
-25.42
-16.93
-7.15
2.55
10.96
17.36
21.55
23.71
24.25
23.54
21.93
19.79
17.51
15.48
13.99
13.15
12.94
13.22
13.90
14.90
16.15
17.49
18.69
19.51
19.82
19.64
19.10
18.33
17.33
15.98
14.13
11.76
9.06
6.39
4.17
2.64
1.80
1.40
1.02
0.28
-1.06
-3.00
-5.33
-7.72
-9.88
-11.62
-12.93
-13.99
-15.08
-16.55
-18.72
-21.73
-25.48
-29.52
-33.06
-35.11
-34.77
-31.49
-25.33
-17.00
-7.65
1.45
9.22
15.05
18.78
20.62
20.95
20.19
18.65
16.59
14.22
11.80
9.66
8.15
7.53
7.88
9.01
10.54
12.07
13.28
14.06
14.48
14.64
14.61
14.33
13.67
12.51
10.84
8.81
6.69
4.77
3.26
2.22
1.54
0.99
0.31
-0.71
-2.11
-3.79
-5.57
-7.22
-8.64
-9.82
-10.88
-11.97
-13.24
-14.86
-16.96
-19.62
-22.73
-25.88
-28.38
-29.38
-28.15
-24.35
-18.21
-10.46
-2.11
5.80
12.48
17.45
20.56
21.86
21.58
20.02
17.57
14.63
11.67
9.13
7.41
6.74
7.14
8.38
10.08
11.79
13.18
14.09
14.51
14.54
14.25
13.68
12.78
11.51
9.85
7.87
5.74
3.68
1.86
0.36
-0.88
-2.03
-3.28
-4.74
-6.39
-8.08
-9.62
-10.91
-11.94
-12.84
-13.83
-15.12
-16.92
-19.37
-22.45
-25.93
-29.26
-31.64
-32.15
-30.09
-25.23
-17.97
-9.27
-0.35
7.64
13.92
18.19
20.57
21.39
20.99
19.69
17.73
15.37
12.91
10.71
9.10
8.34
8.52
9.52
11.06
12.76
14.22
15.16
15.47
15.23
14.61
13.80
12.88
11.80
10.45
8.75
6.76
4.72
2.93
1.65
0.94
0.63
0.37
-0.21
-1.35
-3.05
-5.12
-7.27
-9.24
-10.93
-12.38
-13.74
-15.21
-16.96
-19.11
-21.76
-24.91
-28.45
-32.01
-34.93
-36.37
-35.51
-31.89
-25.56
-17.20
-7.91
1.08
8.78
14.60
18.40
20.38
20.90
20.36
19.12
17.50
15.75
14.11
12.75
11.82
11.40
11.51
12.04
12.82
13.67
14.39
14.87
15.08
15.03
14.73
14.14
13.21
11.87
10.14
8.11
5.94
3.80
1.89
0.31
-0.90
-1.79
-2.55
-3.37
-4.42
-5.80
-7.43
-9.16
-10.83
-12.32
-13.62
-14.84
-16.16
-17.80
-19.98
-22.78
-26.15
-29.75
-32.96
-34.97
-34.98
-32.42
-27.22
-19.85
-11.23
-2.47
5.37
11.59
15.91
18.42
19.42
19.31
18.36
16.83
14.93
12.92
11.13
9.85
9.29
9.45
10.15
11.12
12.07
12.86
13.44
13.89
14.24
14.45
14.34
13.69
12.34
10.26
7.66
4.94
2.53
0.75
-0.31
-0.82
-1.14
-1.64
-2.54
-3.84
-5.37
-6.85
-8.09
-9.01
-9.72
-10.44
-11.48
-13.12
-15.55
-18.73
-22.29
-25.57
-27.67
-27.73
-25.19
-20.06
-12.91
-4.75
3.29
10.25
15.53
18.96
20.64
20.81
19.75
17.77
15.18
12.38
9.77
7.74
6.54
6.24
6.71
7.67
8.81
9.88
10.75
11.41
11.85
12.04
11.89
11.28
10.16
8.57
6.66
4.64
2.74
1.09
-0.23
-1.24
-2.00
-2.66
-3.37
-4.33
-5.65
-7.36
-9.35
-11.38
-13.21
-14.67
-15.77
-16.70
-17.83
-19.53
-22.07
-25.44
-29.29
-32.87
-35.24
-35.49
-33.03
-27.78
-20.23
-11.34
-2.24
6.03
12.74
17.50
20.32
21.41
21.15
19.97
18.28
16.43
14.65
13.08
11.81
10.95
10.57
10.78
11.55
12.73
14.04
15.18
15.91
16.16
15.93
15.33
14.45
13.29
11.86
10.19
8.40
6.67
5.15
3.90
2.86
1.91
0.93
-0.12
-1.21
-2.30
-3.41
-4.63
-6.09
-7.86
-9.90
-12.05
-14.11
-15.98
-17.70
-19.46
-21.55
-24.23
-27.55
-31.21
-34.57
-36.68
-36.62
-33.73
-27.95
-19.87
-10.58
-1.34
6.72
12.91
17.02
19.19
19.77
19.17
17.74
15.82
13.69
11.62
9.85
8.57
7.87
7.78
8.19
8.94
9.86
10.77
11.56
12.13
12.43
12.39
11.98
11.17
9.99
8.49
6.75
4.91
3.12
1.52
0.24
-0.69
-1.33
-1.85
-2.47
-3.36
-4.56
-5.96
-7.35
-8.48
-9.27
-9.77
-10.26
-11.08
-12.57
-14.93
-18.09
-21.70
-25.13
-27.56
-28.16
-26.37
-22.03
-15.53
-7.71
0.39
7.77
13.69
17.81
20.10
20.75
20.08
18.42
16.16
13.64
11.22
9.21
7.83
7.23
7.39
8.21
9.44
10.81
12.07
13.00
13.52
13.59
13.25
12.52
11.43
9.98
8.19
6.16
4.00
1.91
0.06
-1.45
-2.64
-3.66
-4.72
-6.04
-7.66
-9.50
-11.32
-12.91
-14.12
-14.97
-15.68
-16.52
-17.84
-19.88
-22.74
-26.23
-29.83
-32.70
-33.86
-32.49
-28.19
-21.22
-12.40
-2.96
5.88
13.11
18.20
21.07
22.00
21.43
19.84
17.67
15.23
12.78
10.59
8.86
7.81
7.60
8.23
9.57
11.37
13.29
14.99
16.21
16.78
16.65
15.87
14.58
12.93
11.07
9.12
7.15
5.20
3.35
1.73
0.46
-0.42
-0.99
-1.52
-2.30
-3.59
-5.44
-7.66
-9.91
-11.88
-13.40
-14.52
-15.45
-16.45
-17.76
-19.57
-21.99
-25.06
-28.62
-32.21
-35.01
-36.03
-34.37
-29.62
-22.07
-12.72
-2.90
6.08
13.30
18.35
21.28
22.36
21.94
20.37
18.06
15.44
12.94
10.97
9.76
9.37
9.66
10.40
11.34
12.27
13.08
13.77
14.32
14.74
14.94
14.81
14.25
13.25
11.89
10.34
8.75
7.23
5.81
4.49
3.28
2.20
1.24
0.37
-0.48
-1.38
-2.43
-3.68
-5.14
-6.79
-8.57
-10.38
-12.12
-13.73
-15.25
-16.87
-18.84
-21.41
-24.64
-28.25
-31.60
-33.85
-34.14
-31.91
-27.07
-20.03
-11.65
-2.95
5.14
11.92
17.01
20.30
21.86
21.89
20.67
18.55
15.91
13.19
10.79
9.04
8.15
8.11
8.76
9.80
10.93
11.90
12.61
13.03
13.21
13.15
12.77
11.97
10.66
8.88
6.83
4.78
3.02
1.72
0.87
0.30
-0.28
-1.13
-2.37
-4.02
-5.97
-8.04
-10.11
-12.04
-13.77
-15.31
-16.80
-18.44
-20.51
-23.16
-26.28
-29.38
-31.63
-32.07
-29.92
-24.95
-17.54
-8.70
0.32
8.33
14.55
18.71
20.93
21.55
20.95
19.46
17.34
14.88
12.44
10.40
9.05
8.57
8.91
9.88
11.22
12.64
13.93
14.93
15.55
15.74
15.48
14.80
13.76
12.40
10.78
8.92
6.84
4.60
2.31
0.17
-1.65
-3.03
-3.94
-4.51
-4.95
-5.49
-6.32
-7.53
-9.09
-10.88
-12.72
-14.43
-15.96
-17.37
-18.88
-20.79
-23.37
-26.68
-30.48
-34.16
-36.80
-37.39
-35.16
-29.82
-21.77
-12.02
-1.95
7.08
14.06
18.52
20.53
20.60
19.35
17.42
15.26
13.17
11.37
10.03
9.31
9.26
9.83
10.78
11.79
12.58
13.02
13.15
13.12
13.05
12.95
12.71
12.17
11.23
9.87
8.18
6.29
4.36
2.53
0.96
-0.27
-1.14
-1.76
-2.33
-3.09
-4.24
-5.78
-7.56
-9.30
-10.76
-11.81
-12.54
-13.23
-14.26
-15.98
-18.55
-21.90
-25.63
-29.11
-31.51
-32.05
-30.14
-25.59
-18.74
-10.35
-1.48
6.80
13.71
18.80
22.01
23.47
23.41
22.08
19.74
16.76
13.62
10.82
8.81
7.83
7.87
8.68
9.90
11.23
12.46
13.51
14.36
14.93
15.07
14.58
13.31
11.27
8.68
5.89
3.31
1.26
-0.19
-1.20
-2.07
-3.10
-4.45
-6.06
-7.70
-9.14
-10.28
-11.22
-12.26
-13.72
-15.82
-18.62
-22.02
-25.71
-29.23
-31.94
-33.09
-31.98
-28.24
-21.95
-13.75
-4.67
4.18
11.84
17.72
21.61
23.53
23.72
22.50
20.27
17.49
14.67
12.23
10.45
9.46
9.19
9.47
10.08
10.82
11.54
12.19
12.76
13.24
13.62
13.78
13.57
12.79
11.36
9.30
6.85
4.31
2.03
0.19
-1.17
-2.22
-3.24
-4.49
-6.12
-8.11
-10.28
-12.37
-14.14
-15.46
-16.42
-17.30
-18.50
-20.43
-23.35
-27.20
-31.53
-35.52
-38.11
-38.33
-35.54
-29.69
-21.40
-11.80
-2.21
6.21
12.70
17.04
19.41
20.21
19.88
18.79
17.22
15.43
13.71
12.33
11.52
11.36
11.78
12.60
13.63
14.71
15.77
16.75
17.59
18.16
18.28
17.75
16.44
14.36
11.68
8.72
5.83
3.37
1.54
0.36
-0.38
-1.01
-1.87
-3.12
-4.69
-6.37
-7.90
-9.12
-10.13
-11.16
-12.54
-14.55
-17.27
-20.52
-23.86
-26.65
-28.15
-27.68
-24.84
-19.64
-12.52
-4.32
3.97
11.39
17.28
21.25
23.30
23.61
22.54
20.50
17.89
15.15
12.62
10.60
9.26
8.66
8.71
9.25
10.10
11.04
11.95
12.72
13.25
13.45
13.19
12.37
10.91
8.86
6.41
3.84
1.45
-0.55
-2.06
-3.21
-4.19
-5.27
-6.59
-8.20
-10.00
-11.86
-13.62
-15.24
-16.80
-18.51
-20.63
-23.38
-26.81
-30.62
-34.17
-36.56
-36.84
-34.38
-29.01
-21.20
-11.86
-2.17
6.79
14.20
19.61
22.90
24.22
23.87
22.27
19.88
17.20
14.71
12.76
11.57
11.17
11.40
12.03
12.79
13.52
14.15
14.68
15.11
15.37
15.34
14.88
13.90
12.37
10.40
8.15
5.82
3.63
1.75
0.28
-0.86
-1.89
-3.10
-4.76
-6.95
-9.50
-12.04
-14.16
-15.61
-16.42
-16.87
-17.39
-18.40
-20.21
-22.93
-26.38
-30.12
-33.37
-35.22
-34.76
-31.42
-25.24
-16.87
-7.47
1.69
9.51
15.40
19.21
21.15
21.57
20.84
19.31
17.31
15.17
13.20
11.62
10.52
9.91
9.72
9.88
10.35
11.11
12.08
13.15
14.10
14.70
14.71
14.01
12.60
10.64
8.37
6.09
4.08
2.50
1.36
0.51
-0.32
-1.36
-2.75
-4.45
-6.25
-7.88
-9.18
-10.13
-10.94
-11.94
-13.47
-15.79
-18.92
-22.56
-26.04
-28.48
-28.96
-26.84
-22.05
-15.09
-6.97
1.17
8.30
13.81
17.49
19.49
20.07
19.53
18.12
16.08
13.67
11.22
9.08
7.60
6.96
7.15
7.96
9.06
10.12
10.94
11.46
11.71
11.72
11.47
10.84
9.75
8.22
6.38
4.48
2.77
1.33
0.14
-1.03
-2.40
-4.12
-6.18
-8.44
-10.69
-12.69
-14.33
-15.56
-16.47
-17.25
-18.17
-19.54
-21.65
-24.53
-27.93
-31.16
-33.27
-33.29
-30.54
-24.96
-17.11
-8.07
0.90
8.75
14.79
18.81
20.97
21.59
21.04
19.62
17.61
15.28
12.98
11.04
9.77
9.32
9.62
10.46
11.51
12.52
13.38
14.10
14.71
15.17
15.29
14.85
13.67
11.76
9.38
6.88
4.59
2.68
1.11
-0.32
-1.85
-3.62
-5.70
-7.98
-10.30
-12.47
-14.30
-15.69
-16.64
-17.27
-17.84
-18.73
-20.29
-22.73
-25.94
-29.44
-32.41
-33.89
-33.08
-29.57
-23.55
-15.76
-7.27
0.79
7.54
12.50
15.59
17.06
17.25
16.54
15.24
13.61
11.89
10.28
8.97
8.08
7.71
7.88
8.51
9.47
10.58
11.65
12.51
13.05
13.23
12.99
12.30
11.12
9.50
7.59
5.64
3.92
2.59
1.62
0.81
-0.12
-1.35
-2.85
-4.42
-5.81
-6.85
-7.59
-8.29
-9.29
-10.93
-13.37
-16.55
-20.09
-23.39
-25.64
-26.04
-24.05
-19.54
-12.90
-4.98
3.12
10.38
16.05
19.80
21.68
21.98
21.10
19.39
17.19
14.76
12.40
10.38
8.94
8.24
8.26
8.83
9.72
10.69
11.60
12.39
12.99
13.26
13.01
12.06
10.36
8.08
5.52
3.02
0.77
-1.23
-3.12
-5.03
-7.00
-8.97
-10.78
-12.32
-13.61
-14.75
-15.92
-17.34
-19.18
-21.59
-24.55
-27.78
-30.73
-32.59
-32.49
-29.79
-24.34
-16.64
-7.67
1.30
9.14
15.09
18.90
20.72
20.92
19.96
18.25
16.13
13.87
11.74
9.95
8.69
8.03
7.96
8.40
9.23
10.32
11.54
12.73
13.68
14.18
14.03
13.10
11.44
9.19
6.64
4.09
1.78
-0.17
-1.76
-3.13
-4.46
-5.91
-7.58
-9.41
-11.26
-12.99
-14.52
-15.96
-17.62
-19.89
-23.07
-27.14
-31.57
-35.44
-37.63
-37.20
-33.71
-27.36
-18.94
-9.58
-0.44
7.51
13.66
17.74
19.78
20.06
18.99
17.09
14.87
12.74
11.00
9.77
9.10
8.96
9.27
9.90
10.76
11.70
12.60
13.32
13.73
13.74
13.27
12.34
11.02
9.43
7.67
5.85
4.04
2.32
0.76
-0.60
-1.81
-2.98
-4.26
-5.79
-7.55
-9.44
-11.29
-13.01
-14.66
-16.46
-18.69
-21.52
-24.76
-27.79
-29.69
-29.48
-26.53
-20.84
-13.08
-4.42
3.85
10.71
15.69
18.79
20.36
20.79
20.37
19.24
17.50
15.34
13.06
11.05
9.67
9.11
9.34
10.18
11.31
12.47
13.45
14.11
14.34
14.06
13.18
11.71
9.73
7.45
5.07
2.78
0.64
-1.34
-3.22
-5.02
-6.75
-8.37
-9.81
-11.01
-11.99
-12.80
-13.67
-14.86
-16.69
-19.31
-22.55
-25.85
-28.30
-28.92
-26.99
-22.33
-15.35
-7.00
1.59
9.35
15.51
19.69
21.87
22.25
21.19
19.13
16.54
13.85
11.44
9.58
8.40
7.94
8.14
8.87
9.95
11.21
12.45
13.46
14.06
14.09
13.42
12.00
9.90
7.31
4.53
1.88
-0.39
-2.19
-3.66
-5.02
-6.55
-8.34
-10.36
-12.40
-14.26
-15.84
-17.17
-18.43
-19.90
-21.84
-24.40
-27.52
-30.82
-33.62
-35.02
-34.16
-30.53
-24.16
-15.68
-6.16
3.18
11.33
17.64
21.88
24.19
24.88
24.30
22.80
20.72
18.38
16.12
14.25
13.01
12.48
12.56
13.02
13.57
13.94
14.05
13.91
13.62
13.26
12.80
12.08
10.90
9.15
6.90
4.42
2.09
0.22
-1.10
-2.01
-2.82
-3.84
-5.29
-7.18
-9.38
-11.64
-13.70
-15.39
-16.67
-17.70
-18.83
-20.43
-22.80
-25.91
-29.35
-32.33
-33.89
-33.23
-29.88
-23.93
-16.00
-7.07
1.74
9.46
15.45
19.45
21.58
22.15
21.55
20.15
18.27
16.22
14.27
12.64
11.51
10.95
10.94
11.36
12.06
12.89
13.73
14.46
14.98
15.14
14.82
13.91
12.39
10.35
7.99
5.57
3.32
1.40
-0.17
-1.50
-2.72
-3.96
-5.24
-6.48
-7.56
-8.38
-8.94
-9.40
-10.03
-11.19
-13.17
-16.08
-19.71
-23.49
-26.53
-27.83
-26.58
-22.46
-15.75
-7.35
1.55
9.76
16.41
21.05
23.61
24.30
23.43
21.37
18.50
15.30
12.23
9.71
8.03
7.28
7.33
7.91
8.73
9.56
10.30
10.97
11.55
11.95
11.96
11.33
9.90
7.73
5.11
2.46
0.17
-1.56
-2.76
-3.65
-4.52
-5.64
-7.11
-8.91
-10.89
-12.82
-14.50
-15.84
-16.87
-17.82
-19.05
-20.90
-23.51
-26.71
-29.91
-32.27
-32.83
-30.90
-26.26
-19.24
-10.67
-1.64
6.78
13.74
18.75
21.68
22.72
22.26
20.74
18.60
16.23
13.90
11.87
10.33
9.41
9.15
9.48
10.18
11.02
11.75
12.27
12.56
12.65
12.51
12.07
11.18
9.77
7.87
5.69
3.55
1.77
0.50
-0.35
-1.04
-1.89
-3.12
-4.78
-6.75
-8.78
-10.69
-12.33
-13.70
-14.95
-16.33
-18.19
-20.81
-24.27
-28.26
-32.01
-34.51
-34.77
-32.20
-26.79
-19.18
-10.42
-1.65
6.13
12.28
16.51
18.84
19.53
18.91
17.38
15.35
13.18
11.18
9.60
8.59
8.17
8.30
8.89
9.78
10.79
11.76
12.54
13.03
13.15
12.87
12.15
11.01
9.48
7.61
5.53
3.43
1.49
-0.16
-1.52
-2.70
-3.91
-5.31
-6.93
-8.67
-10.35
-11.78
-12.90
-13.84
-14.86
-16.33
-18.51
-21.36
-24.50
-27.22
-28.62
-27.90
-24.62
-18.86
-11.21
-2.64
5.78
13.09
18.64
22.17
23.72
23.58
22.14
19.83
17.01
14.05
11.30
9.08
7.67
7.21
7.63
8.70
10.06
11.35
12.28
12.70
12.55
11.83
10.57
8.84
6.73
4.43
2.18
0.18
-1.46
-2.80
-4.02
-5.33
-6.88
-8.64
-10.45
-12.10
-13.44
-14.49
-15.39
-16.44
-17.93
-20.08
-22.83
-25.81
-28.30
-29.41
-28.33
-24.60
-18.34
-10.28
-1.50
6.79
13.64
18.52
21.38
22.48
22.24
21.05
19.16
16.80
14.19
11.63
9.47
8.03
7.49
7.80
8.73
9.97
11.20
12.18
12.74
12.75
12.12
10.88
9.13
7.06
4.90
2.78
0.74
-1.26
-3.28
-5.30
-7.24
-8.99
-10.48
-11.73
-12.86
-14.05
-15.50
-17.35
-19.73
-22.63
-25.86
-29.00
-31.32
-32.00
-30.31
-25.90
-19.05
-10.56
-1.63
6.54
13.04
17.43
19.71
20.18
19.26
17.36
14.83
12.07
9.45
7.39
6.18
5.96
6.63
7.86
9.28
10.52
11.35
11.70
11.59
11.07
10.22
9.12
7.84
6.43
4.90
3.22
1.28
-0.94
-3.40
-5.91
-8.21
-10.07
-11.41
-12.31
-13.04
-13.99
-15.57
-18.06
-21.47
-25.45
-29.30
-32.01
-32.58
-30.29
-24.96
-17.13
-7.88
1.41
9.45
15.43
19.09
20.70
20.80
19.91
18.40
16.44
14.13
11.68
9.39
7.63
6.71
6.69
7.40
8.56
9.87
11.07
12.05
12.72
12.97
12.70
11.82
10.31
8.26
5.86
3.30
0.78
-1.62
-3.87
-6.02
-8.11
-10.13
-12.00
-13.66
-15.08
-16.36
-17.75
-19.55
-21.96
-24.91
-27.94
-30.25
-30.91
-29.15
-24.70
-17.91
-9.65
-1.08
6.73
13.06
17.60
20.38
21.57
21.38
19.99
17.69
14.85
12.00
9.65
8.19
7.78
8.27
9.37
10.68
11.87
12.70
13.08
13.05
12.72
12.18
11.42
10.37
8.91
6.93
4.48
1.76
-0.96
-3.41
-5.40
-6.93
-8.10
-9.04
-9.94
-10.99
-12.41
-14.41
-17.06
-20.16
-23.08
-24.93
-24.82
-22.14
-16.88
-9.66
-1.54
6.29
12.91
17.81
20.90
22.35
22.46
21.46
19.51
16.83
13.70
10.53
7.79
5.90
5.07
5.23
6.09
7.21
8.22
8.86
9.06
8.88
8.40
7.68
6.69
5.35
3.58
1.36
-1.22
-3.99
-6.68
-9.05
-10.93
-12.32
-13.34
-14.23
-15.25
-16.64
-18.58
-21.13
-24.21
-27.48
-30.33
-31.93
-31.44
-28.27
-22.36
-14.30
-5.16
3.78
11.40
17.02
20.47
21.96
21.94
20.86
19.06
16.82
14.38
12.02
10.04
8.70
8.15
8.39
9.25
10.49
11.82
13.02
13.86
14.18
13.85
12.84
11.20
9.08
6.71
4.31
2.03
-0.07
-2.00
-3.78
-5.44
-6.97
-8.36
-9.64
-10.88
-12.19
-13.73
-15.68
-18.21
-21.41
-25.12
-28.89
-31.94
-33.34
-32.31
-28.46
-22.00
-13.68
-4.66
3.91
11.10
16.40
19.68
21.17
21.18
20.12
18.33
16.20
14.05
12.21
10.92
10.28
10.26
10.72
11.46
12.30
13.11
13.76
14.17
14.22
13.82
12.93
11.59
9.88
7.99
6.04
4.17
2.45
0.88
-0.57
-1.99
-3.43
-4.93
-6.49
-8.05
-9.61
-11.18
-12.85
-14.81
-17.24
-20.27
-23.78
-27.36
-30.29
-31.65
-30.67
-26.93
-20.65
-12.55
-3.74
4.66
11.79
17.16
20.61
22.23
22.21
20.84
18.47
15.59
12.72
10.33
8.73
8.04
8.18
8.95
10.11
11.41
12.65
13.62
14.16
14.18
13.66
12.69
11.37
9.81
8.06
6.08
3.87
1.44
-1.14
-3.70
-6.05
-8.03
-9.53
-10.55
-11.21
-11.75
-12.48
-13.75
-15.81
-18.73
-22.25
-25.78
-28.47
-29.42
-27.92
-23.71
-17.12
-8.95
-0.31
7.66
14.09
18.52
20.86
21.36
20.41
18.44
15.90
13.15
10.55
8.40
6.94
6.33
6.55
7.46
8.79
10.17
11.30
11.93
11.98
11.53
10.72
9.66
8.41
6.93
5.20
3.23
1.14
-0.89
-2.73
-4.37
-5.92
-7.55
-9.37
-11.33
-13.27
-14.95
-16.30
-17.40
-18.58
-20.21
-22.58
-25.71
-29.21
-32.33
-34.07
-33.53
-30.14
-23.92
-15.54
-6.13
3.02
10.80
16.56
20.13
21.74
21.80
20.77
19.04
16.93
14.71
12.62
10.88
9.66
9.03
8.95
9.28
9.86
10.60
11.43
12.32
13.19
13.83
13.98
13.37
11.87
9.60
6.85
4.03
1.51
-0.53
-2.10
-3.38
-4.59
-5.90
-7.32
-8.78
-10.17
-11.43
-12.60
-13.86
-15.42
-17.50
-20.20
-23.44
-26.92
-30.12
-32.32
-32.75
-30.80
-26.24
-19.35
-10.93
-2.08
6.08
12.72
17.46
20.28
21.49
21.45
20.49
18.87
16.80
14.52
12.36
10.69
9.80
9.79
10.56
11.83
13.29
14.62
15.65
16.29
16.48
16.16
15.26
13.77
11.75
9.42
7.01
4.75
2.76
1.02
-0.56
-2.11
-3.71
-5.35
-6.96
-8.47
-9.84
-11.15
-12.58
-14.36
-16.69
-19.61
-22.94
-26.20
-28.71
-29.70
-28.51
-24.85
-18.91
-11.34
-3.13
4.68
11.24
16.06
19.01
20.20
19.92
18.51
16.32
13.78
11.30
9.30
8.08
7.74
8.17
9.11
10.22
11.19
11.88
12.24
12.33
12.20
11.81
11.05
9.78
7.96
5.69
3.21
0.86
-1.12
-2.68
-3.96
-5.20
-6.62
-8.23
-9.92
-11.49
-12.82
-13.90
-14.90
-16.02
-17.51
-19.57
-22.31
-25.68
-29.38
-32.78
-34.97
-35.00
-32.19
-26.46
-18.40
-9.12
0.08
8.08
14.20
18.24
20.36
20.93
20.36
19.04
17.30
15.43
13.66
12.16
11.04
10.34
10.01
9.99
10.19
10.54
11.01
11.58
12.22
12.77
13.01
12.67
11.61
9.85
7.61
5.26
3.10
1.35
-0.02
-1.17
-2.32
-3.69
-5.35
-7.27
-9.29
-11.21
-12.85
-14.15
-15.17
-16.13
-17.36
-19.16
-21.70
-24.88
-28.25
-31.03
-32.32
-31.29
-27.53
-21.22
-13.09
-4.25
4.16
11.27
16.59
20.05
21.83
22.20
21.46
19.87
17.72
15.34
13.05
11.17
9.90
9.38
9.59
10.42
11.63
12.97
14.19
15.07
15.46
15.28
14.51
13.18
11.39
9.32
7.17
5.16
3.40
1.88
0.44
-1.13
-3.00
-5.17
-7.50
-9.71
-11.53
-12.81
-13.64
-14.30
-15.24
-16.88
-19.48
-22.88
-26.55
-29.53
-30.74
-29.34
-24.96
-17.95
-9.23
-0.08
8.29
15.00
19.64
22.23
23.01
22.32
20.52
17.98
15.11
12.29
9.90
8.18
7.25
7.07
7.50
8.36
9.44
10.57
11.57
12.30
12.62
12.43
11.65
10.26
8.34
6.09
3.79
1.69
-0.06
-1.51
-2.85
-4.33
-6.10
-8.14
-10.29
-12.33
-14.12
-15.62
-16.87
-18.03
-19.31
-20.98
-23.31
-26.41
-30.05
-33.57
-35.96
-36.15
-33.40
-27.64
-19.53
-10.25
-1.12
6.80
12.90
17.06
19.48
20.47
20.35
19.39
17.84
15.98
14.14
12.61
11.60
11.16
11.20
11.55
12.00
12.45
12.86
13.24
13.61
13.93
14.08
13.87
13.12
11.74
9.76
7.38
4.87
2.50
0.44
-1.30
-2.84
-4.31
-5.86
-7.50
-9.17
-10.76
-12.19
-13.44
-14.57
-15.74
-17.13
-18.99
-21.49
-24.62
-28.03
-31.00
-32.58
-31.87
-28.37
-22.20
-14.12
-5.27
3.19
10.37
15.85
19.57
21.71
22.51
22.23
21.08
19.32
17.23
15.14
13.33
12.05
11.41
11.43
12.02
13.01
14.17
15.28
16.17
16.69
16.75
16.25
15.13
13.36
11.09
8.55
6.09
3.98
2.35
1.08
-0.11
-1.49
-3.24
-5.34
-7.60
-9.74
-11.56
-13.07
-14.42
-15.95
-18.00
-20.78
-24.20
-27.86
-30.98
-32.67
-32.08
-28.75
-22.79
-14.82
-5.91
2.81
10.33
16.01
19.65
21.37
21.51
20.44
18.55
16.20
13.76
11.62
10.13
9.49
9.73
10.62
11.78
12.85
13.56
13.84
13.81
13.58
13.24
12.67
11.73
10.25
8.24
5.87
3.43
1.21
-0.61
-2.06
-3.35
-4.77
-6.56
-8.77
-11.27
-13.76
-15.92
-17.56
-18.72
-19.65
-20.76
-22.47
-25.03
-28.37
-32.03
-35.22
-36.94
-36.28
-32.68
-26.16
-17.36
-7.39
2.46
11.03
17.55
21.74
23.73
23.91
22.80
20.89
18.61
16.31
14.29
12.74
11.80
11.48
11.67
12.19
12.82
13.39
13.79
14.01
14.08
14.04
13.85
13.37
12.46
11.04
9.13
6.91
4.66
2.65
1.03
-0.25
-1.38
-2.63
-4.19
-6.09
-8.16
-10.16
-11.82
-13.04
-13.88
-14.59
-15.50
-16.93
-19.09
-21.99
-25.32
-28.50
-30.72
-31.13
-29.07
-24.34
-17.28
-8.73
0.24
8.59
15.53
20.61
23.73
25.00
24.68
23.11
20.70
17.90
15.15
12.83
11.19
10.32
10.20
10.67
11.57
12.71
13.94
15.09
16.01
16.54
16.51
15.78
14.29
12.14
9.56
6.91
4.49
2.48
0.89
-0.45
-1.79
-3.32
-5.13
-7.13
-9.16
-11.02
-12.61
-13.94
-15.13
-16.43
-18.10
-20.35
-23.20
-26.38
-29.31
-31.19
-31.19
-28.74
-23.74
-16.63
-8.29
0.23
7.99
14.32
18.91
21.70
22.77
22.29
20.51
17.81
14.70
11.78
9.59
8.55
8.83
10.34
12.74
15.46
17.84
19.25
19.33
18.06
15.75
12.97
10.24
7.89
5.99
4.37
2.86
1.43
0.15
-0.88
-1.66
-2.37
-3.31
-4.76
-6.83
-9.37
-12.04
-14.45
-16.30
-17.53
-18.30
-18.99
-20.07
-21.94
-24.79
-28.48
-32.41
-35.67
-37.22
-36.20
-32.23
-25.56
-16.97
-7.60
1.40
9.08
14.89
18.64
20.47
20.71
19.76
18.05
15.96
13.83
11.98
10.65
9.97
9.93
10.38
11.09
11.86
12.55
13.14
13.65
14.06
14.28
14.16
13.55
12.35
10.60
8.43
6.06
3.72
1.65
-0.01
-1.24
-2.18
-3.10
-4.28
-5.91
-7.97
-10.20
-12.23
-13.77
-14.70
-15.20
-15.67
-16.59
-18.32
-20.94
-24.13
-27.21
-29.28
-29.48
-27.21
-22.35
-15.30
-6.91
1.77
9.77
16.34
21.06
23.82
24.77
24.20
22.49
20.05
17.32
14.63
12.30
10.54
9.48
9.21
9.66
10.70
12.08
13.52
14.78
15.69
16.11
15.97
15.18
13.68
11.53
8.92
6.14
3.51
1.20
-0.81
-2.69
-4.65
-6.79
-9.04
-11.23
-13.18
-14.80
-16.16
-17.41
-18.76
-20.45
-22.69
-25.52
-28.79
-31.97
-34.19
-34.48
-32.02
-26.54
-18.50
-8.95
0.74
9.31
15.91
20.26
22.49
22.99
22.16
20.37
17.91
15.14
12.45
10.27
8.93
8.58
9.07
10.09
11.26
12.31
13.15
13.83
14.42
14.86
14.97
14.47
13.20
11.16
8.61
5.89
3.34
1.13
-0.75
-2.43
-4.08
-5.84
-7.79
-9.93
-12.16
-14.28
-16.06
-17.38
-18.30
-19.13
-20.33
-22.35
-25.36
-29.07
-32.74
-35.38
-36.02
-34.00
-29.18
-21.96
-13.17
-3.89
4.82
12.10
17.43
20.70
22.05
21.83
20.44
18.29
15.82
13.41
11.44
10.16
9.70
9.96
10.70
11.65
12.57
13.32
13.87
14.21
14.33
14.15
13.57
12.50
10.92
8.90
6.63
4.37
2.36
0.74
-0.50
-1.51
-2.51
-3.69
-5.12
-6.75
-8.41
-9.98
-11.34
-12.54
-13.69
-15.00
-16.70
-18.95
-21.79
-24.93
-27.81
-29.58
-29.37
-26.54
-21.00
-13.27
-4.40
4.37
11.97
17.74
21.50
23.43
23.82
22.96
21.08
18.45
15.44
12.46
9.99
8.34
7.63
7.77
8.53
9.66
10.94
12.24
13.43
14.38
14.93
14.90
14.19
12.78
10.79
8.43
5.99
3.68
1.62
-0.23
-1.99
-3.82
-5.83
-8.04
-10.31
-12.45
-14.26
-15.68
-16.86
-18.12
-19.88
-22.42
-25.74
-29.41
-32.61
-34.34
-33.72
-30.28
-24.13
-15.92
-6.70
2.39
10.36
16.53
20.60
22.59
22.75
21.50
19.33
16.74
14.23
12.18
10.80
10.15
10.17
10.67
11.45
12.30
13.09
13.72
14.15
14.36
14.32
13.94
13.10
11.65
9.58
7.00
4.22
1.58
-0.59
-2.18
-3.34
-4.35
-5.58
-7.24
-9.34
-11.70
-14.02
-16.05
-17.67
-18.94
-20.10
-21.46
-23.31
-25.82
-28.89
-32.10
-34.75
-35.94
-34.87
-31.09
-24.68
-16.28
-6.93
2.25
10.32
16.65
21.00
23.38
24.01
23.18
21.25
18.62
15.74
13.05
10.94
9.67
9.32
9.77
10.78
12.09
13.43
14.66
15.66
16.37
16.67
16.41
15.44
13.73
11.38
8.68
6.03
3.78
2.10
0.95
0.03
-1.01
-2.45
-4.33
-6.49
-8.63
-10.46
-11.83
-12.77
-13.43
-14.06
-14.92
-16.27
-18.31
-21.11
-24.53
-28.13
-31.15
-32.68
-31.83
-28.15
-21.70
-13.21
-3.82
5.18
12.76
18.37
21.90
23.60
23.80
22.77
20.77
18.09
15.13
12.36
10.28
9.19
9.15
9.97
11.32
12.84
14.21
15.25
15.88
16.06
15.78
15.05
13.85
12.21
10.20
7.94
5.68
3.62
1.90
0.48
-0.81
-2.23
-3.96
-6.02
-8.24
-10.33
-12.05
-13.36
-14.39
-15.48
-17.03
-19.33
-22.50
-26.32
-30.23
-33.35
-34.70
-33.44
-29.16
-22.08
-13.05
-3.35
5.71
13.13
18.42
21.56
22.83
22.61
21.21
18.92
16.07
13.09
10.48
8.72
8.08
8.50
9.68
11.12
12.40
13.24
13.64
13.73
13.66
13.50
13.14
12.36
10.96
8.88
6.26
3.43
0.76
-1.46
-3.19
-4.58
-5.89
-7.38
-9.13
-11.09
-13.04
-14.78
-16.22
-17.40
-18.49
-19.71
-21.28
-23.40
-26.13
-29.30
-32.45
-34.82
-35.47
-33.62
-28.91
-21.59
-12.50
-2.84
6.17
13.62
19.04
22.38
23.91
24.01
23.08
21.43
19.32
16.98
14.63
12.57
11.10
10.46
10.71
11.68
13.02
14.31
15.24
15.67
15.64
15.24
14.51
13.38
11.75
9.63
7.16
4.67
2.54
0.97
-0.04
-0.74
-1.50
-2.66
-4.36
-6.52
-8.92
-11.23
-13.20
-14.67
-15.65
-16.30
-16.88
-17.74
-19.19
-21.47
-24.56
-28.16
-31.56
-33.80
-33.91
-31.16
-25.44
-17.33
-7.93
1.44
9.61
15.88
20.06
22.33
23.04
22.55
21.16
19.13
16.77
14.41
12.39
10.98
10.30
10.30
10.83
11.71
12.75
13.86
14.95
15.94
16.67
16.96
16.60
15.49
13.67
11.35
8.82
6.38
4.28
2.60
1.30
0.20
-0.96
-2.37
-4.12
-6.14
-8.21
-10.13
-11.78
-13.22
-14.70
-16.51
-18.90
-21.93
-25.39
-28.77
-31.37
-32.39
-31.17
-27.36
-21.12
-13.11
-4.37
3.98
11.03
16.28
19.62
21.23
21.39
20.38
18.49
16.03
13.37
10.92
9.03
7.96
7.76
8.33
9.44
10.79
12.11
13.17
13.82
14.01
13.71
12.93
11.65
9.91
7.76
5.39
3.06
1.03
-0.50
-1.56
-2.36
-3.20
-4.36
-5.97
-7.92
-9.98
-11.91
-13.55
-14.93
-16.19
-17.54
-19.19
-21.32
-24.06
-27.39
-30.99
-34.20
-36.02
-35.46
-31.85
-25.20
-16.27
-6.33
3.27
11.46
17.67
21.74
23.84
24.25
23.25
21.20
18.54
15.72
13.23
11.42
10.49
10.45
11.15
12.31
13.65
14.90
15.87
16.50
16.81
16.85
16.64
16.11
15.13
13.60
11.53
9.06
6.47
4.06
2.05
0.48
-0.77
-1.96
-3.32
-5.01
-7.06
-9.39
-11.84
-14.25
-16.46
-18.42
-20.12
-21.70
-23.41
-25.47
-28.03
-30.93
-33.66
-35.40
-35.23
-32.41
-26.67
-18.36
-8.34
2.17
11.93
19.92
25.49
28.42
28.84
27.13
23.88
19.78
15.56
11.90
9.34
8.17
8.43
9.85
11.99
14.33
16.39
17.87
18.63
18.72
18.28
17.48
16.43
15.15
13.57
11.60
9.19
6.43
3.57
0.92
-1.20
-2.64
-3.49
-4.01
-4.56
-5.42
-6.68
-8.27
-10.02
-11.78
-13.47
-15.08
-16.63
-18.15
-19.77
-21.65
-24.03
-26.93
-30.04
-32.61
-33.62
-32.11
-27.60
-20.35
-11.32
-1.86
6.74
13.60
18.36
21.11
22.13
21.70
20.07
17.52
14.40
11.20
8.43
6.49
5.59
5.68
6.51
7.76
9.14
10.44
11.54
12.43
13.13
13.65
13.95
13.90
13.30
12.01
10.05
7.62
5.09
2.88
1.25
0.23
-0.35
-0.83
-1.51
-2.57
-4.06
-5.87
-7.84
-9.84
-11.77
-13.63
-15.48
-17.44
-19.64
-22.14
-24.88
-27.54
-29.60
-30.35
-29.13
-25.51
-19.55
-11.81
-3.26
5.00
12.04
17.32
20.71
22.35
22.52
21.48
19.47
16.76
13.74
10.84
8.52
7.08
6.65
7.12
8.23
9.65
11.08
12.32
13.26
13.84
13.99
13.64
12.71
11.14
9.02
6.53
3.97
1.61
-0.39
-2.03
-3.46
-4.88
-6.43
-8.09
-9.71
-11.07
-12.05
-12.68
-13.22
-14.03
-15.53
-17.97
-21.30
-25.08
-28.51
-30.61
-30.48
-27.58
-21.91
-14.07
-5.07
3.91
11.78
17.79
21.55
23.05
22.55
20.51
17.48
14.06
10.79
8.10
6.25
5.37
5.42
6.23
7.56
9.13
10.67
11.97
12.90
13.36
13.30
12.62
11.23
9.11
6.37
3.34
0.44
-1.95
-3.65
-4.79
-5.70
-6.74
-8.10
-9.77
-11.53
-13.14
-14.45
-15.50
-16.43
-17.48
-18.89
-20.88
-23.56
-26.88
-30.51
-33.72
-35.55
-35.04
-31.60
-25.25
-16.69
-7.08
2.32
10.48
16.76
20.96
23.16
23.59
22.54
20.39
17.57
14.57
11.90
9.94
8.92
8.86
9.58
10.79
12.13
13.32
14.17
14.62
14.72
14.54
14.08
13.27
11.99
10.17
7.86
5.30
2.83
0.76
-0.79
-1.92
-2.94
-4.22
-5.98
-8.23
-10.74
-13.16
-15.19
-16.73
-17.86
-18.87
-20.09
-21.84
-24.32
-27.51
-31.07
-34.38
-36.50
-36.48
-33.54
-27.48
-18.77
-8.54
1.74
10.67
17.31
21.36
23.05
22.94
21.62
19.56
17.07
14.40
11.80
9.61
8.11
7.51
7.79
8.72
10.00
11.36
12.65
13.83
14.91
15.81
16.37
16.32
15.42
13.63
11.12
8.30
5.63
3.46
1.92
0.88
0.01
-1.02
-2.48
-4.39
-6.56
-8.69
-10.47
-11.76
-12.63
-13.36
-14.31
-15.87
-18.25
-21.34
-24.66
-27.43
-28.72
-27.71
-24.00
-17.70
-9.51
-0.52
8.08
15.28
20.48
23.51
24.52
23.87
21.99
19.27
16.15
13.05
10.39
8.52
7.61
7.67
8.49
9.75
11.15
12.46
13.50
14.17
14.38
14.10
13.33
12.10
10.47
8.52
6.35
4.11
1.99
0.15
-1.34
-2.60
-3.84
-5.33
-7.21
-9.40
-11.63
-13.54
-14.90
-15.75
-16.42
-17.46
-19.41
-22.54
-26.65
-31.03
-34.59
-36.17
-34.87
-30.37
-23.05
-13.86
-4.08
5.07
12.67
18.24
21.66
23.11
22.92
21.44
19.08
16.28
13.48
11.12
9.54
8.93
9.22
10.17
11.43
12.65
13.58
14.17
14.46
14.56
14.50
14.21
13.56
12.39
10.66
8.44
5.98
3.61
1.60
0.05
-1.12
-2.15
-3.31
-4.78
-6.55
-8.50
-10.46
-12.29
-13.95
-15.49
-16.98
-18.56
-20.44
-22.84
-25.95
-29.71
-33.63
-36.82
-38.15
-36.66
-31.88
-24.11
-14.32
-3.87
5.88
13.95
19.85
23.54
25.27
25.41
24.32
22.35
19.86
17.24
14.84
13.00
11.91
11.61
12.03
12.97
14.18
15.37
16.34
16.92
17.04
16.73
16.03
14.98
13.61
11.92
9.95
7.82
5.68
3.72
2.07
0.73
-0.41
-1.55
-2.87
-4.51
-6.52
-8.86
-11.34
-13.73
-15.76
-17.22
-18.11
-18.62
-19.14
-20.13
-21.93
-24.65
-27.96
-31.19
-33.40
-33.63
-31.19
-25.86
-18.03
-8.63
1.11
9.99
17.11
22.05
24.81
25.67
25.03
23.29
20.78
17.85
14.87
12.20
10.22
9.14
8.99
9.62
10.71
11.98
13.21
14.30
15.20
15.83
16.06
15.70
14.64
12.88
10.60
8.09
5.69
3.70
2.23
1.26
0.58
-0.13
-1.17
-2.74
-4.77
-7.04
-9.20
-11.01
-12.41
-13.59
-14.83
-16.47
-18.72
-21.63
-24.99
-28.34
-30.94
-31.92
-30.52
-26.29
-19.42
-10.68
-1.27
7.59
14.96
20.36
23.76
25.31
25.27
23.86
21.34
18.09
14.61
11.42
9.03
7.71
7.49
8.16
9.38
10.75
11.95
12.79
13.23
13.33
13.18
12.86
12.29
11.32
9.75
7.56
4.89
2.09
-0.41
-2.31
-3.55
-4.36
-5.14
-6.27
-7.96
-10.15
-12.53
-14.72
-16.47
-17.73
-18.72
-19.83
-21.46
-23.85
-27.04
-30.79
-34.62
-37.85
-39.65
-39.15
-35.73
-29.22
-20.12
-9.55
1.04
10.29
17.29
21.78
24.05
24.64
24.06
22.66
20.65
18.22
15.62
13.19
11.25
10.02
9.57
9.83
10.61
11.70
12.84
13.86
14.63
15.08
15.17
14.89
14.18
12.98
11.23
9.00
6.47
3.91
1.66
-0.08
-1.29
-2.17
-3.04
-4.19
-5.80
-7.81
-10.00
-12.08
-13.79
-15.04
-15.92
-16.65
-17.54
-18.90
-20.96
-23.80
-27.18
-30.48
-32.78
-33.04
-30.47
-24.80
-16.53
-6.74
3.17
11.94
18.71
23.18
25.50
26.03
25.19
23.35
20.82
17.93
15.04
12.52
10.69
9.72
9.57
10.05
10.88
11.83
12.76
13.65
14.53
15.34
15.92
15.98
15.22
13.51
10.98
8.04
5.20
2.90
1.28
0.13
-0.94
-2.34
-4.25
-6.55
-8.89
-10.88
-12.32
-13.27
-14.05
-15.12
-16.87
-19.50
-22.93
-26.76
-30.24
-32.48
-32.58
-29.93
-24.44
-16.61
-7.48
1.74
9.89
16.20
20.35
22.44
22.79
21.81
19.89
17.43
14.79
12.31
10.28
8.88
8.15
8.08
8.53
9.38
10.49
11.71
12.89
13.83
14.33
14.22
13.37
11.79
9.60
7.04
4.38
1.89
-0.25
-2.02
-3.48
-4.80
-6.17
-7.70
-9.45
-11.37
-13.31
-15.13
-16.70
-18.01
-19.21
-20.63
-22.61
-25.41
-28.99
-32.90
-36.29
-38.11
-37.40
-33.61
-26.81
-17.73
-7.54
2.41
10.97
17.41
21.48
23.34
23.42
22.21
20.22
17.84
15.41
13.17
11.32
9.98
9.22
9.04
9.38
10.14
11.14
12.19
13.13
13.84
14.21
14.16
13.60
12.45
10.70
8.46
5.97
3.56
1.48
-0.14
-1.39
-2.50
-3.75
-5.27
-7.07
-8.96
-10.72
-12.18
-13.32
-14.29
-15.36
-16.86
-19.05
-22.03
-25.63
-29.32
-32.30
-33.59
-32.35
-28.17
-21.23
-12.32
-2.66
6.50
14.15
19.70
23.03
24.34
24.01
22.50
20.23
17.64
15.09
12.91
11.33
10.44
10.22
10.55
11.25
12.16
13.15
14.14
15.02
15.63
15.79
15.28
14.01
12.03
9.53
6.82
4.20
1.88
-0.10
-1.82
-3.39
-4.91
-6.38
-7.74
-8.91
-9.89
-10.80
-11.85
-13.31
-15.36
-18.10
-21.44
-25.05
-28.40
-30.75
-31.30
-29.39
-24.74
-17.60
-8.81
0.42
8.87
15.55
20.03
22.36
22.90
22.15
20.56
18.43
16.03
13.60
11.35
9.55
8.38
7.94
8.23
9.09
10.29
11.58
12.69
13.45
13.76
13.57
12.86
11.60
9.78
7.50
4.98
2.55
0.54
-0.87
-1.81
-2.63
-3.78
-5.56
-7.95
-10.62
-13.09
-15.00
-16.27
-17.11
-17.96
-19.29
-21.43
-24.45
-28.11
-31.83
-34.83
-36.20
-35.15
-31.28
-24.74
-16.23
-6.85
2.21
9.98
15.89
19.78
21.80
22.25
21.49
19.85
17.70
15.42
13.42
12.02
11.39
11.49
12.09
12.84
13.50
13.94
14.21
14.43
14.71
14.98
15.03
14.56
13.32
11.29
8.65
5.81
3.20
1.16
-0.23
-1.10
-1.79
-2.65
-3.91
-5.63
-7.66
-9.76
-11.66
-13.16
-14.25
-15.05
-15.82
-16.90
-18.64
-21.24
-24.66
-28.52
-32.07
-34.31
-34.22
-31.14
-25.01
-16.47
-6.73
2.85
11.05
17.17
21.04
22.90
23.17
22.26
20.47
18.11
15.54
13.18
11.38
10.39
10.18
10.59
11.36
12.32
13.40
14.55
15.70
16.69
17.27
17.23
16.42
14.90
12.83
10.49
8.14
6.01
4.23
2.78
1.52
0.24
-1.29
-3.14
-5.21
-7.27
-9.06
-10.43
-11.45
-12.39
-13.63
-15.50
-18.15
-21.49
-25.15
-28.53
-30.87
-31.36
-29.38
-24.65
-17.45
-8.61
0.65
9.08
15.74
20.17
22.44
22.93
22.17
20.55
18.39
15.92
13.40
11.16
9.52
8.69
8.69
9.34
10.34
11.39
12.31
12.96
13.33
13.34
12.94
12.05
10.63
8.73
6.51
4.19
1.99
0.09
-1.43
-2.60
-3.57
-4.57
-5.83
-7.44
-9.35
-11.36
-13.21
-14.70
-15.80
-16.67
-17.54
-18.74
-20.56
-23.21
-26.65
-30.56
-34.25
-36.73
-36.99
-34.29
-28.47
-20.10
-10.25
-0.28
8.62
15.61
20.34
22.87
23.52
22.69
20.82
18.33
15.61
13.06
11.00
9.68
9.20
9.48
10.31
11.38
12.42
13.32
14.04
14.62
15.02
15.11
14.68
13.60
11.87
9.67
7.27
4.94
2.87
1.12
-0.32
-1.48
-2.42
-3.28
-4.24
-5.47
-7.01
-8.76
-10.50
-11.96
-12.99
-13.67
-14.27
-15.18
-16.77
-19.20
-22.35
-25.74
-28.63
-30.12
-29.43
-26.13
-20.28
-12.49
-3.73
4.89
12.39
18.10
21.74
23.38
23.30
21.90
19.63
16.88
14.07
11.57
9.72
8.74
8.67
9.33
10.42
11.59
12.63
13.51
14.30
15.04
15.63
15.81
15.23
13.66
11.15
8.03
4.81
1.99
-0.14
-1.55
-2.46
-3.20
-4.04
-5.13
-6.42
-7.78
-9.08
-10.23
-11.31
-12.46
-13.91
-15.89
-18.57
-21.91
-25.63
-29.12
-31.50
-31.85
-29.51
-24.32
-16.77
-7.90
1.03
8.88
14.93
18.95
21.06
