1531939768.00
64.000000
-0.00
-0.00
-0.00
-0.00
-0.00
-0.00
-0.00
-0.00
-0.00
-0.00
0.00
0.01
0.01
-0.00
-0.03
-0.05
-0.05
0.00
0.13
0.36
0.66
1.01
1.37
1.72
2.06
2.40
2.79
3.24
3.80
4.44
5.10
5.74
6.33
6.89
7.48
8.20
9.08
10.25
11.59
12.97
14.26
15.36
16.33
17.34
18.64
20.41
22.90
25.91
29.16
32.31
35.18
37.85
40.64
44.06
48.47
54.27
61.12
68.45
75.59
82.17
88.25
94.41
101.47
110.12
120.95
133.42
146.59
159.37
171.04
181.64
191.95
203.63
215.70
230.58
248.81
270.17
292.99
314.03
328.86
333.12
323.99
301.16
267.34
226.30
181.81
136.35
90.83
45.29
-0.08
-44.39
-86.15
-123.84
-157.21
-187.10
-215.11
-242.99
-272.11
-303.06
-335.29
-367.01
-395.04
-415.54
-425.01
-421.53
-405.49
-379.51
-347.50
-313.35
-279.89
-248.50
-219.65
-193.51
-170.29
-150.28
-133.40
-118.92
-105.54
-91.87
-76.96
-60.73
-43.95
-27.92
-13.81
-2.27
6.85
14.32
21.14
28.14
35.71
43.71
51.68
59.16
65.92
72.02
77.72
83.32
88.94
94.51
99.78
104.66
109.25
113.92
119.12
125.08
131.64
138.50
145.62
153.67
163.78
176.68
191.63
205.76
214.59
213.47
199.19
171.03
130.78
82.09
29.82
-20.36
-62.18
-89.55
-97.96
-86.16
-57.24
-18.06
22.84
58.23
84.35
101.58
113.40
124.57
139.15
159.12
183.97
210.90
235.76
254.27
263.34
261.93
251.10
233.34
211.60
188.35
165.27
143.33
123.05
104.67
88.00
72.38
56.74
40.06
21.92
2.71
-16.49
-34.54
-50.83
-65.64
-79.98
-95.02
-111.43
-129.03
-146.91
-164.04
-179.86
-194.67
-209.48
-225.40
-243.08
-262.46
-283.08
-304.51
-326.49
-348.67
-369.99
-388.57
-402.14
-408.90
-408.17
-400.14
-384.84
-360.91
-325.50
-275.67
-210.89
-134.92
-55.81
16.46
73.47
111.09
129.92
133.57
125.89
108.93
82.81
47.19
3.32
-44.77
-90.82
-128.31
-152.78
-163.31
-162.39
-154.48
-143.95
-133.53
-123.85
-114.02
-103.02
-90.83
-78.74
-68.63
-61.89
-58.60
-57.37
-56.04
-52.80
-46.98
-39.22
-31.11
-24.27
-19.64
-17.07
-15.55
-13.79
-10.85
-6.62
-1.72
2.89
6.41
8.60
9.78
10.60
11.65
13.21
15.20
17.33
19.33
21.13
22.75
24.26
25.64
26.78
27.56
27.97
28.16
28.37
28.86
29.72
30.83
31.94
32.82
33.38
33.71
34.00
34.44
35.00
35.51
35.67
35.26
34.26
32.88
31.39
30.07
29.02
28.18
27.42
26.58
25.58
24.44
23.22
21.92
20.58
19.16
17.66
16.11
14.58
13.17
12.03
11.26
10.88
10.83
10.98
11.13
11.15
10.98
10.66
10.27
9.88
9.50
9.10
8.66
8.20
7.80
7.50
7.31
7.13
6.86
6.43
5.90
5.42
5.22
5.43
6.01
6.76
7.39
7.65
7.46
6.93
6.39
6.23
6.81
8.32
10.78
13.97
17.47
20.75
23.21
24.35
23.84
21.68
18.17
13.91
9.59
5.86
3.13
1.52
0.89
0.94
1.38
1.93
2.40
2.65
2.59
2.21
1.62
1.03
0.70
0.80
1.32
2.06
2.73
3.07
3.00
2.64
2.20
1.90
1.85
2.00
2.25
2.51
2.77
3.07
3.47
3.98
4.50
4.92
5.13
5.10
4.84
4.43
3.93
3.36
2.74
2.12
1.54
1.13
1.00
1.28
1.98
2.97
3.99
4.75
5.06
4.86
4.34
3.81
3.55
3.66
4.05
4.49
4.72
4.61
4.21
3.66
3.14
2.75
2.46
2.20
1.92
1.62
1.38
1.33
1.52
1.93
2.44
2.85
3.05
2.98
2.76
2.55
2.53
2.75
3.17
3.64
3.95
4.00
3.77
3.39
3.00
2.70
2.47
2.22
1.87
1.43
1.01
0.78
0.87
1.29
1.84
2.31
2.54
2.46
2.16
1.81
1.56
1.47
1.56
1.77
2.04
2.28
2.42
2.43
2.36
2.28
2.29
2.45
2.70
2.95
3.06
2.95
2.62
2.19
1.80
1.52
1.36
1.25
1.11
0.96
0.84
0.85
1.01
1.25
1.45
1.49
1.36
1.13
0.94
0.91
1.08
1.39
1.72
1.98
2.15
2.26
2.38
2.51
2.60
2.55
2.31
1.86
1.28
0.69
0.19
-0.16
-0.36
-0.45
-0.43
-0.29
0.02
0.49
1.06
1.56
1.85
1.87
1.68
1.46
1.35
1.44
1.71
2.04
2.33
2.47
2.45
2.25
1.92
1.49
1.02
0.60
0.31
0.22
0.35
0.67
1.11
1.55
1.88
1.98
1.83
1.48
1.06
0.73
0.64
0.82
1.17
1.51
1.63
1.40
0.84
0.14
-0.46
-0.78
-0.76
-0.52
-0.25
-0.15
-0.25
-0.43
-0.49
-0.29
0.18
0.77
1.27
1.53
1.54
1.42
1.32
1.36
1.57
1.83
2.00
1.98
1.74
1.37
1.02
0.81
0.76
0.78
0.76
0.59
0.28
-0.07
-0.29
-0.27
0.02
0.48
0.92
1.19
1.20
0.99
0.71
0.45
0.28
0.15
-0.02
-0.28
-0.59
-0.80
-0.75
-0.36
0.29
1.01
1.55
1.75
1.59
1.15
0.61
0.11
-0.28
-0.58
-0.83
-1.07
-1.30
-1.45
-1.49
-1.40
-1.23
-1.06
-0.97
-1.02
-1.23
-1.57
-1.98
-2.38
-2.70
-2.94
-3.08
-3.21
-3.42
-3.80
-4.37
-5.05
-5.70
-6.12
-6.21
-5.89
-5.22
-4.31
-3.31
-2.39
-1.65
-1.20
-1.10
-1.36
-1.93
-2.64
-3.30
-3.75
-3.90
-3.76
-3.38
-2.79
-1.95
-0.78
0.76
2.64
4.72
6.78
8.57
9.86
10.44
10.22
9.29
7.88
6.32
4.91
3.73
2.59
1.20
-0.62
-2.69
-4.47
-5.29
-4.71
-2.85
-0.40
1.68
2.58
1.98
0.23
-1.88
-3.47
-3.92
-3.13
-1.46
0.38
1.68
1.92
0.90
-1.17
-3.81
-6.36
-8.23
-8.99
-8.61
-7.41
-5.95
-4.90
-4.83
-6.07
-8.52
-11.47
-13.70
-13.83
-10.92
-5.06
2.55
10.03
15.60
18.35
18.55
17.29
15.73
14.47
13.38
11.98
10.05
7.94
6.51
6.50
8.01
10.33
12.24
12.66
11.19
8.29
5.05
2.59
1.47
1.57
2.20
2.63
2.42
1.61
0.57
-0.40
-1.19
-1.95
-2.83
-3.85
-4.81
-5.43
-5.51
-5.09
-4.39
-3.69
-3.16
-2.79
-2.49
-2.17
-1.90
-1.86
-2.19
-2.90
-3.72
-4.25
-4.15
-3.30
-1.90
-0.30
1.16
2.35
3.37
4.45
5.69
7.02
8.21
8.96
9.13
8.76
8.05
7.22
6.45
5.78
5.19
4.64
4.14
3.77
3.55
3.47
3.44
3.30
2.90
2.22
1.40
0.68
0.34
0.52
1.15
1.97
2.68
3.04
3.00
2.61
2.04
1.42
0.83
0.30
-0.19
-0.59
-0.91
-1.11
-1.20
-1.25
-1.32
-1.48
-1.71
-1.90
-1.91
-1.60
-0.95
-0.09
0.77
1.37
1.54
1.24
0.58
-0.28
-1.12
-1.76
-2.07
-2.05
-1.82
-1.57
-1.48
-1.62
-1.91
-2.13
-2.12
-1.83
-1.42
-1.09
-1.00
-1.15
-1.40
-1.55
-1.49
-1.19
-0.72
-0.17
0.34
0.74
0.94
0.89
0.58
0.08
-0.43
-0.78
-0.83
-0.60
-0.20
0.20
0.52
0.76
0.99
1.27
1.56
1.74
1.70
1.37
0.83
0.26
-0.14
-0.24
-0.06
0.28
0.61
0.81
0.82
0.62
0.24
-0.30
-0.94
-1.55
-1.96
-2.08
-1.89
-1.55
-1.28
-1.23
-1.44
-1.79
-2.10
-2.23
-2.15
-1.88
-1.54
-1.14
-0.72
-0.29
0.07
0.25
0.16
-0.15
-0.54
-0.81
-0.85
-0.65
-0.35
-0.12
-0.09
-0.23
-0.40
-0.41
-0.13
0.41
1.10
1.74
2.16
2.29
2.18
1.97
1.73
1.50
1.26
0.92
0.48
0.00
-0.35
-0.42
-0.14
0.41
1.04
1.49
1.61
1.36
0.85
0.23
-0.36
-0.86
-1.29
-1.69
-2.02
-2.18
-2.04
-1.51
-0.67
0.24
0.96
1.30
1.25
1.00
0.81
0.86
1.09
1.35
1.44
1.30
1.01
0.75
0.59
0.48
0.26
-0.17
-0.76
-1.27
-1.46
-1.19
-0.58
0.09
0.51
0.54
0.22
-0.20
-0.51
-0.55
-0.31
0.10
0.55
0.92
1.13
1.17
1.08
0.93
0.81
0.77
0.80
0.88
0.92
0.89
0.73
0.48
0.20
-0.01
-0.07
0.06
0.36
0.72
1.00
1.05
0.84
0.42
-0.05
-0.41
-0.54
-0.41
-0.11
0.23
0.45
0.49
0.33
0.05
-0.27
-0.52
-0.67
-0.71
-0.66
-0.56
-0.43
-0.29
-0.13
0.04
0.20
0.33
0.45
0.57
0.70
0.86
1.03
1.19
1.28
1.29
1.16
0.91
0.56
0.17
-0.18
-0.40
-0.44
-0.30
-0.07
0.12
0.15
0.01
-0.23
-0.37
-0.26
0.12
0.63
1.06
1.21
1.07
0.78
0.52
0.37
0.29
0.12
-0.23
-0.74
-1.27
-1.63
-1.72
-1.58
-1.29
-0.99
-0.70
-0.47
-0.30
-0.23
-0.31
-0.51
-0.75
-0.92
-0.92
-0.73
-0.41
-0.04
0.34
0.71
1.05
1.34
1.59
1.84
2.15
2.56
3.00
3.30
3.26
2.76
1.90
0.95
0.23
-0.04
0.08
0.33
0.37
-0.03
-0.85
-1.85
-2.73
-3.24
-3.31
-3.06
-2.64
-2.24
-1.93
-1.71
-1.49
-1.21
-0.87
-0.54
-0.32
-0.26
-0.36
-0.53
-0.66
-0.72
-0.74
-0.80
-0.94
-1.12
-1.24
-1.22
-1.00
-0.66
-0.28
0.02
0.22
0.34
0.40
0.42
0.38
0.30
0.22
0.19
0.24
0.34
0.37
0.29
0.10
-0.12
-0.27
-0.31
-0.24
-0.15
-0.06
0.04
0.21
0.46
0.72
0.86
0.79
0.47
-0.02
-0.51
-0.88
-1.02
-0.88
-0.49
0.06
0.59
0.91
0.87
0.47
-0.18
-0.81
-1.22
-1.28
-1.06
-0.71
-0.38
-0.11
0.17
0.52
0.98
1.46
1.81
1.89
1.66
1.24
0.80
0.50
0.37
0.36
0.32
0.15
-0.18
-0.61
-1.05
-1.44
-1.71
-1.81
-1.71
-1.37
-0.81
-0.12
0.54
1.02
1.19
1.02
0.60
0.05
-0.49
-0.94
-1.28
-1.54
-1.75
-1.90
-1.92
-1.75
-1.36
-0.84
-0.35
-0.08
-0.14
-0.46
-0.85
-1.10
-1.08
-0.80
-0.41
-0.08
0.11
0.20
0.27
0.37
0.52
0.65
0.74
0.78
0.78
0.78
0.75
0.67
0.56
0.44
0.40
0.46
0.59
0.71
0.73
0.63
0.48
0.39
0.42
0.58
0.74
0.78
0.60
0.24
-0.21
-0.60
-0.85
-0.92
-0.85
-0.71
-0.54
-0.36
-0.13
0.19
0.57
0.98
1.36
1.63
1.79
1.84
1.79
1.65
1.41
1.06
0.60
0.07
-0.46
-0.92
-1.22
-1.29
-1.12
-0.75
-0.28
0.16
0.47
0.59
0.55
0.46
0.44
0.54
0.75
1.01
1.24
1.44
1.60
1.77
1.91
1.96
1.90
1.71
1.46
1.26
1.20
1.26
1.36
1.35
1.15
0.73
0.20
-0.31
-0.65
-0.76
-0.68
-0.50
-0.36
-0.34
-0.48
-0.72
-0.99
-1.14
-1.14
-1.00
-0.80
-0.61
-0.52
-0.52
-0.58
-0.63
-0.64
-0.65
-0.74
-0.98
-1.35
-1.73
-1.98
-1.97
-1.66
-1.13
-0.53
-0.02
0.30
0.45
0.51
0.57
0.68
0.81
0.88
0.84
0.71
0.57
0.45
0.43
0.50
0.65
0.87
1.14
1.43
1.67
1.80
1.78
1.61
1.34
1.02
0.69
0.36
0.05
-0.21
-0.34
-0.30
-0.10
0.18
0.45
0.63
0.69
0.63
0.49
0.26
-0.08
-0.47
-0.84
-1.06
-1.03
-0.75
-0.34
-0.01
0.04
-0.28
-0.89
-1.57
-2.07
-2.19
-1.93
-1.42
-0.85
-0.41
-0.17
-0.12
-0.17
-0.30
-0.47
-0.67
-0.83
-0.87
-0.70
-0.30
0.26
0.85
1.30
1.53
1.48
1.20
0.78
0.31
-0.12
-0.44
-0.60
-0.55
-0.30
0.06
0.44
0.70
0.76
0.58
0.24
-0.12
-0.43
-0.61
-0.68
-0.69
-0.69
-0.71
-0.72
-0.68
-0.56
-0.36
-0.15
-0.01
-0.01
-0.16
-0.42
-0.64
-0.71
-0.53
-0.13
0.38
0.85
1.19
1.36
1.42
1.42
1.39
1.31
1.15
0.92
0.65
0.43
0.33
0.33
0.36
0.29
0.05
-0.32
-0.71
-0.94
-0.92
-0.65
-0.28
0.06
0.29
0.45
0.65
0.99
1.47
1.94
2.24
2.26
2.01
1.66
1.41
1.37
1.53
1.76
1.91
1.91
1.84
1.82
1.95
2.24
2.57
2.80
2.81
2.61
2.28
1.98
1.82
1.85
2.11
2.57
3.18
3.84
4.44
4.85
4.97
4.81
4.44
4.00
3.63
3.40
3.29
3.20
2.97
2.50
1.75
0.87
0.15
-0.05
0.50
1.79
3.45
4.92
5.65
5.38
4.33
3.06
2.26
2.34
3.25
4.43
5.14
4.84
3.46
1.53
-0.08
-0.50
0.72
3.39
6.68
9.46
10.77
10.23
8.26
5.92
4.37
4.31
5.60
7.30
8.01
6.53
2.37
-4.05
-11.41
-17.66
-20.45
-17.80
-9.13
3.79
16.46
22.36
14.98
-9.61
-50.93
-103.87
-160.52
-212.89
-255.54
-286.68
-307.49
-320.61
-328.44
-332.31
-332.58
-329.25
-322.52
-312.96
-301.42
-288.70
-275.35
-261.59
-247.51
-233.28
-219.25
-206.02
-194.23
-184.17
-175.49
-167.09
-157.46
-145.19
-129.59
-110.93
-90.32
-69.18
-48.64
-29.14
-10.43
8.23
27.56
47.92
69.21
90.92
112.45
133.22
152.99
171.97
190.92
211.12
234.06
260.57
289.99
319.81
346.22
365.41
374.77
373.64
362.92
344.36
319.78
291.05
260.43
230.90
205.84
187.93
178.00
174.51
174.14
173.20
169.00
160.60
148.62
134.54
120.07
106.72
95.78
88.01
83.57
81.79
81.36
80.80
79.13
76.29
73.12
70.83
70.38
72.10
75.55
79.92
84.43
88.69
92.82
97.42
103.59
112.89
127.18
148.00
175.77
209.02
244.26
276.82
302.28
317.91
323.38
320.52
312.16
300.88
288.19
274.51
259.73
243.75
226.72
208.91
190.37
170.82
149.89
127.54
104.27
81.06
58.99
38.70
20.10
2.38
-15.58
-34.70
-55.30
-76.99
-98.87
-120.07
-140.06
-158.97
-177.60
-197.34
-219.78
-246.16
-276.52
-309.16
-340.49
-365.73
-380.37
-381.68
-369.71
-347.27
-318.82
-288.92
-260.95
-236.62
-216.32
-199.77
-186.56
-176.25
-168.05
-160.55
-151.90
-140.42
-125.33
-107.08
-87.16
-67.32
-48.88
-32.41
-18.15
-6.46
1.79
5.43
3.62
-3.32
-13.70
-24.74
-33.39
-37.30
-35.26
-27.18
-13.77
3.56
22.54
39.89
51.92
55.54
49.63
35.94
18.70
3.09
-6.74
-9.29
-5.80
0.75
7.41
12.36
15.18
16.10
15.11
11.72
5.44
-3.45
-13.43
-22.17
-27.55
-28.70
-26.57
-23.47
-21.94
-23.58
-28.30
-34.54
-40.16
-43.49
-44.00
-42.32
-39.86
-38.13
-38.32
-41.03
-46.25
-53.36
-61.18
-68.39
-73.78
-76.75
-77.52
-77.24
-77.70
-80.90
-88.45
-100.91
-117.30
-134.81
-149.35
-156.71
-154.17
-141.69
-122.19
-100.57
-82.19
-71.41
-70.86
-81.42
-102.52
-132.30
-167.47
-203.51
-235.30
-258.48
-270.86
-273.07
-268.12
-259.91
-251.65
-244.87
-239.42
-234.26
-228.28
-220.91
-212.09
-202.09
-191.26
-179.86
-168.18
-156.58
-145.38
-134.85
-125.06
-115.85
-106.92
-97.98
-88.90
-79.69
-70.50
-61.47
-52.53
-43.45
-33.84
-23.42
-12.17
-0.39
11.41
22.77
33.54
43.99
54.76
66.59
79.94
94.80
110.64
126.68
142.19
156.90
171.14
185.93
202.77
223.27
248.58
278.63
311.48
343.20
368.45
382.08
380.94
365.26
338.75
307.23
276.37
249.73
227.92
209.38
192.00
174.63
157.45
141.51
127.45
114.86
102.47
88.94
73.58
56.68
39.00
21.07
3.24
-13.88
-28.56
-37.83
-38.45
-28.69
-9.77
14.13
37.41
55.45
66.33
71.00
71.93
71.19
69.35
65.76
59.78
51.84
43.62
37.22
33.91
33.62
35.11
37.08
38.77
40.28
42.17
45.04
49.09
54.06
59.33
63.99
67.08
67.80
65.94
62.01
57.28
53.23
50.95
50.63
51.57
52.59
52.70
51.55
49.53
47.44
45.96
45.30
45.15
44.70
43.11
39.77
34.53
27.79
20.34
13.09
6.84
2.07
-1.07
-2.56
-2.50
-1.18
0.57
1.31
-0.78
-7.13
-18.05
-32.34
-47.62
-61.22
-71.27
-77.19
-79.59
-79.47
-77.60
-74.19
-69.11
-62.38
-54.48
-46.27
-38.69
-32.27
-27.01
-22.39
-17.65
-12.11
-5.41
2.23
10.12
17.33
23.05
26.93
29.19
30.44
31.37
32.36
33.36
34.01
33.98
33.16
31.80
30.28
28.96
27.92
26.95
25.64
23.58
20.52
16.46
11.72
6.89
2.74
-0.11
-1.53
-2.23
-3.69
-7.74
-15.70
-27.62
-42.01
-56.41
-68.43
-76.78
-81.77
-84.83
-87.77
-92.01
-98.35
-107.18
-118.42
-131.01
-142.23
-147.65
-142.32
-123.03
-90.43
-49.63
-8.56
25.13
46.98
56.81
57.82
54.35
49.94
46.78
46.19
49.47
58.01
72.50
91.94
113.48
133.19
147.68
155.50
157.59
156.57
155.42
156.22
159.52
164.49
169.59
173.45
175.54
176.38
177.43
180.69
187.91
199.78
215.22
231.27
243.75
248.68
243.71
229.02
207.06
181.34
154.79
128.64
102.31
74.13
42.38
6.29
-33.42
-74.57
-113.81
-147.12
-170.82
-182.67
-182.81
-174.11
-161.48
-150.21
-144.02
-143.77
-147.26
-150.59
-150.21
-144.69
-135.31
-125.06
-116.78
-111.60
-108.42
-104.90
-99.09
-90.81
-81.68
-73.99
-69.15
-66.80
-65.08
-61.85
-56.07
-48.34
-40.42
-34.08
-30.18
-28.23
-26.85
-24.59
-20.64
-15.17
-9.16
-3.88
-0.33
1.11
0.64
-1.14
-3.62
-6.30
-8.89
-11.15
-12.79
-13.46
-12.97
-11.44
-9.43
-7.74
-7.00
-7.35
-8.35
-9.28
-9.60
-9.31
-8.89
-8.98
-9.96
-11.62
-13.32
-14.33
-14.23
-13.17
-11.68
-10.42
-9.84
-9.94
-10.39
-10.71
-10.54
-9.83
-8.91
-8.31
-8.53
-9.74
-11.65
-13.69
-15.23
-15.95
-15.91
-15.44
-14.89
-14.34
-13.62
-12.47
-10.77
-8.77
-6.96
-5.93
-6.05
-7.32
-9.46
-12.17
-15.40
-19.42
-24.58
-30.95
-38.00
-44.76
-50.20
-53.95
-56.62
-59.68
-64.77
-72.89
-83.80
-96.05
-107.62
-116.68
-122.21
-124.19
-123.35
-120.86
-118.01
-115.99
-115.71
-117.62
-121.65
-127.35
-134.19
-141.73
-149.73
-158.04
-166.38
-174.33
-181.31
-186.57
-189.23
-188.18
-182.26
-170.62
-153.25
-131.24
-106.55
-81.19
-56.16
-30.76
-2.96
29.42
66.96
107.55
146.60
178.27
197.54
201.73
191.30
169.79
143.03
117.96
101.08
96.92
106.60
127.31
153.12
176.90
192.75
197.86
192.85
180.70
164.96
148.30
132.19
117.35
104.36
93.97
86.62
81.89
78.37
74.05
67.08
56.63
43.40
29.59
18.27
12.31
13.17
20.21
30.75
41.10
47.95
49.73
46.98
41.78
36.53
32.79
30.68
29.31
27.52
24.73
21.22
17.86
15.50
14.51
14.61
15.04
14.94
13.84
11.80
9.35
7.18
5.81
5.31
5.38
5.51
5.31
4.73
3.99
3.45
3.36
3.73
4.31
4.78
4.85
4.44
3.69
2.81
2.03
1.50
1.29
1.36
1.59
1.85
1.98
1.88
1.56
1.17
0.89
0.90
1.21
1.73
2.24
2.56
2.60
2.41
2.11
1.82
1.61
1.49
1.41
1.32
1.16
0.92
0.56
0.11
-0.39
-0.84
-1.12
-1.12
-0.84
-0.35
0.23
0.73
1.06
1.13
0.95
0.57
0.14
-0.17
-0.18
0.21
0.92
1.72
2.31
2.44
2.00
1.09
-0.11
-1.39
-2.66
-3.86
-4.95
-5.82
-6.34
-6.42
-6.11
-5.56
-4.94
-4.37
-3.82
-3.17
-2.29
-1.18
0.07
1.26
2.22
2.83
3.10
3.10
2.91
2.58
2.11
1.47
0.70
-0.14
-0.88
-1.39
-1.56
-1.40
-1.02
-0.59
-0.28
-0.15
-0.18
-0.25
-0.24
-0.16
-0.08
-0.21
-0.69
-1.56
-2.65
-3.69
-4.35
-4.45
-3.99
-3.18
-2.35
-1.73
-1.43
-1.33
-1.25
-0.99
-0.52
0.10
0.66
1.02
1.09
0.95
0.74
0.65
0.76
1.10
1.58
2.09
2.49
2.73
2.81
2.80
2.82
3.00
3.41
4.05
4.83
5.66
6.43
7.15
7.77
8.24
8.41
8.10
7.23
5.91
4.40
3.02
1.96
1.18
0.42
-0.57
-1.91
-3.50
-5.05
-6.26
-6.98
-7.27
-7.31
-7.24
-7.06
-6.61
-5.70
-4.24
-2.36
-0.39
1.29
2.37
2.78
2.70
2.41
2.17
2.13
2.23
2.39
2.51
2.60
2.72
2.93
3.25
3.62
4.02
4.49
5.18
6.33
8.13
10.57
13.43
16.29
18.71
20.47
21.68
22.81
24.47
27.14
30.97
35.66
40.56
45.01
48.63
51.54
54.31
57.74
62.41
68.42
75.30
82.18
88.27
93.13
96.95
100.37
104.18
109.00
115.13
122.71
131.83
142.43
153.84
164.40
171.43
171.77
162.81
143.48
114.61
78.29
36.90
-7.72
-54.21
-100.80
-144.62
-181.65
-207.94
-221.31
-222.48
-214.89
-203.13
-190.98
-180.22
-170.77
-161.83
-153.20
-145.77
-140.90
-139.32
-140.32
-141.88
-141.76
-138.73
-133.18
-126.92
-122.22
-120.68
-122.84
-128.30
-136.18
-145.21
-153.44
-158.25
-156.87
-147.68
-131.51
-112.17
-95.22
-85.43
-84.41
-89.76
-96.57
-100.23
-98.69
-92.79
-84.47
-74.34
-60.44
-39.16
-7.85
32.60
77.14
118.24
148.93
165.65
169.31
164.18
155.47
147.05
140.36
134.81
128.97
121.84
113.54
105.11
97.73
91.98
87.55
83.39
78.38
71.86
63.91
55.36
47.35
40.81
36.12
33.00
30.69
28.33
25.30
21.45
17.07
12.73
8.97
6.15
4.29
3.13
2.24
1.18
-0.41
-2.63
-5.37
-8.37
-11.23
-13.63
-15.38
-16.49
-17.16
-17.71
-18.52
-19.91
-22.10
-25.08
-28.49
-31.55
-33.12
-32.10
-27.86
-20.72
-11.96
-3.58
2.47
5.05
4.30
1.72
-0.49
-0.30
3.25
9.75
17.69
25.21
30.90
34.29
35.76
36.04
35.67
34.75
33.06
30.45
27.21
24.00
21.56
20.29
20.02
20.09
19.73
18.45
16.21
13.47
10.91
9.10
8.25
8.15
8.32
8.22
7.52
6.24
4.72
3.39
2.57
2.34
2.49
2.67
2.56
2.01
1.11
0.11
-0.68
-1.04
-0.94
-0.48
0.09
0.58
0.85
0.93
0.91
0.88
0.87
0.82
0.65
0.29
-0.21
-0.72
-1.05
-1.09
-0.84
-0.41
0.05
0.42
0.66
0.80
0.91
1.04
1.17
1.30
1.37
1.36
1.23
0.98
0.63
0.24
-0.10
-0.31
-0.41
-0.47
-0.59
-0.81
-1.08
-1.29
-1.30
-1.12
-0.80
-0.49
-0.25
-0.08
0.08
0.29
0.52
0.67
0.64
0.38
-0.02
-0.40
-0.60
-0.56
-0.31
-0.00
0.24
0.27
0.05
-0.38
-0.91
-1.40
-1.70
-1.74
-1.56
-1.22
-0.84
-0.53
-0.35
-0.32
-0.42
-0.59
-0.72
-0.73
-0.59
-0.35
-0.15
-0.15
-0.43
-0.97
-1.61
-2.20
-2.62
-2.85
-2.96
-3.04
-3.16
-3.32
-3.50
-3.67
-3.78
-3.84
-3.86
-3.87
-3.93
-4.09
-4.37
-4.80
-5.29
-5.70
-5.83
-5.48
-4.52
-2.99
-1.10
0.84
2.52
3.72
4.42
4.72
4.76
4.70
4.59
4.46
4.33
4.25
4.27
4.38
4.52
4.58
4.43
4.04
3.48
2.89
2.40
2.09
1.93
1.81
1.63
1.31
0.90
0.47
0.11
-0.13
-0.31
-0.47
-0.69
-0.99
-1.34
-1.67
-1.84
-1.72
-1.23
-0.39
0.64
1.67
2.45
2.88
2.97
2.90
2.91
3.16
3.67
4.27
4.71
4.77
4.38
3.65
2.78
1.97
1.29
0.69
0.03
-0.76
-1.66
-2.54
-3.22
-3.62
-3.74
-3.70
-3.61
-3.52
-3.42
-3.24
-2.92
-2.44
-1.86
-1.28
-0.77
-0.38
-0.07
0.19
0.45
0.74
1.01
1.24
1.39
1.44
1.43
1.38
1.35
1.37
1.47
1.67
1.93
2.24
2.53
2.80
3.08
3.44
3.94
4.56
5.22
5.78
6.12
6.16
5.90
5.33
4.47
3.33
2.02
0.69
-0.44
-1.17
-1.45
-1.36
-1.10
-0.83
-0.66
-0.59
-0.58
-0.59
-0.62
-0.67
-0.75
-0.84
-0.95
-1.12
-1.38
-1.73
-2.08
-2.32
-2.38
-2.26
-2.05
-1.85
-1.72
-1.67
-1.67
-1.71
-1.83
-2.08
-2.45
-2.83
-3.10
-3.16
-3.01
-2.78
-2.61
-2.59
-2.69
-2.80
-2.82
-2.68
-2.43
-2.13
-1.83
-1.54
-1.22
-0.78
-0.24
0.34
0.84
1.10
1.08
0.84
0.54
0.37
0.41
0.61
0.83
0.88
0.72
0.47
0.29
0.32
0.56
0.85
1.00
0.90
0.55
0.10
-0.28
-0.49
-0.54
-0.51
-0.53
-0.66
-0.91
-1.22
-1.53
-1.77
-1.94
-2.08
-2.23
-2.43
-2.60
-2.68
-2.56
-2.26
-1.87
-1.55
-1.41
-1.47
-1.56
-1.49
-1.12
-0.50
0.22
0.79
1.05
0.99
0.70
0.33
0.00
-0.18
-0.16
0.14
0.79
1.74
2.86
3.88
4.52
4.62
4.18
3.41
2.60
2.00
1.77
1.91
2.32
2.86
3.38
3.75
3.90
3.79
3.45
2.93
2.31
1.66
1.06
0.55
0.17
-0.08
-0.22
-0.33
-0.45
-0.64
-0.91
-1.26
-1.65
-2.00
-2.27
-2.41
-2.39
-2.24
-1.99
-1.71
-1.43
-1.18
-0.96
-0.74
-0.50
-0.20
0.15
0.54
0.92
1.21
1.33
1.26
1.04
0.78
0.64
0.72
1.04
1.50
1.99
2.38
2.65
2.83
3.00
3.20
3.41
3.57
3.61
3.47
3.19
2.81
2.41
2.01
1.60
1.14
0.57
-0.09
-0.77
-1.35
-1.74
-1.88
-1.81
-1.59
-1.36
-1.20
-1.22
-1.42
-1.76
-2.12
-2.37
-2.41
-2.20
-1.81
-1.37
-1.03
-0.86
-0.88
-1.04
-1.23
-1.36
-1.37
-1.26
-1.07
-0.86
-0.68
-0.53
-0.38
-0.19
0.03
0.24
0.35
0.26
-0.02
-0.45
-0.89
-1.20
-1.32
-1.22
-0.98
-0.70
-0.45
-0.27
-0.15
-0.03
0.14
0.34
0.53
0.64
0.65
0.55
0.40
0.25
0.12
-0.00
-0.12
-0.23
-0.30
-0.30
-0.24
-0.16
-0.11
-0.13
-0.21
-0.30
-0.38
-0.42
-0.42
-0.42
-0.43
-0.45
-0.45
-0.40
-0.27
-0.06
0.20
0.44
0.59
0.61
0.50
0.35
0.26
0.29
0.41
0.52
0.50
0.24
-0.24
-0.81
-1.32
-1.65
-1.76
-1.66
-1.41
-1.10
-0.74
-0.42
-0.21
-0.19
-0.40
-0.76
-1.14
-1.36
-1.31
-1.02
-0.59
-0.16
0.19
0.43
0.61
0.71
0.70
0.52
0.21
-0.12
-0.32
-0.25
0.07
0.52
0.94
1.18
1.22
1.16
1.10
1.12
1.19
1.23
1.15
0.94
0.66
0.43
0.33
0.40
0.61
0.88
1.13
1.30
1.35
1.29
1.16
0.97
0.75
0.49
0.21
-0.04
-0.26
-0.41
-0.53
-0.64
-0.81
-1.02
-1.21
-1.31
-1.21
-0.90
-0.42
0.12
0.60
0.89
0.95
0.77
0.43
0.06
-0.19
-0.21
0.02
0.39
0.76
0.97
1.00
0.95
0.98
1.20
1.59
2.05
2.42
2.61
2.62
2.44
2.06
1.43
0.54
-0.55
-1.65
-2.55
-3.07
-3.17
-2.96
-2.62
-2.30
-2.09
-2.03
-2.08
-2.22
-2.38
-2.49
-2.48
-2.29
-1.93
-1.48
-1.03
-0.68
-0.51
-0.59
-0.91
-1.36
-1.71
-1.66
-0.96
0.42
2.27
4.15
5.65
6.53
6.81
6.70
6.45
6.16
5.76
5.14
4.22
3.12
2.05
1.23
0.78
0.64
0.65
0.62
0.41
-0.01
-0.61
-1.30
-1.92
-2.35
-2.45
-2.20
-1.69
-1.16
-0.92
-1.25
-2.24
-3.82
-5.71
-7.62
-9.28
-10.52
-11.26
-11.45
-11.06
-10.05
-8.47
-6.49
-4.39
-2.48
-1.04
-0.15
0.23
0.24
0.07
-0.16
-0.40
-0.61
-0.77
-0.80
-0.66
-0.32
0.19
0.79
1.43
2.07
2.75
3.47
4.18
4.76
5.08
5.11
4.91
4.66
4.49
4.44
4.42
4.28
3.91
3.29
2.55
1.86
1.35
1.06
0.96
0.96
0.99
1.01
0.98
0.91
0.79
0.64
0.47
0.28
0.08
-0.15
-0.37
-0.54
-0.64
-0.66
-0.64
-0.61
-0.61
-0.60
-0.55
-0.47
-0.41
-0.45
-0.61
-0.82
-0.93
-0.83
-0.51
-0.08
0.30
0.49
0.46
0.31
0.19
0.22
0.43
0.78
1.18
1.53
1.73
1.71
1.45
1.02
0.56
0.30
0.43
1.01
1.92
2.90
3.63
3.93
3.78
3.34
2.86
2.59
2.62
2.99
3.67
4.56
5.50
6.20
6.31
5.51
3.77
1.33
-1.26
-3.41
-4.72
-5.09
-4.76
-4.05
-3.27
-2.51
-1.79
-1.07
-0.40
0.09
0.24
-0.03
-0.70
-1.64
-2.65
-3.54
-4.14
-4.38
-4.26
-3.84
-3.25
-2.57
-1.93
-1.38
-0.99
-0.78
-0.71
-0.71
-0.63
-0.32
0.30
1.20
2.19
3.05
3.54
3.62
3.39
3.09
2.97
3.13
3.53
3.98
4.27
4.31
4.21
4.23
4.67
5.69
7.25
9.10
10.83
12.15
12.93
13.32
13.63
14.24
15.44
17.36
19.88
22.67
25.14
26.59
26.28
23.76
19.14
13.18
7.20
2.55
0.03
-0.47
-0.07
-0.35
-2.68
-7.60
-14.60
-22.40
-29.53
-34.86
-37.90
-38.65
-37.37
-34.34
-29.85
-24.31
-18.41
-13.04
-9.08
-7.01
-6.76
-7.70
-8.97
-9.74
-9.58
-8.46
-6.70
-4.79
-3.17
-2.11
-1.60
-1.43
-1.19
-0.46
1.01
3.20
5.87
8.61
11.09
13.19
15.06
17.02
19.40
22.35
25.73
29.17
32.24
34.60
36.21
37.30
38.25
39.46
41.17
43.30
45.31
46.22
44.75
39.82
31.16
19.71
7.58
-2.70
-9.17
-11.25
-9.86
-6.90
-4.19
-2.64
-2.05
-1.43
0.42
4.35
10.51
18.24
25.98
31.40
31.92
25.49
11.66
-7.91
-29.74
-49.65
-64.21
-71.89
-73.39
-71.06
-67.86
-66.37
-68.03
-72.60
-78.09
-81.13
-78.04
-66.42
-46.46
-21.33
3.96
24.44
37.32
42.95
44.15
44.55
46.81
51.81
58.97
67.10
74.91
80.99
83.39
79.69
68.01
48.29
23.13
-2.59
-23.25
-34.77
-36.36
-30.94
-23.90
-20.83
-25.25
-37.34
-54.16
-71.18
-84.19
-90.84
-90.98
-86.11
-78.20
-68.77
-58.51
-47.71
-36.82
-26.69
-18.38
-12.60
-9.31
-7.71
-6.70
-5.45
-3.69
-1.85
-0.66
-0.64
-1.76
-3.34
-4.30
-3.58
-0.64
4.28
10.26
16.10
20.78
23.93
25.84
27.27
29.01
31.48
34.51
37.49
39.65
40.42
39.59
37.35
34.14
30.45
26.69
23.05
19.49
15.83
11.87
7.51
2.89
-1.68
-5.82
-9.30
-12.14
-14.53
-16.64
-18.38
-19.45
-19.49
-18.47
-16.87
-15.60
-15.59
-17.22
-20.23
-23.67
-26.43
-27.78
-27.60
-26.40
-25.04
-24.45
-25.49
-28.94
-35.37
-44.80
-56.14
-67.17
-74.96
-77.03
-72.60
-63.17
-51.89
-41.91
-34.69
-29.16
-22.64
-12.68
1.18
16.90
30.98
40.44
44.34
44.02
42.00
40.43
40.03
40.13
39.61
37.83
35.15
32.59
31.10
30.91
31.45
31.71
30.77
28.26
24.57
20.59
17.32
15.44
15.01
15.48
15.91
15.44
13.61
10.56
6.90
3.42
0.69
-1.09
-2.08
-2.67
-3.29
-4.31
-5.95
-8.30
-11.22
-14.27
-16.68
-17.65
-16.61
-13.61
-9.38
-5.12
-1.98
-0.63
-0.95
-2.16
-3.20
-3.19
-1.73
1.03
4.57
8.27
11.61
14.34
16.43
18.05
19.38
20.56
21.58
22.31
22.65
22.57
22.20
21.82
21.71
22.08
22.98
24.33
25.91
27.35
28.14
27.52
24.72
19.18
10.92
0.74
-9.93
-19.47
-26.58
-30.72
-32.18
-31.73
-30.18
-28.03
-25.39
-22.20
-18.50
-14.57
-10.88
-7.86
-5.67
-4.16
-2.98
-1.75
-0.31
1.30
2.96
4.60
6.38
8.55
11.32
14.65
18.17
21.31
23.65
25.10
25.98
26.85
28.22
30.30
32.87
35.41
37.44
38.69
39.25
39.51
39.94
40.86
42.40
44.50
46.96
49.46
51.37
51.76
49.63
44.41
36.43
27.03
18.10
11.23
6.87
4.00
0.72
-4.70
-12.73
-22.21
-30.93
-36.79
-38.90
-37.97
-35.73
-33.91
-33.30
-33.50
-33.38
-31.92
-28.88
-24.97
-21.31
-18.78
-17.47
-16.75
-15.69
-13.61
-10.40
-6.49
-2.54
0.92
3.73
6.08
8.29
10.69
13.42
16.47
19.72
23.04
26.25
29.06
30.91
31.15
29.25
25.17
19.51
13.40
8.14
4.73
3.58
4.59
7.16
10.36
12.97
13.67
11.37
5.75
-2.44
-11.32
-18.57
-22.20
-21.33
-16.42
-8.92
-0.61
6.91
12.58
15.97
17.23
17.09
16.70
17.36
20.03
24.96
31.34
37.41
40.69
38.72
29.89
14.18
-6.46
-28.56
-48.18
-62.23
-69.48
-70.67
-67.83
-63.13
-58.04
-53.02
-48.01
-43.02
-38.51
-35.17
-33.48
-33.25
-33.68
-33.71
-32.62
-30.32
-27.37
-24.68
-23.02
-22.65
-23.21
-23.94
-24.01
-22.96
-20.81
-18.10
-15.59
-13.95
-13.46
-13.94
-14.82
-15.42
-15.25
-14.29
-13.00
-12.12
-12.35
-14.06
-17.13
-20.99
-24.89
-28.19
-30.65
-32.53
-34.50
-37.28
-41.35
-46.63
-52.46
-57.93
-62.25
-65.23
-67.34
-69.52
-72.79
-77.91
-85.22
-94.60
-105.23
-115.37
-122.19
-122.28
-112.67
-92.32
-63.05
-29.22
3.78
31.74
53.09
68.88
81.44
92.60
102.50
109.90
113.29
112.22
107.78
102.00
96.79
92.95
90.08
87.05
82.84
77.21
70.73
64.42
59.20
55.41
52.70
50.23
47.12
42.90
37.71
32.21
27.30
23.77
21.98
21.93
23.34
25.89
29.27
33.05
36.48
38.43
37.79
34.00
27.53
19.93
13.36
9.62
9.24
10.96
12.31
10.76
5.12
-3.79
-13.54
-21.30
-25.37
-25.97
-25.00
-24.79
-26.81
-30.71
-34.43
-35.25
-31.17
-21.75
-8.25
6.86
20.62
30.27
33.75
30.19
20.29
6.17
-9.13
-22.46
-31.58
-35.72
-35.52
-32.47
-28.14
-23.71
-19.81
-16.79
-14.91
-14.41
-15.35
-17.39
-19.86
-21.92
-22.98
-22.75
-21.47
-19.82
-18.65
-18.70
-20.31
-23.23
-26.66
-29.60
-31.24
-31.30
-30.10
-28.11
-25.55
-22.09
-17.01
-9.76
-0.48
9.71
19.12
26.15
29.99
30.89
29.81
27.89
25.82
23.79
21.66
19.32
16.96
14.94
13.55
12.78
12.27
11.51
10.12
8.04
5.62
3.37
1.80
1.12
1.19
1.63
2.01
2.03
1.62
0.89
-0.01
-0.97
-1.83
-2.39
-2.32
-1.29
0.81
3.70
6.72
9.09
10.29
10.27
9.48
8.54
7.83
7.34
6.74
5.64
4.02
2.21
0.79
0.23
0.55
1.37
2.10
2.25
1.71
0.78
-0.02
-0.25
0.25
1.31
2.56
3.58
4.13
4.23
4.07
3.88
3.82
3.87
3.92
3.85
3.60
3.25
2.85
2.47
2.03
1.44
0.60
-0.45
-1.54
-2.36
-2.62
-2.15
-0.98
0.65
2.38
3.83
4.76
5.08
4.90
4.43
4.00
3.88
4.23
5.07
6.21
7.31
8.02
8.05
7.38
6.24
5.05
4.23
4.01
4.30
4.71
4.75
4.15
3.12
2.28
2.40
3.94
6.65
9.77
12.29
13.52
13.19
11.07
6.53
-1.56
-14.21
-31.17
-50.34
-68.17
-81.09
-86.88
-85.18
-76.82
-62.71
-43.32
-19.10
8.34
35.73
58.82
74.16
80.91
81.27
79.15
78.00
79.10
81.21
81.38
76.40
64.00
43.24
14.87
-18.84
-54.34
-87.54
-115.00
-135.05
-148.16
-156.25
-161.17
-163.28
-161.04
-151.98
-134.34
-108.58
-77.63
-45.91
-17.56
4.94
21.28
32.65
40.63
46.18
49.44
50.16
48.45
45.17
41.87
40.19
41.16
44.74
49.95
55.21
59.08
60.81
60.47
58.84
56.92
55.51
54.80
54.51
54.16
53.47
52.50
51.40
50.01
47.60
42.95
34.92
23.12
8.35
-7.52
-22.26
-34.03
-41.96
-46.20
-47.48
-46.65
-44.22
-40.40
-35.29
-29.09
-22.24
-15.34
-9.04
-3.81
0.13
2.85
4.60
5.63
6.03
5.69
4.47
2.44
0.11
-1.60
-1.72
0.34
4.36
9.33
13.84
16.64
17.20
15.85
13.57
11.49
10.43
10.72
12.14
14.17
16.23
17.92
19.05
19.68
19.99
20.26
20.69
21.50
22.85
24.71
26.59
27.43
25.84
20.63
11.56
-0.28
-12.71
-23.28
-30.25
-33.25
-33.09
-31.20
-28.79
-26.42
-24.10
-21.71
-19.41
-17.67
-17.06
-17.83
-19.75
-22.22
-24.63
-26.59
-28.13
-29.46
-30.67
-31.50
-31.33
-29.46
-25.43
-19.30
-11.73
-3.78
3.48
9.18
12.85
14.43
14.21
12.73
10.63
8.59
7.15
6.61
6.98
8.06
9.53
11.09
12.48
13.60
14.47
15.24
16.10
17.15
18.31
19.38
20.07
20.16
19.65
18.74
17.82
17.24
17.20
17.66
18.40
19.07
19.47
19.57
19.57
19.80
20.54
21.88
23.64
25.43
26.82
27.55
27.61
27.28
27.12
27.76
29.79
33.50
38.64
44.25
48.59
49.37
44.46
32.68
14.49
-7.88
-30.91
-50.79
-64.45
-70.29
-68.39
-60.25
-48.20
-34.81
-22.35
-12.44
-5.83
-2.33
-1.02
-0.63
0.04
1.68
4.37
7.71
11.12
14.22
16.96
19.67
22.88
27.05
32.29
38.26
44.23
49.38
53.05
55.09
55.93
56.54
58.21
62.05
68.44
76.59
84.30
88.39
85.58
73.80
53.23
26.65
-1.26
-25.46
-42.18
-50.46
-52.32
-51.93
-53.88
-61.41
-75.27
-93.68
-113.33
-130.72
-143.35
-150.11
-151.04
-146.87
-138.63
-127.67
-115.76
-105.01
-97.58
-95.05
-97.87
-105.18
-114.96
-124.49
-130.97
-131.94
-125.77
-111.92
-91.07
-65.06
-36.42
-7.95
18.03
39.92
56.93
68.93
76.19
79.24
78.80
75.83
71.48
66.94
63.18
60.70
59.40
58.68
57.74
55.96
53.10
49.31
45.01
40.61
36.44
32.68
29.36
26.45
23.85
21.42
18.97
16.39
13.65
10.84
8.15
5.78
3.83
2.24
0.82
-0.69
-2.43
-4.42
-6.43
-8.09
-9.01
-8.82
-7.32
-4.46
-0.37
4.65
10.17
15.62
20.43
24.13
26.42
27.28
26.94
25.77
24.19
22.59
21.22
20.24
19.69
19.54
19.68
19.98
20.30
20.59
20.83
21.13
21.65
22.49
23.67
25.05
26.40
27.52
28.35
29.10
30.17
31.99
34.85
38.68
42.99
47.06
50.24
52.24
53.42
54.67
57.03
61.23
67.23
74.19
80.81
86.01
89.51
92.01
94.90
99.61
106.99
116.85
127.79
137.37
142.46
139.74
126.49
101.36
65.32
21.95
-22.94
-62.83
-92.38
-109.27
-114.95
-113.84
-111.41
-112.00
-117.44
-127.05
-138.82
-150.90
-162.54
-174.03
-185.74
-197.26
-207.21
-213.83
-216.09
-214.42
-210.78
-207.83
-207.86
-211.68
-218.19
-224.59
-227.14
-222.34
-207.87
-183.08
-148.83
-106.81
-58.96
-7.38
45.35
95.75
139.59
172.81
192.95
200.22
197.58
189.57
180.61
173.51
169.08
166.69
165.40
164.77
165.03
166.65
169.84
174.25
179.16
183.85
187.99
191.73
195.63
200.38
206.78
215.59
227.27
241.53
256.77
269.99
277.38
275.47
262.48
239.06
208.07
173.36
138.36
105.04
73.77
43.97
14.89
-14.08
-43.54
-74.49
-108.15
-145.17
-184.63
-223.50
-257.19
-281.02
-292.01
-290.07
-277.90
-259.81
-240.15
-222.00
-206.79
-194.58
-184.77
-176.67
-169.68
-163.39
-157.50
-151.90
-146.71
-142.20
-138.55
-135.70
-133.33
-130.96
-128.21
-125.09
-122.03
-119.88
-119.71
-122.45
-128.34
-136.45
-144.36
-148.24
-143.64
-126.83
-96.28
-53.73
-4.05
45.93
89.44
121.74
141.16
148.92
147.99
141.72
132.86
123.29
114.29
106.88
101.86
99.45
98.90
98.47
95.79
88.87
76.96
61.02
43.35
26.89
14.02
5.83
1.96
0.98
1.29
1.70
1.78
1.68
1.71
2.02
2.44
2.62
2.32
1.50
0.39
-0.73
-1.56
-2.02
-2.12
-2.03
-1.96
-2.13
-2.67
-3.62
-4.86
-6.16
-7.26
-7.97
-8.23
-8.10
-7.70
-7.07
-6.21
-5.05
-3.56
-1.79
0.07
1.76
3.02
3.69
3.74
3.29
2.58
1.85
1.34
1.18
1.33
1.61
1.74
1.42
0.46
-1.13
-3.13
-5.18
-6.90
-8.03
-8.52
-8.43
-7.92
-7.15
-6.26
-5.36
-4.59
-4.08
-3.96
-4.25
-4.90
-5.72
-6.51
-7.12
-7.42
-7.37
-6.89
-5.92
-4.39
-2.32
0.11
2.62
4.86
6.53
7.47
7.69
7.35
6.70
6.01
5.50
5.31
5.47
5.90
6.45
6.91
7.10
6.91
6.30
5.35
4.21
3.08
2.14
1.52
1.25
1.26
1.42
1.61
1.76
1.88
2.06
2.42
2.99
3.77
4.71
5.81
7.08
8.57
10.29
12.15
14.03
15.79
17.32
18.54
19.29
19.37
18.51
16.59
13.69
10.20
6.70
3.75
1.74
0.79
0.87
1.96
4.07
7.16
10.91
14.58
17.10
17.31
14.46
8.55
0.45
-8.37
-16.34
-22.30
-25.77
-26.95
-26.46
-25.03
-23.21
-21.30
-19.45
-17.72
-16.17
-14.88
-13.88
-13.12
-12.51
-11.96
-11.38
-10.72
-9.97
-9.17
-8.38
-7.64
-7.01
-6.51
-6.10
-5.69
-5.20
-4.63
-4.04
-3.57
-3.33
-3.33
-3.51
-3.74
-3.94
-4.09
-4.21
-4.36
-4.57
-4.89
-5.43
-6.36
-7.83
-9.89
-12.37
-14.95
-17.20
-18.83
-19.81
-20.38
-20.98
-22.02
-23.79
-26.31
-29.40
-32.73
-35.94
-38.84
-41.41
-43.85
-46.43
-49.39
-52.86
-56.82
-61.18
-65.73
-70.15
-73.93
-76.40
-76.95
-75.19
-71.11
-65.01
-57.18
-47.60
-35.93
-21.80
-5.33
12.35
29.16
42.64
50.81
53.01
50.14
44.34
38.09
33.49
31.77
33.33
38.03
45.44
54.85
65.24
75.16
83.02
87.49
88.00
84.94
79.47
73.08
67.03
62.06
58.30
55.50
53.28
51.28
49.30
47.23
45.02
42.66
40.17
37.58
35.03
32.66
30.58
28.74
26.94
24.85
22.18
18.86
15.11
11.42
8.35
6.32
5.49
5.77
6.82
8.15
9.16
9.09
7.25
3.15
-3.20
-11.21
-19.80
-27.75
-34.11
-38.45
-40.94
-42.09
-42.47
-42.49
-42.37
-42.24
-42.22
-42.49
-43.16
-44.26
-45.72
-47.45
-49.42
-51.71
-54.44
-57.71
-61.49
-65.60
-69.84
-74.03
-78.13
-82.22
-86.45
-90.97
-95.92
-101.43
-107.65
-114.62
-122.23
-130.05
-137.45
-143.88
-149.24
-153.96
-158.61
-163.21
-166.61
-166.41
-159.66
-144.08
-118.83
-84.81
-44.14
0.54
46.47
90.75
130.24
161.76
182.87
192.84
193.15
187.16
178.85
171.48
166.61
164.09
162.69
161.00
158.10
153.81
148.51
142.88
137.66
133.38
130.25
128.04
126.26
124.32
121.79
118.68
115.46
112.95
112.07
113.51
117.42
123.13
128.81
131.44
127.29
113.08
87.52
52.38
12.57
-25.29
-55.17
-73.72
-81.08
-80.26
-75.25
-69.26
-63.86
-59.24
-55.11
-51.51
-48.95
-47.96
-48.52
-49.83
-50.70
-50.15
-47.87
-44.38
-40.71
-37.90
-36.47
-36.27
-36.53
-36.30
-34.83
-31.88
-27.80
-23.36
-19.43
-16.69
-15.38
-15.28
-15.79
-16.21
-16.00
-15.01
-13.42
-11.63
-10.01
-8.74
-7.76
-6.87
-5.89
-4.75
-3.49
-2.25
-1.16
-0.30
0.30
0.67
0.88
1.04
1.26
1.59
2.03
2.55
3.05
3.53
4.01
4.55
5.19
5.92
6.67
7.38
8.05
8.72
9.53
10.59
11.94
13.52
15.22
16.87
18.40
19.87
21.47
23.50
26.24
29.83
34.16
38.85
43.45
47.61
51.34
55.04
59.38
65.04
72.36
81.19
90.90
100.67
109.77
117.93
125.41
133.11
142.37
154.72
171.36
192.36
216.02
238.73
255.75
262.64
256.88
238.81
211.36
178.77
144.92
112.05
80.56
49.59
17.88
-15.66
-51.78
-90.72
-131.89
-173.40
-211.89
-243.11
-263.24
-270.36
-265.21
-250.96
-231.98
-212.25
-194.42
-179.46
-167.25
-157.19
-148.70
-141.27
-134.40
-127.54
-120.27
-112.52
-104.70
-97.56
-91.90
-88.25
-86.55
-86.08
-85.66
-83.94
-79.79
-72.66
-62.79
-51.17
-39.31
-28.73
-20.59
-15.30
-12.59
-11.82
-12.32
-13.65
-15.51
-17.49
-18.84
-18.58
-15.86
-10.47
-3.08
4.98
12.19
17.51
20.61
21.85
21.88
21.24
20.17
18.70
16.95
15.25
14.20
14.40
16.20
19.46
23.68
28.16
32.32
35.88
38.85
41.34
43.33
44.61
44.77
43.51
40.81
37.08
33.03
29.47
27.01
25.81
25.49
25.24
24.14
21.43
16.83
10.59
3.39
-3.85
-10.28
-15.34
-18.87
-21.05
-22.29
-23.08
-23.86
-24.93
-26.35
-27.96
-29.38
-30.16
-29.95
-28.63
-26.36
-23.55
-20.65
-18.05
-15.94
-14.33
-13.14
-12.31
-11.80
-11.63
-11.77
-12.13
-12.51
-12.67
-12.37
-11.43
-9.77
-7.41
-4.47
-1.18
2.16
5.18
7.46
8.65
8.58
7.34
5.29
3.01
1.07
-0.13
-0.49
-0.16
0.52
1.21
1.67
1.82
1.72
1.48
1.24
1.09
1.10
1.33
1.80
2.53
3.43
4.37
5.15
5.52
5.30
4.46
3.14
1.60
0.15
-1.01
-1.80
-2.32
-2.69
-3.00
-3.25
-3.41
-3.49
-3.57
-3.75
-4.12
-4.62
-5.12
-5.46
-5.54
-5.41
-5.16
-4.88
-4.61
-4.36
-4.15
-3.99
-3.87
-3.78
-3.59
-3.21
-2.59
-1.82
-1.10
-0.66
-0.63
-1.02
-1.67
-2.39
-3.02
-3.49
-3.81
-4.04
-4.21
-4.34
-4.47
-4.67
-5.00
-5.52
-6.18
-6.87
-7.41
-7.72
-7.84
-7.92
-8.19
-8.82
-9.78
-10.91
-11.93
-12.53
-12.44
-11.54
-9.86
-7.61
-5.15
-2.84
-0.97
0.38
1.28
1.93
2.48
3.01
3.56
4.17
4.96
6.09
7.63
9.51
11.44
13.12
14.32
15.02
15.37
15.55
15.65
15.55
15.00
13.81
11.94
9.59
7.11
4.83
2.92
1.34
-0.01
-1.24
-2.26
-2.93
-3.07
-2.66
-1.84
-0.91
-0.17
0.21
0.21
-0.03
-0.39
-0.74
-1.04
-1.30
-1.49
-1.54
-1.32
-0.68
0.51
2.29
4.59
7.16
9.67
11.74
13.02
13.33
12.60
10.98
8.69
6.06
3.36
0.84
-1.34
-3.03
-4.13
-4.54
-4.21
-3.16
-1.53
0.41
2.31
3.85
4.81
5.07
4.65
3.59
2.00
-0.00
-2.23
-4.42
-6.27
-7.50
-8.00
-7.85
-7.24
-6.44
-5.65
-4.97
-4.42
-4.00
-3.73
-3.64
-3.79
-4.18
-4.76
-5.37
-5.81
-5.88
-5.38
-4.21
-2.38
-0.06
2.51
4.96
6.99
8.37
9.03
9.03
8.55
7.82
6.99
6.14
5.28
4.35
3.37
2.35
1.37
0.53
-0.14
-0.63
-0.93
-1.08
-1.03
-0.76
-0.28
0.30
0.86
1.23
1.34
1.23
0.99
0.75
0.56
0.41
0.23
0.01
-0.22
-0.38
-0.41
-0.33
-0.23
-0.26
-0.49
-0.91
-1.44
-1.94
-2.31
-2.53
-2.61
-2.59
-2.49
-2.29
-1.98
-1.57
-1.09
-0.61
-0.17
0.20
0.47
0.68
0.86
1.07
1.32
1.53
1.62
1.51
1.21
0.79
0.40
0.11
-0.08
-0.29
-0.67
-1.28
-2.06
-2.83
-3.37
-3.57
-3.39
-2.93
-2.32
-1.72
-1.28
-1.09
-1.18
-1.52
-1.94
-2.27
-2.35
-2.14
-1.69
-1.13
-0.59
-0.12
0.26
0.60
0.94
1.30
1.68
2.08
2.45
2.72
2.80
2.66
2.27
1.70
1.07
0.51
0.12
-0.05
-0.03
0.14
0.40
0.67
0.88
0.98
0.92
0.68
0.30
-0.14
-0.53
-0.80
-0.89
-0.84
-0.70
-0.55
-0.47
-0.47
-0.51
-0.53
-0.48
-0.36
-0.18
0.01
0.19
0.37
0.57
0.76
0.89
0.87
0.69
0.40
0.12
-0.01
0.09
0.35
0.61
0.71
0.56
0.24
-0.08
-0.24
-0.12
0.21
0.59
0.84
0.82
0.55
0.09
-0.42
-0.89
-1.28
-1.58
-1.81
-1.97
-2.07
-2.12
-2.19
-2.34
-2.59
-2.91
-3.19
-3.31
-3.23
-3.03
-2.87
-2.94
-3.32
-3.97
-4.68
-5.26
-5.61
-5.75
-5.78
-5.82
-5.87
-5.85
-5.67
-5.31
-4.81
-4.21
-3.45
-2.34
-0.62
1.93
5.34
9.41
13.85
18.29
22.35
25.60
27.57
27.77
25.95
22.28
17.37
12.13
7.45
3.88
1.49
-0.05
-1.16
-2.09
-2.86
-3.31
-3.33
-2.99
-2.55
-2.25
-2.21
-2.36
-2.51
-2.51
-2.37
-2.25
-2.38
-2.86
-3.62
-4.43
-4.99
-5.11
-4.81
-4.29
-3.82
-3.62
-3.75
-4.10
-4.53
-4.87
-5.08
-5.19
-5.25
-5.27
-5.17
-4.84
-4.19
-3.26
-2.20
-1.18
-0.35
0.23
0.59
0.79
0.83
0.69
0.38
-0.07
-0.55
-0.93
-1.12
-1.10
-0.97
-0.83
-0.77
-0.79
-0.83
-0.84
-0.78
-0.70
-0.67
-0.76
-0.94
-1.13
-1.22
-1.09
-0.72
-0.17
0.38
0.78
0.92
0.81
0.55
0.30
0.19
0.24
0.41
0.58
0.67
0.65
0.57
0.51
0.50
0.58
0.70
0.85
1.03
1.25
1.49
1.69
1.76
1.63
1.29
0.83
0.34
-0.07
-0.38
-0.59
-0.75
-0.89
-0.97
-0.95
-0.82
-0.60
-0.37
-0.21
-0.17
-0.25
-0.42
-0.65
-0.92
-1.22
-1.50
-1.71
-1.78
-1.66
-1.33
-0.82
-0.24
0.32
0.76
1.02
1.09
0.99
0.78
0.52
0.31
0.23
0.31
0.54
0.82
1.02
1.04
0.81
0.37
-0.17
-0.65
-0.92
-0.89
-0.55
-0.02
0.53
0.93
1.04
0.85
0.45
-0.00
-0.35
-0.52
-0.52
-0.42
-0.29
-0.19
-0.13
-0.11
-0.15
-0.24
-0.38
-0.52
-0.60
-0.59
-0.48
-0.31
-0.13
0.00
0.05
0.01
-0.12
-0.32
-0.50
-0.56
-0.42
-0.04
0.49
0.98
1.24
1.14
0.72
0.15
-0.37
-0.69
-0.80
-0.79
-0.76
-0.78
-0.79
-0.73
-0.56
-0.35
-0.18
-0.13
-0.15
-0.15
-0.02
0.29
0.68
1.02
1.19
1.15
0.97
0.77
0.62
0.53
0.46
0.38
0.30
0.26
0.32
0.48
0.65
0.73
0.63
0.34
-0.07
-0.49
-0.79
-0.92
-0.88
-0.73
-0.51
-0.26
0.04
0.35
0.63
0.80
0.79
0.58
0.23
-0.18
-0.53
-0.79
-0.99
-1.20
-1.47
-1.85
-2.26
-2.64
-2.92
-3.08
-3.16
-3.17
-3.09
-2.88
-2.50
-2.00
-1.48
-1.09
-0.93
-1.01
-1.26
-1.54
-1.74
-1.82
-1.76
-1.63
-1.46
-1.31
-1.22
-1.21
-1.26
-1.31
-1.27
-1.11
-0.85
-0.55
-0.27
-0.00
0.35
0.91
1.73
2.75
3.77
4.54
4.87
4.72
4.21
3.57
3.00
2.60
2.32
2.03
1.60
0.95
0.11
-0.79
-1.64
-2.31
-2.75
-2.90
-2.80
-2.47
-1.98
-1.44
-0.95
-0.57
-0.32
-0.18
-0.10
-0.02
0.11
0.34
0.70
1.20
1.78
2.35
2.79
3.05
3.12
3.08
3.04
3.05
3.06
3.00
2.82
2.54
2.30
2.23
2.36
2.61
2.81
2.80
2.50
1.92
1.13
0.21
-0.78
-1.73
-2.48
-2.85
-2.72
-2.09
-1.17
-0.21
0.53
0.97
1.13
1.12
1.04
0.89
0.62
0.23
-0.22
-0.59
-0.78
-0.80
-0.77
-0.90
-1.30
-1.93
-2.61
-3.12
-3.28
-3.07
-2.62
-2.09
-1.65
-1.35
-1.21
-1.18
-1.26
-1.40
-1.60
-1.82
-2.01
-2.15
-2.20
-2.18
-2.08
-1.88
-1.56
-1.14
-0.64
-0.13
0.31
0.63
0.81
0.92
1.06
1.31
1.67
2.06
2.33
2.35
2.08
1.63
1.16
0.88
0.94
1.34
1.98
2.68
3.26
3.62
3.75
3.69
3.51
3.23
2.80
2.19
1.40
0.55
-0.18
-0.66
-0.87
-0.93
-1.05
-1.38
-1.91
-2.48
-2.88
-2.96
-2.70
-2.24
-1.77
-1.44
-1.31
-1.32
-1.42
-1.55
-1.70
-1.87
-2.05
-2.19
-2.23
-2.12
-1.86
-1.51
-1.18
-0.95
-0.82
-0.75
-0.63
-0.38
0.06
0.68
1.43
2.31
3.33
4.58
6.15
8.06
10.18
12.28
14.04
15.20
15.61
15.29
14.31
12.81
10.90
8.67
6.22
3.67
1.18
-1.06
-2.93
-4.34
-5.30
-5.86
-6.09
-6.08
-5.90
-5.63
-5.36
-5.17
-5.13
-5.28
-5.55
-5.84
-5.99
-5.90
-5.56
-5.08
-4.60
-4.26
-4.10
-4.08
-4.07
-3.93
-3.56
-2.99
-2.29
-1.60
-1.01
-0.56
-0.26
-0.05
0.09
0.19
0.28
0.38
0.50
0.65
0.75
0.73
0.56
0.29
0.06
0.02
0.25
0.66
1.04
1.16
0.94
0.41
-0.24
-0.83
-1.27
-1.56
-1.75
-1.87
-1.93
-1.85
-1.60
-1.21
-0.76
-0.34
-0.02
0.20
0.32
0.37
0.35
0.25
0.09
-0.11
-0.30
-0.43
-0.49
-0.49
-0.45
-0.41
-0.40
-0.43
-0.52
-0.65
-0.82
-0.96
-1.01
-0.91
-0.68
-0.39
-0.16
-0.08
-0.15
-0.28
-0.38
-0.35
-0.21
-0.04
0.06
0.06
0.03
0.05
0.21
0.51
0.86
1.18
1.43
1.61
1.77
1.94
2.08
2.11
1.96
1.63
1.19
0.75
0.38
0.14
0.02
-0.04
-0.08
-0.12
-0.19
-0.30
-0.42
-0.56
-0.70
-0.80
-0.88
-0.92
-0.90
-0.78
-0.53
-0.12
0.36
0.83
1.11
1.11
0.82
0.30
-0.28
-0.79
-1.14
-1.29
-1.27
-1.12
-0.88
-0.56
-0.19
0.17
0.49
0.70
0.76
0.66
0.44
0.18
-0.04
-0.16
-0.19
-0.16
-0.09
-0.03
0.05
0.19
0.43
0.74
1.10
1.42
1.63
1.66
1.48
1.11
0.62
0.12
-0.28
-0.52
-0.59
-0.58
-0.59
-0.71
-0.92
-1.17
-1.37
-1.48
-1.51
-1.54
-1.59
-1.65
-1.66
-1.58
-1.44
-1.28
-1.18
-1.14
-1.12
-1.06
-0.94
-0.77
-0.60
-0.48
-0.46
-0.50
-0.60
-0.74
-0.90
-1.03
-1.11
-1.10
-1.02
-0.96
-1.00
-1.19
-1.47
-1.73
-1.86
-1.80
-1.63
-1.44
-1.27
-1.12
-0.91
-0.60
-0.22
0.11
0.31
0.34
0.31
0.32
0.43
0.62
0.75
0.74
0.60
0.44
0.39
0.50
0.70
0.84
0.81
0.65
0.47
0.41
0.53
0.80
1.13
1.43
1.68
1.92
2.16
2.35
2.40
2.22
1.76
1.13
0.45
-0.11
-0.47
-0.57
-0.44
-0.09
0.43
1.05
1.68
2.24
2.64
2.87
2.96
2.95
2.94
2.96
3.10
3.36
3.70
4.03
4.21
4.14
3.80
3.24
2.61
2.03
1.53
1.07
0.55
-0.05
-0.68
-1.21
-1.53
-1.55
-1.33
-0.99
-0.66
-0.44
-0.34
-0.31
-0.22
0.06
0.63
1.46
2.43
3.34
3.98
4.25
4.15
3.81
3.38
2.93
2.44
1.85
1.13
0.30
-0.55
-1.32
-1.96
-2.49
-2.93
-3.28
-3.44
-3.30
-2.80
-1.99
-1.02
-0.10
0.63
1.10
1.32
1.35
1.26
1.12
1.00
0.99
1.13
1.46
1.92
2.42
2.89
3.29
3.66
4.05
4.51
5.00
5.42
5.67
5.62
5.21
4.40
3.25
1.86
0.38
-1.01
-2.18
-2.99
-3.41
-3.49
-3.32
-3.07
-2.87
-2.87
-3.09
-3.51
-4.02
-4.52
-4.93
-5.21
-5.35
-5.33
-5.13
-4.75
-4.24
-3.75
-3.43
-3.35
-3.48
-3.64
-3.66
-3.43
-3.01
-2.53
-2.15
-1.91
-1.77
-1.62
-1.40
-1.12
-0.90
-0.83
-0.97
-1.26
-1.57
-1.76
-1.76
-1.57
-1.27
-0.97
-0.74
-0.62
-0.54
-0.44
-0.28
-0.05
0.16
0.31
0.37
0.36
0.35
0.40
0.52
0.64
0.70
0.64
0.50
0.39
0.38
0.53
0.78
1.01
1.09
0.99
0.73
0.42
0.13
-0.11
-0.31
-0.46
-0.51
-0.40
-0.09
0.37
0.87
1.24
1.39
1.31
1.09
0.82
0.58
0.41
0.31
0.27
0.29
0.38
0.52
0.68
0.79
0.82
0.73
0.53
0.27
0.02
-0.12
-0.10
0.07
0.32
0.52
0.54
0.34
-0.06
-0.55
-1.01
-1.32
-1.42
-1.28
-0.93
-0.44
0.05
0.40
0.54
0.43
0.17
-0.16
-0.46
-0.71
-0.92
-1.09
-1.23
-1.29
-1.24
-1.08
-0.86
-0.64
-0.45
-0.31
-0.19
-0.06
0.07
0.17
0.23
0.26
0.32
0.44
0.58
0.66
0.58
0.31
-0.12
-0.56
-0.87
-0.96
-0.84
-0.57
-0.24
0.07
0.29
0.38
0.30
0.08
-0.23
-0.53
-0.72
-0.76
-0.67
-0.54
-0.40
-0.26
-0.04
0.31
0.79
1.31
1.74
1.94
1.84
1.50
1.02
0.54
0.12
-0.21
-0.49
-0.70
-0.81
-0.72
-0.39
0.14
0.75
1.22
1.42
1.31
0.96
0.52
0.12
-0.21
-0.49
-0.79
-1.11
-1.44
-1.72
-1.90
-1.94
-1.83
-1.58
-1.22
-0.80
-0.41
-0.14
-0.03
-0.11
-0.31
-0.51
-0.63
-0.59
-0.43
-0.21
-0.01
0.11
0.16
0.17
0.19
0.28
0.44
0.63
0.81
0.92
0.94
0.84
0.62
0.25
-0.23
-0.73
-1.11
-1.23
-1.00
-0.43
0.34
1.10
1.65
1.82
1.60
1.08
0.41
-0.19
-0.57
-0.63
-0.44
-0.16
0.02
-0.02
-0.26
-0.50
-0.51
-0.17
0.48
1.20
1.73
1.90
1.76
1.46
1.18
1.01
0.86
0.59
0.12
-0.52
-1.16
-1.59
-1.66
-1.40
-0.91
-0.42
-0.09
-0.04
-0.29
-0.81
-1.53
-2.37
-3.20
-3.88
-4.27
-4.29
-3.92
-3.26
-2.49
-1.78
-1.26
-0.94
-0.78
-0.65
-0.49
-0.26
-0.00
0.18
0.18
-0.08
-0.59
-1.25
-1.86
-2.26
-2.37
-2.22
-1.98
-1.84
-1.90
-2.16
-2.50
-2.78
-2.90
-2.86
-2.65
-2.18
-1.27
0.27
2.56
5.45
8.61
11.58
14.02
15.75
16.79
17.24
17.16
16.48
15.07
12.88
10.05
6.90
3.86
1.27
-0.72
-2.13
-3.14
-3.88
-4.44
-4.80
-4.90
-4.70
-4.28
-3.75
-3.25
-2.91
-2.79
-2.93
-3.27
-3.75
-4.25
-4.62
-4.76
-4.64
-4.29
-3.84
-3.39
-3.02
-2.73
-2.45
-2.15
-1.83
-1.55
-1.32
-1.14
-0.97
-0.77
-0.54
-0.35
-0.27
-0.36
-0.56
-0.76
-0.84
-0.69
-0.32
0.18
0.69
1.10
1.30
1.26
1.00
0.54
-0.03
-0.62
-1.14
-1.49
-1.63
-1.55
-1.29
-0.95
-0.64
-0.42
-0.31
-0.24
-0.14
0.02
0.26
0.51
0.70
0.77
0.70
0.52
0.28
0.06
-0.09
-0.17
-0.18
-0.16
-0.12
-0.05
0.07
0.23
0.41
0.57
0.70
0.77
0.79
0.75
0.63
0.41
0.11
-0.19
-0.40
-0.44
-0.32
-0.09
0.17
0.41
0.62
0.80
0.92
0.88
0.62
0.14
-0.40
-0.79
-0.90
-0.72
-0.43
-0.25
-0.33
-0.67
-1.11
-1.48
-1.65
-1.63
-1.48
-1.26
-1.00
-0.68
-0.31
0.02
0.22
0.23
0.09
-0.09
-0.13
0.04
0.42
0.92
1.43
1.85
2.15
2.27
2.20
1.87
1.28
0.51
-0.27
-0.85
-1.05
-0.83
-0.32
0.27
0.70
0.84
0.66
0.24
-0.33
-0.95
-1.54
-1.98
-2.13
-1.89
-1.26
-0.40
0.44
1.01
1.17
1.00
0.72
0.58
0.72
1.14
1.72
2.30
2.76
3.02
3.08
2.93
2.61
2.12
1.51
0.88
0.33
-0.02
-0.09
0.10
0.45
0.71
0.65
0.11
-0.88
-2.11
-3.24
-3.99
-4.21
-3.99
-3.57
-3.19
-3.04
-3.11
-3.31
-3.48
-3.50
-3.33
-2.97
-2.45
-1.80
-1.10
-0.45
0.05
0.30
0.29
0.10
-0.11
-0.20
-0.08
0.22
0.59
0.93
1.14
1.19
1.02
0.59
-0.16
-1.23
-2.56
-3.95
-5.18
-6.04
-6.40
-6.17
-5.36
-3.95
-1.99
0.48
3.31
6.30
9.18
11.66
13.55
14.76
15.36
15.46
15.18
14.51
13.37
11.67
9.44
6.86
4.25
1.91
0.03
-1.40
-2.49
-3.40
-4.22
-4.92
-5.42
-5.65
-5.59
-5.30
-4.87
-4.37
-3.83
-3.22
-2.51
-1.74
-0.98
-0.39
-0.12
-0.23
-0.69
-1.37
-2.08
-2.69
-3.12
-3.35
-3.40
-3.28
-3.00
-2.59
-2.10
-1.61
-1.18
-0.85
-0.64
-0.53
-0.49
-0.52
-0.57
-0.60
-0.59
-0.52
-0.41
-0.30
-0.28
-0.37
-0.59
-0.88
-1.15
-1.31
-1.29
-1.07
-0.71
-0.31
0.03
0.24
0.33
0.34
0.34
0.39
0.50
0.66
0.84
1.02
1.22
1.46
1.74
2.03
2.26
2.32
2.18
1.85
1.37
0.83
0.28
-0.25
-0.74
-1.16
-1.49
-1.67
-1.72
-1.66
-1.56
-1.48
-1.38
-1.22
-0.95
-0.59
-0.27
-0.11
-0.21
-0.54
-0.99
-1.41
-1.67
-1.76
-1.72
-1.64
-1.58
-1.58
-1.64
-1.75
-1.90
-2.07
-2.29
-2.51
-2.74
-2.95
-3.10
-3.16
-3.12
-3.00
-2.86
-2.77
-2.80
-2.93
-3.04
-2.97
-2.57
-1.80
-0.75
0.38
1.37
2.08
2.44
2.54
2.42
2.11
1.52
0.58
-0.72
-2.19
-3.53
-4.44
-4.76
-4.52
-3.93
-3.24
-2.58
-1.89
-0.99
0.29
1.98
3.97
6.06
8.05
9.88
11.58
13.21
14.72
15.97
16.73
16.77
15.96
14.34
12.05
9.33
6.43
3.54
0.80
-1.67
-3.77
-5.44
-6.61
-7.29
-7.54
-7.43
-7.06
-6.53
-5.94
-5.32
-4.73
-4.17
-3.67
-3.25
-2.95
-2.82
-2.84
-2.96
-3.07
-3.06
-2.88
-2.55
-2.14
-1.74
-1.36
-0.94
-0.44
0.19
0.87
1.51
2.01
2.33
2.50
2.56
2.53
2.41
2.22
1.96
1.71
1.55
1.49
1.52
1.57
1.55
1.44
1.25
1.04
0.84
0.65
0.43
0.13
-0.27
-0.74
-1.22
-1.63
-1.94
-2.14
-2.24
-2.26
-2.18
-1.99
-1.69
-1.32
-0.97
-0.71
-0.60
-0.62
-0.67
-0.65
-0.52
-0.27
-0.01
0.16
0.19
0.09
-0.04
-0.10
-0.05
0.13
0.33
0.48
0.52
0.43
0.25
0.08
-0.02
-0.01
0.11
0.28
0.46
0.60
0.67
0.67
0.63
0.56
0.46
0.31
0.13
-0.05
-0.18
-0.22
-0.19
-0.15
-0.25
-0.56
-1.10
-1.77
-2.39
-2.78
-2.84
-2.59
-2.12
-1.61
-1.19
-0.91
-0.74
-0.58
-0.35
-0.01
0.34
0.59
0.57
0.24
-0.35
-1.04
-1.67
-2.13
-2.42
-2.61
-2.81
-3.09
-3.40
-3.67
-3.76
-3.59
-3.12
-2.38
-1.51
-0.67
-0.04
0.29
0.35
0.34
0.46
0.84
1.41
1.92
2.09
1.74
0.91
-0.16
-1.18
-1.96
-2.51
-2.98
-3.53
-4.26
-5.14
-6.05
-6.88
-7.53
-7.94
-8.07
-7.89
-7.42
-6.76
-6.09
-5.63
-5.54
-5.87
-6.41
-6.78
-6.43
-4.85
-1.74
2.84
8.33
13.85
18.41
21.28
22.21
21.54
19.93
18.13
16.63
15.60
14.88
14.28
13.63
12.93
12.24
11.62
10.99
10.19
9.03
7.43
5.45
3.31
1.26
-0.50
-1.95
-3.17
-4.30
-5.44
-6.54
-7.42
-7.86
-7.73
-7.04
-6.01
-4.96
-4.22
-4.00
-4.32
-5.06
-5.96
-6.70
-7.04
-6.81
-5.97
-4.61
-2.95
-1.27
0.16
1.13
1.59
1.61
1.34
0.94
0.54
0.18
-0.11
-0.34
-0.52
-0.67
-0.81
-0.98
-1.19
-1.44
-1.63
-1.70
-1.57
-1.25
-0.80
-0.30
0.17
0.55
0.82
0.96
0.97
0.90
0.79
0.74
0.80
1.00
1.29
1.59
1.82
1.99
2.17
2.48
3.04
3.83
4.70
5.36
5.53
5.05
3.94
2.47
0.98
-0.24
-1.03
-1.41
-1.51
-1.42
-1.20
-0.82
-0.28
0.35
0.89
1.12
0.91
0.24
-0.74
-1.83
-2.83
-3.63
-4.20
-4.58
-4.83
-4.98
-5.04
-5.01
-4.91
-4.74
-4.48
-4.06
-3.41
-2.53
-1.50
-0.50
0.29
0.76
0.94
0.96
0.99
1.11
1.30
1.45
1.45
1.26
0.98
0.72
0.62
0.75
1.13
1.74
2.48
3.26
3.95
4.39
4.53
4.34
3.91
3.32
2.64
1.90
1.09
0.25
-0.54
-1.12
-1.39
-1.35
-1.14
-1.00
-1.10
-1.49
-2.05
-2.59
-2.96
-3.12
-3.16
-3.18
-3.24
-3.30
-3.26
-3.06
-2.76
-2.47
-2.31
-2.37
-2.60
-2.92
-3.29
-3.68
-4.14
-4.67
-5.24
-5.74
-6.01
-5.88
-5.29
-4.28
-3.05
-1.90
-1.04
-0.60
-0.49
-0.52
-0.48
-0.23
0.24
0.81
1.38
1.88
2.33
2.75
3.16
3.54
3.82
3.97
3.98
3.89
3.72
3.52
3.28
2.99
2.67
2.40
2.26
2.35
2.69
3.22
3.84
4.46
5.03
5.60
6.22
6.92
7.69
8.45
9.12
9.61
9.87
9.87
9.60
9.05
8.21
7.08
5.59
3.70
1.38
-1.32
-4.23
-7.09
-9.64
-11.68
-13.07
-13.73
-13.60
-12.65
-10.96
-8.82
-6.67
-5.00
-4.11
-4.03
-4.53
-5.23
-5.85
-6.28
-6.59
-6.86
-7.11
-7.26
-7.20
-6.89
-6.38
-5.77
-5.15
-4.49
-3.76
-2.88
-1.89
-0.91
-0.09
0.49
0.77
0.80
0.69
0.51
0.36
0.30
0.37
0.58
0.92
1.32
1.72
2.02
2.13
1.99
1.58
0.95
0.21
-0.46
-0.96
-1.22
-1.31
-1.36
-1.52
-1.87
-2.41
-3.01
-3.51
-3.72
-3.44
-2.51
-0.86
1.51
4.45
7.68
10.83
13.48
15.30
16.14
15.99
15.02
13.44
11.48
9.30
7.05
4.84
2.82
1.09
-0.30
-1.37
-2.18
-2.80
-3.24
-3.46
-3.36
-2.93
-2.23
-1.43
-0.74
-0.35
-0.29
-0.49
-0.77
-0.93
-0.82
-0.44
0.13
0.72
1.23
1.58
1.78
1.88
1.92
1.88
1.76
1.55
1.31
1.10
0.99
0.98
1.01
1.01
0.93
0.80
0.69
0.64
0.66
0.71
0.71
0.60
0.38
0.04
-0.42
-0.99
-1.64
-2.27
-2.74
-2.92
-2.71
-2.20
-1.55
-0.96
-0.58
-0.40
-0.34
-0.25
-0.03
0.32
0.72
1.06
1.22
1.16
0.91
0.57
0.22
-0.03
-0.15
-0.11
0.07
0.37
0.73
1.10
1.39
1.56
1.59
1.47
1.26
0.98
0.66
0.34
0.08
-0.06
-0.06
0.05
0.17
0.19
0.03
-0.24
-0.49
-0.58
-0.43
-0.10
0.27
0.49
0.48
0.28
-0.04
-0.37
-0.66
-0.92
-1.19
-1.46
-1.71
-1.89
-1.99
-2.02
-2.04
-2.09
-2.17
-2.22
-2.19
-2.00
-1.66
-1.23
-0.77
-0.37
-0.07
0.11
0.17
0.11
-0.08
-0.39
-0.79
-1.21
-1.53
-1.65
-1.51
-1.15
-0.69
-0.26
0.05
0.24
0.41
0.62
0.88
1.16
1.32
1.29
1.04
0.65
0.22
-0.16
-0.46
-0.65
-0.76
-0.78
-0.72
-0.58
-0.39
-0.21
-0.10
-0.10
-0.24
-0.47
-0.72
-0.92
-0.98
-0.89
-0.66
-0.36
-0.09
0.10
0.16
0.11
-0.03
-0.22
-0.47
-0.77
-1.07
-1.26
-1.25
-0.95
-0.39
0.29
0.91
1.31
1.41
1.27
1.02
0.77
0.58
0.46
0.37
0.31
0.26
0.23
0.24
0.25
0.24
0.18
0.10
0.05
0.12
0.35
0.70
1.04
1.20
1.06
0.62
0.01
-0.57
-0.93
-1.00
-0.81
-0.50
-0.19
0.03
0.12
0.09
-0.04
-0.24
-0.43
-0.56
-0.55
-0.41
-0.20
0.04
0.22
0.34
0.41
0.43
0.41
0.33
0.20
0.07
-0.02
-0.06
-0.05
-0.05
-0.10
-0.21
-0.34
-0.46
-0.53
-0.56
-0.57
-0.59
-0.61
-0.61
-0.56
-0.45
-0.30
-0.15
-0.07
-0.11
-0.25
-0.43
-0.57
-0.59
-0.48
-0.28
-0.09
-0.03
-0.14
-0.39
-0.66
-0.84
-0.84
-0.64
-0.30
0.06
0.39
0.66
0.86
0.99
1.05
0.98
0.79
0.50
0.21
0.06
0.14
0.47
0.97
1.48
1.87
2.03
1.96
1.67
1.21
0.65
0.07
-0.45
-0.82
-1.01
-1.01
-0.87
-0.66
-0.44
-0.27
-0.17
-0.14
-0.21
-0.35
-0.52
-0.67
-0.69
-0.57
-0.34
-0.10
0.02
-0.05
-0.30
-0.63
-0.93
-1.10
-1.09
-0.96
-0.76
-0.58
-0.45
-0.34
-0.20
0.03
0.36
0.75
1.10
1.31
1.33
1.19
0.96
0.73
0.60
0.59
0.68
0.82
0.93
0.96
0.84
0.60
0.30
0.04
-0.10
-0.12
-0.08
-0.09
-0.21
-0.41
-0.58
-0.58
-0.38
-0.04
0.28
0.47
0.48
0.37
0.24
0.15
0.12
0.11
0.07
-0.01
-0.09
-0.17
-0.26
-0.38
-0.55
-0.72
-0.85
-0.89
-0.83
-0.71
-0.56
-0.45
-0.40
-0.40
-0.44
-0.50
-0.55
-0.57
-0.53
-0.43
-0.26
-0.07
0.11
0.26
0.36
0.45
0.53
0.59
0.59
0.50
0.30
0.02
-0.26
-0.45
-0.49
-0.37
-0.14
0.11
0.32
0.45
0.50
0.50
0.47
0.38
0.20
-0.06
-0.38
-0.70
-0.94
-1.06
-1.06
-1.00
-0.92
-0.87
-0.79
-0.66
-0.42
-0.12
0.13
0.23
0.09
-0.24
-0.61
-0.81
-0.70
-0.26
0.35
0.93
1.26
1.23
0.87
0.36
-0.12
-0.42
-0.49
-0.36
-0.12
0.14
0.32
0.40
0.37
0.26
0.12
-0.01
-0.13
-0.23
-0.33
-0.40
-0.40
-0.29
-0.11
0.08
0.16
0.06
-0.21
-0.54
-0.77
-0.79
-0.56
-0.15
0.30
0.68
0.91
0.97
0.91
0.75
0.54
0.32
0.13
0.01
-0.01
0.03
0.09
0.11
0.10
0.07
0.06
0.10
0.16
0.18
0.10
-0.09
-0.33
-0.51
-0.56
-0.40
-0.07
0.38
0.85
1.30
1.69
2.01
2.24
2.33
2.26
2.03
1.66
1.19
0.71
0.26
-0.14
-0.45
-0.63
-0.68
-0.60
-0.43
-0.21
-0.01
0.10
0.08
-0.07
-0.32
-0.61
-0.87
-1.03
-1.06
-0.97
-0.81
-0.61
-0.43
-0.29
-0.17
-0.10
-0.06
-0.07
-0.09
-0.13
-0.17
-0.22
-0.29
-0.38
-0.50
-0.63
-0.75
-0.86
-0.95
-1.03
-1.09
-1.08
-1.01
-0.87
-0.68
-0.47
-0.24
-0.01
0.26
0.54
0.85
1.13
1.36
1.51
1.53
1.37
1.06
0.62
0.16
-0.19
-0.37
-0.37
-0.26
-0.17
-0.15
-0.20
-0.27
-0.30
-0.26
-0.19
-0.13
-0.10
-0.08
-0.04
0.03
0.08
0.05
-0.07
-0.28
-0.48
-0.58
-0.53
-0.34
-0.10
0.08
0.13
0.01
-0.22
-0.49
-0.72
-0.88
-0.99
-1.06
-1.09
-1.03
-0.79
-0.36
0.22
0.81
1.27
1.47
1.40
1.17
0.91
0.71
0.57
0.42
0.17
-0.22
-0.67
-1.04
-1.20
-1.10
-0.79
-0.42
-0.14
-0.04
-0.09
-0.18
-0.20
-0.11
0.05
0.17
0.16
0.01
-0.23
-0.45
-0.54
-0.48
-0.30
-0.09
0.10
0.22
0.28
0.28
0.27
0.28
0.31
0.36
0.39
0.37
0.28
0.17
0.08
0.10
0.24
0.43
0.56
0.53
0.32
0.00
-0.29
-0.46
-0.45
-0.34
-0.23
-0.20
-0.28
-0.40
-0.49
-0.50
-0.42
-0.26
-0.05
0.20
0.47
0.73
0.92
0.95
0.78
0.40
-0.14
-0.71
-1.19
-1.46
-1.46
-1.18
-0.69
-0.10
0.44
0.82
0.95
0.80
0.45
0.04
-0.28
-0.36
-0.16
0.27
0.78
1.22
1.47
1.50
1.35
1.11
0.86
0.64
0.44
0.26
0.14
0.06
0.04
0.02
-0.06
-0.24
-0.51
-0.82
-1.09
-1.25
-1.31
-1.28
-1.21
-1.14
-1.06
-0.96
-0.84
-0.68
-0.50
-0.34
-0.20
-0.07
0.10
0.30
0.54
0.75
0.89
0.93
0.88
0.79
0.70
0.65
0.64
0.62
0.52
0.31
-0.00
-0.35
-0.64
-0.76
-0.68
-0.44
-0.12
0.15
0.31
0.37
0.39
0.43
0.54
0.68
0.81
0.87
0.85
0.73
0.55
0.30
0.01
-0.29
-0.52
-0.61
-0.51
-0.26
0.02
0.21
0.23
0.09
-0.08
-0.15
-0.02
0.25
0.52
0.61
0.45
0.07
-0.36
-0.69
-0.82
-0.79
-0.71
-0.69
-0.76
-0.87
-0.90
-0.80
-0.61
-0.44
-0.42
-0.58
-0.86
-1.11
-1.20
-1.10
-0.88
-0.63
-0.46
-0.40
-0.37
-0.30
-0.10
0.22
0.62
0.96
1.15
1.13
0.95
0.69
0.50
0.44
0.55
0.74
0.92
1.02
1.01
0.95
0.88
0.83
0.80
0.74
0.65
0.54
0.43
0.37
0.37
0.41
0.46
0.45
0.35
0.13
-0.17
-0.51
-0.83
-1.10
-1.30
-1.42
-1.47
-1.43
-1.28
-1.01
-0.67
-0.34
-0.09
0.05
0.14
0.24
0.39
0.57
0.68
0.66
0.48
0.23
-0.01
-0.13
-0.14
-0.08
-0.05
-0.12
-0.30
-0.55
-0.80
-0.98
-1.01
-0.88
-0.56
-0.10
0.41
0.87
1.19
1.33
1.30
1.14
0.91
0.63
0.33
0.02
-0.29
-0.54
-0.68
-0.64
-0.39
0.04
0.55
0.99
1.20
1.10
0.72
0.20
-0.27
-0.53
-0.49
-0.24
0.09
0.32
0.38
0.28
0.11
-0.04
-0.12
-0.15
-0.19
-0.28
-0.39
-0.51
-0.59
-0.61
-0.59
-0.53
-0.43
-0.30
-0.18
-0.09
-0.06
-0.09
-0.12
-0.11
-0.07
-0.04
-0.09
-0.25
-0.48
-0.67
-0.72
-0.59
-0.34
-0.06
0.14
0.23
0.26
0.24
0.17
0.04
-0.16
-0.36
-0.48
-0.45
-0.28
-0.07
0.03
-0.04
-0.26
-0.50
-0.65
-0.66
-0.57
-0.46
-0.33
-0.17
0.07
0.35
0.57
0.59
0.37
-0.03
-0.46
-0.73
-0.74
-0.50
-0.14
0.18
0.36
0.37
0.27
0.19
0.22
0.43
0.78
1.16
1.40
1.43
1.26
0.97
0.67
0.41
0.21
0.03
-0.11
-0.20
-0.18
-0.06
0.14
0.34
0.48
0.55
0.55
0.52
0.48
0.41
0.30
0.15
-0.02
-0.19
-0.36
-0.57
-0.84
-1.14
-1.42
-1.60
-1.63
-1.51
-1.30
-1.06
-0.82
-0.59
-0.34
-0.04
0.32
0.70
1.06
1.33
1.46
1.45
1.34
1.19
1.09
1.06
1.06
1.00
0.80
0.47
0.12
-0.09
-0.06
0.16
0.42
0.50
0.31
-0.13
-0.62
-0.98
-1.11
-1.02
-0.83
-0.63
-0.47
-0.33
-0.20
-0.10
-0.07
-0.19
-0.43
-0.73
-0.94
-0.96
-0.74
-0.34
0.14
0.52
0.74
0.73
0.56
0.31
0.05
-0.16
-0.31
-0.41
-0.45
-0.46
-0.40
-0.31
-0.22
-0.18
-0.22
-0.29
-0.30
-0.16
0.16
0.58
0.96
1.12
1.00
0.64
0.17
-0.23
-0.47
-0.52
-0.46
-0.37
-0.28
-0.20
-0.11
-0.01
0.05
0.01
-0.13
-0.31
-0.47
-0.54
-0.52
-0.46
-0.43
-0.48
-0.59
-0.72
-0.78
-0.76
-0.67
-0.55
-0.43
-0.31
-0.18
-0.01
0.21
0.47
0.71
0.87
0.89
0.75
0.51
0.21
-0.05
-0.21
-0.19
0.01
0.35
0.76
1.13
1.34
1.36
1.20
0.96
0.75
0.63
0.60
0.61
0.55
0.39
0.12
-0.20
-0.50
-0.77
-0.97
-1.13
-1.25
-1.33
-1.34
-1.24
-1.04
-0.76
-0.46
-0.23
-0.08
-0.03
-0.05
-0.09
-0.15
-0.21
-0.26
-0.29
-0.30
-0.27
-0.23
-0.17
-0.08
0.08
0.32
0.64
0.97
1.21
1.29
1.17
0.90
0.57
0.27
0.09
0.05
0.17
0.38
0.62
0.80
0.86
0.79
0.65
0.54
0.52
0.59
0.70
0.70
0.54
0.22
-0.16
-0.49
-0.69
-0.74
-0.71
-0.68
-0.69
-0.72
-0.73
-0.65
-0.43
-0.10
0.30
0.71
1.03
1.19
1.13
0.91
0.64
0.45
0.37
0.37
0.31
0.05
-0.42
-0.97
-1.38
-1.47
-1.23
-0.80
-0.40
-0.19
-0.21
-0.36
-0.52
-0.62
-0.68
-0.72
-0.77
-0.81
-0.80
-0.70
-0.51
-0.31
-0.16
-0.12
-0.19
-0.33
-0.48
-0.55
-0.53
-0.41
-0.23
-0.06
0.04
0.08
0.07
0.08
0.11
0.16
0.21
0.24
0.26
0.32
0.43
0.56
0.65
0.61
0.39
0.04
-0.33
-0.57
-0.60
-0.42
-0.12
0.18
0.37
0.41
0.35
0.26
0.24
0.30
0.40
0.47
0.42
0.22
-0.10
-0.43
-0.65
-0.62
-0.32
0.16
0.69
1.14
1.41
1.49
1.38
1.13
0.78
0.42
0.14
0.01
0.04
0.18
0.31
0.31
0.17
-0.07
-0.30
-0.39
-0.30
-0.05
0.30
0.67
0.99
1.22
1.31
1.25
1.05
0.76
0.45
0.23
0.14
0.22
0.42
0.65
0.79
0.79
0.62
0.32
-0.03
-0.40
-0.77
-1.12
-1.42
-1.61
-1.60
-1.39
-1.05
-0.71
-0.52
-0.55
-0.74
-0.94
-1.00
-0.91
-0.75
-0.68
-0.78
-1.04
-1.35
-1.55
-1.53
-1.27
-0.82
-0.25
0.31
0.79
1.11
1.23
1.18
1.00
0.79
0.61
0.46
0.32
0.16
0.01
-0.10
-0.11
-0.07
-0.05
-0.15
-0.40
-0.70
-0.91
-0.91
-0.68
-0.32
-0.01
0.17
0.20
0.21
0.29
0.50
0.80
1.07
1.23
1.27
1.24
1.23
1.28
1.37
1.45
1.45
1.36
1.19
1.00
0.85
0.76
0.74
0.79
0.88
1.02
1.15
1.17
0.99
0.56
-0.08
-0.80
-1.44
-1.93
-2.29
-2.63
-3.07
-3.64
-4.24
-4.71
-4.90
-4.76
-4.29
-3.54
-2.54
-1.30
0.22
1.95
3.77
5.48
6.90
7.87
8.33
8.29
7.84
7.04
5.96
4.68
3.22
1.62
-0.15
-2.09
-4.20
-6.43
-8.65
-10.70
-12.40
-13.66
-14.46
-14.90
-15.11
-15.17
-15.13
-15.00
-14.82
-14.71
-14.82
-15.27
-15.97
-16.62
-16.75
-15.92
-13.89
-10.75
-6.80
-2.43
2.04
6.41
10.49
14.07
16.77
18.21
18.14
16.57
13.82
10.40
6.81
3.39
0.28
-2.62
-5.46
-8.42
-11.63
-15.21
-19.19
-23.47
-27.78
-31.77
-35.08
-37.58
-39.46
-41.13
-43.06
-45.45
-48.10
-50.48
-52.00
-52.34
-51.75
-51.03
-51.37
-53.97
-59.59
-68.03
-77.87
-86.58
-91.10
-88.59
-77.28
-56.97
-29.13
3.42
37.04
68.01
93.32
111.25
121.81
126.57
128.02
128.60
129.83
131.88
133.93
134.94
134.48
133.05
131.72
131.37
131.92
132.07
129.72
122.77
110.17
92.36
71.07
48.71
27.52
9.06
-5.90
-17.05
-24.29
-27.62
-27.34
-24.32
-19.98
-15.88
-13.17
-12.02
-11.60
-10.51
-7.66
-2.92
2.62
7.07
8.60
6.30
0.69
-6.52
-13.07
-17.02
-17.43
-14.56
-9.56
-4.03
0.47
2.76
2.21
-1.20
-6.92
-13.96
-21.14
-27.35
-31.87
-34.47
-35.32
-34.93
-33.88
-32.69
-31.66
-30.95
-30.50
-30.26
-30.16
-30.14
-30.14
-29.98
-29.37
-28.00
-25.69
-22.50
-18.78
-15.11
-12.16
-10.60
-10.82
-12.87
-16.36
-20.53
-24.45
-27.39
-29.11
-29.94
-30.65
-31.96
-34.16
-37.00
-39.76
-41.68
-42.27
-41.49
-39.73
-37.56
-35.54
-34.16
-33.71
-34.21
-35.41
-36.83
-37.92
-38.26
-37.82
-37.01
-36.58
-37.36
-40.01
-44.90
-52.02
-61.09
-71.57
-82.80
-93.99
-104.36
-113.19
-120.07
-125.15
-129.22
-133.59
-139.60
-147.89
-157.95
-168.16
-176.49
-181.24
-181.71
-178.17
-171.18
-160.88
-146.59
-127.05
-101.20
-68.99
-31.62
8.69
49.36
87.93
122.21
150.13
169.71
179.63
180.21
174.22
166.76
163.84
170.03
186.60
210.76
237.05
259.70
275.08
282.64
284.31
282.71
279.69
275.76
270.89
265.58
261.55
261.30
266.83
278.20
292.82
305.90
312.00
307.00
289.58
261.61
227.12
190.55
155.03
121.45
88.71
54.70
17.58
-23.23
-66.60
-109.85
-149.39
-181.64
-204.01
-215.62
-217.54
-212.30
-202.88
-191.79
-180.52
-169.71
-159.64
-150.68
-143.34
-137.89
-133.97
-130.45
-125.94
-119.39
-110.73
-100.85
-91.23
-83.24
-77.56
-73.97
-71.54
-69.10
-65.83
-61.44
-56.26
-50.97
-46.23
-42.42
-39.52
-37.12
-34.67
-31.68
-27.91
-23.38
-18.36
-13.21
-8.24
-3.59
0.76
4.95
9.11
13.25
17.25
20.85
23.80
25.92
27.21
27.80
27.89
27.63
27.04
25.93
24.09
21.34
17.73
13.55
9.21
5.13
1.53
-1.58
-4.39
-7.08
-9.70
-12.12
-14.15
-15.75
-17.13
-18.64
-20.57
-22.97
-25.54
-27.82
-29.35
-29.92
-29.61
-28.68
-27.39
-25.94
-24.43
-22.91
-21.53
-20.44
-19.81
-19.69
-19.94
-20.33
-20.60
-20.53
-20.02
-19.06
-17.58
-15.47
-12.50
-8.43
-3.19
3.04
9.77
16.28
21.78
25.69
27.76
28.18
27.48
26.43
25.69
25.69
26.39
27.36
27.93
27.46
25.56
22.26
17.89
13.01
8.16
3.76
0.09
-2.72
-4.62
-5.59
-5.75
-5.30
-4.64
-4.19
-4.32
-5.16
-6.60
-8.30
-9.90
-11.12
-11.91
-12.40
-12.78
-13.30
-14.13
-15.45
-17.38
-19.93
-22.97
-26.16
-28.98
-31.05
-32.23
-32.80
-33.39
-34.72
-37.35
-41.42
-46.66
-52.60
-58.75
-64.84
-70.84
-76.92
-83.27
-90.06
-97.39
-105.35
-114.01
-123.38
-133.42
-144.01
-155.08
-166.74
-179.23
-192.62
-206.35
-218.73
-227.06
-228.25
-219.94
-201.46
-174.18
-140.98
-105.12
-69.10
-34.06
0.09
34.16
69.10
105.73
144.59
185.74
228.35
270.41
308.85
340.26
362.11
373.61
376.03
372.08
364.91
357.20
350.87
347.24
347.33
351.72
359.99
370.11
378.45
380.62
372.96
353.93
324.69
288.53
249.54
211.09
174.93
141.20
108.99
77.21
45.01
11.66
-23.71
-62.11
-104.12
-148.87
-193.49
-233.35
-263.37
-279.90
-282.23
-272.84
-256.35
-237.70
-220.42
-206.00
-194.19
-184.05
-174.87
-166.50
-159.12
-152.79
-147.20
-141.77
-135.98
-129.65
-122.98
-116.46
-110.51
-105.22
-100.27
-94.99
-88.59
-80.30
-69.58
-56.10
-39.88
-21.36
-1.47
18.35
36.36
50.84
60.58
65.23
65.34
62.19
57.30
52.01
47.21
43.24
40.14
37.78
36.03
34.76
33.79
32.86
31.63
29.78
27.06
23.41
18.89
13.68
7.99
2.08
-3.69
-9.00
-13.52
-17.09
-19.68
-21.41
-22.45
-22.92
-22.94
-22.60
-22.09
-21.59
-21.28
-21.22
-21.31
-21.37
-21.17
-20.56
-19.52
-18.17
-16.69
-15.28
-14.13
-13.32
-12.79
-12.38
-11.87
-11.07
-9.96
-8.64
-7.30
-6.16
-5.29
-4.62
-4.00
-3.19
-1.98
-0.22
2.10
4.82
7.55
9.78
11.04
11.05
9.89
7.96
5.77
3.74
2.05
0.67
-0.51
-1.50
-2.16
-2.30
-1.78
-0.66
0.84
2.42
3.85
4.98
5.69
5.84
5.26
3.84
1.70
-0.80
-3.11
-4.78
-5.55
-5.49
-4.89
-4.09
-3.32
-2.66
-2.14
-1.78
-1.67
-1.87
-2.35
-2.90
-3.19
-2.93
-1.98
-0.37
1.74
4.16
6.79
9.60
12.55
15.51
18.18
20.17
21.03
20.45
18.35
14.92
10.58
5.90
1.46
-2.26
-4.90
-6.29
-6.41
-5.44
-3.73
-1.80
-0.16
0.77
0.81
0.06
-1.24
-2.75
-4.25
-5.60
-6.68
-7.34
-7.37
-6.58
-4.95
-2.67
-0.14
2.17
3.82
4.48
4.05
2.59
0.39
-2.09
-4.29
-5.65
-5.80
-4.73
-2.80
-0.60
1.22
2.21
2.28
1.62
0.57
-0.62
-1.83
-3.08
-4.41
-5.80
-7.13
-8.33
-9.41
-10.49
-11.68
-12.93
-14.05
-14.78
-14.96
-14.67
-14.28
-14.27
-15.07
-16.82
-19.27
-21.76
-23.22
-22.49
-18.61
-11.27
-1.03
10.66
21.85
30.67
35.88
37.21
35.25
31.07
25.78
20.23
14.88
9.97
5.69
2.26
-0.11
-1.33
-1.57
-1.29
-1.00
-1.13
-1.76
-2.63
-3.25
-3.22
-2.41
-1.07
0.30
1.21
1.37
0.83
-0.11
-1.09
-1.85
-2.31
-2.54
-2.71
-2.93
-3.28
-3.68
-4.04
-4.25
-4.26
-4.07
-3.81
-3.58
-3.47
-3.45
-3.42
-3.24
-2.79
-2.08
-1.19
-0.26
0.55
1.13
1.44
1.48
1.30
1.00
0.69
0.49
0.50
0.67
0.91
1.07
1.04
0.81
0.49
0.23
0.10
0.11
0.12
-0.00
-0.36
-0.95
-1.67
-2.39
-3.06
-3.67
-4.28
-4.95
-5.70
-6.48
-7.24
-7.92
-8.48
-8.91
-9.26
-9.61
-10.11
-10.94
-12.22
-14.05
-16.38
-19.07
-21.93
-24.80
-27.61
-30.41
-33.34
-36.60
-40.36
-44.71
-49.59
-54.83
-60.12
-65.21
-69.95
-74.50
-79.25
-84.76
-91.50
-99.64
-109.01
-119.07
-129.18
-138.87
-148.02
-157.03
-166.80
-178.49
-193.11
-210.85
-230.47
-249.19
-263.11
-268.45
-262.92
-246.64
-222.13
-193.23
-163.58
-135.42
-109.08
-83.57
-57.54
-29.88
0.05
32.47
67.26
103.48
138.91
170.08
193.16
205.59
207.45
201.66
192.81
185.15
180.91
179.89
180.44
180.94
180.86
180.73
181.22
182.17
182.33
179.99
174.03
164.57
152.95
141.02
130.25
121.12
113.29
105.99
98.52
90.57
82.33
74.19
66.57
59.72
53.79
48.86
44.95
42.03
39.71
37.15
33.22
27.13
19.23
11.42
6.79
8.37
17.57
33.18
51.46
67.62
77.70
80.23
76.57
70.13
64.85
63.79
68.43
78.54
92.17
105.78
114.44
112.83
96.98
66.47
25.88
-15.70
-47.14
-59.31
-48.44
-17.45
25.65
71.31
112.09
144.75
170.12
191.20
210.90
230.49
249.34
265.58
277.18
282.69
281.57
273.98
260.48
241.63
217.99
190.24
159.46
127.32
95.92
67.10
41.74
19.18
-2.63
-26.48
-54.96
-89.46
-129.61
-173.11
-216.05
-253.69
-281.70
-297.40
-300.56
-293.39
-279.60
-262.96
-246.06
-229.83
-214.04
-198.25
-182.62
-167.96
-155.27
-145.01
-136.68
-129.08
-120.94
-111.59
-101.22
-90.71
-81.13
-73.18
-66.95
-61.97
-57.46
-52.75
-47.52
-41.89
-36.29
-31.23
-27.08
-23.86
-21.35
-19.12
-16.81
-14.26
-11.52
-8.86
-6.54
-4.74
-3.47
-2.61
-2.00
-1.50
-1.04
-0.57
-0.11
0.32
0.67
0.93
1.08
1.19
1.31
1.51
1.81
2.16
2.45
2.57
2.45
2.14
1.73
1.36
1.09
0.94
0.84
0.74
0.63
0.56
0.59
0.75
0.98
1.18
1.20
1.00
0.60
0.15
-0.23
-0.42
-0.42
-0.30
-0.18
-0.16
-0.26
-0.41
-0.53
-0.50
-0.29
0.05
0.42
0.69
0.77
0.65
0.36
-0.03
-0.47
-0.89
-1.24
-1.47
-1.53
-1.42
-1.16
-0.81
-0.44
-0.12
0.10
0.21
0.21
0.13
-0.01
-0.20
-0.38
-0.52
-0.53
-0.38
-0.07
0.35
0.77
1.09
1.23
1.18
1.01
0.81
0.68
0.67
0.77
0.95
1.14
1.30
1.40
1.42
1.36
1.23
1.00
0.65
0.18
-0.40
-1.01
-1.55
-1.93
-2.10
-2.10
-2.02
-1.99
-2.09
-2.36
-2.78
-3.34
-4.00
-4.74
-5.56
-6.42
-7.27
-8.07
-8.78
-9.41
-9.99
-10.58
-11.20
-11.83
-12.43
-12.98
-13.50
-14.05
-14.72
-15.56
-16.51
-17.45
-18.24
-18.86
-19.45
-20.33
-21.85
-24.22
-27.38
-31.01
-34.68
-38.14
-41.44
-44.96
-49.22
-54.56
-60.94
-67.88
-74.57
-80.22
-84.34
-87.03
-88.87
-90.84
-93.92
-98.80
-105.63
-113.98
-122.96
-131.46
-138.60
-144.02
-147.98
-151.21
-154.40
-157.61
-159.84
-159.04
-152.61
-138.16
-114.38
-81.67
-42.37
-0.56
38.71
70.64
92.13
102.92
105.79
105.62
107.43
114.43
126.92
142.55
157.77
169.61
176.64
179.05
177.73
173.40
166.31
156.53
144.58
131.70
119.62
109.85
102.99
98.49
94.94
90.76
84.93
77.39
68.95
60.85
54.14
49.27
45.97
43.49
41.03
38.08
34.57
30.83
27.39
24.72
23.11
22.54
22.79
23.45
24.01
24.02
23.22
21.73
20.08
19.11
19.68
22.26
26.67
32.02
37.04
40.61
42.27
42.47
42.36
43.26
46.08
50.80
56.54
61.85
65.44
66.76
66.32
65.61
66.55
70.94
79.68
92.38
107.08
120.38
127.93
125.28
109.20
78.94
37.11
-10.53
-56.52
-93.90
-118.40
-129.48
-129.87
-123.97
-115.85
-107.95
-100.98
-94.63
-88.57
-83.03
-78.67
-76.06
-75.21
-75.59
-76.48
-77.44
-78.50
-80.01
-82.33
-85.47
-89.04
-92.41
-94.98
-96.49
-97.07
-97.17
-97.42
-98.28
-99.95
-102.23
-104.62
-106.65
-108.06
-108.91
-109.42
-109.75
-109.69
-108.38
-104.45
-96.33
-82.94
-64.34
-41.96
-18.33
3.68
21.93
35.62
45.37
52.67
59.11
65.82
73.32
81.68
90.69
99.93
108.57
115.43
119.21
119.08
115.11
108.36
100.37
92.64
86.09
80.94
76.94
73.73
71.02
68.64
66.49
64.44
62.50
60.77
59.52
59.02
59.47
60.81
62.75
64.90
66.90
68.59
70.01
71.37
72.96
74.99
77.54
80.52
83.80
87.21
90.68
94.26
98.16
102.84
109.00
117.50
128.85
142.55
156.65
167.73
171.79
165.48
147.26
117.68
78.97
34.06
-14.05
-62.35
-107.58
-146.07
-174.36
-190.29
-193.93
-187.84
-176.11
-162.84
-150.80
-140.97
-132.94
-125.85
-119.15
-112.83
-107.19
-102.41
-98.31
-94.42
-90.18
-85.22
-79.50
-73.29
-66.99
-61.01
-55.64
-51.03
-47.21
-44.17
-41.85
-40.23
-39.29
-39.02
-39.43
-40.50
-42.11
-44.05
-45.97
-47.48
-48.24
-48.18
-47.47
-46.61
-46.12
-46.40
-47.46
-48.94
-50.31
-51.25
-51.99
-53.23
-55.69
-59.48
-63.63
-66.43
-66.06
-61.43
-52.42
-39.49
-22.97
-2.66
21.93
50.79
82.59
114.55
143.15
165.25
179.23
185.26
184.90
180.34
173.79
167.21
162.38
160.93
163.97
171.40
181.32
189.88
191.88
182.19
157.47
117.80
67.18
12.69
-37.64
-77.34
-103.40
-116.63
-120.58
-119.57
-116.95
-114.31
-111.77
-108.89
-105.37
-101.34
-96.96
-92.07
-86.04
-78.19
-68.29
-56.97
-45.55
-35.55
-28.19
-23.89
-22.29
-22.37
-22.95
-23.06
-22.22
-20.51
-18.41
-16.58
-15.46
-15.19
-15.53
-16.05
-16.36
-16.28
-15.90
-15.52
-15.50
-16.12
-17.50
-19.59
-22.24
-25.23
-28.37
-31.43
-33.99
-35.42
-34.87
-31.56
-25.20
-16.30
-6.20
3.46
11.31
16.85
20.53
23.34
26.07
28.91
31.36
32.69
32.44
30.79
28.41
26.07
24.20
22.71
21.19
19.20
16.56
13.46
10.31
7.56
5.45
3.95
2.79
1.61
0.15
-1.64
-3.55
-5.16
-6.03
-5.80
-4.35
-1.80
1.54
5.27
9.06
12.67
15.98
18.92
21.41
23.30
24.46
24.81
24.39
23.39
22.09
20.71
19.47
18.50
17.92
17.86
18.44
19.69
21.47
23.49
25.42
27.01
28.29
29.53
31.18
33.59
36.84
40.64
44.45
47.77
50.46
52.83
55.59
59.51
64.96
71.75
79.12
86.18
92.27
97.35
102.04
107.30
114.08
123.06
134.61
148.72
164.83
181.54
196.39
206.13
207.55
198.58
179.03
150.73
116.56
79.15
39.88
-1.15
-44.02
-87.68
-129.19
-164.23
-188.75
-200.76
-201.28
-193.84
-182.96
-172.29
-163.54
-156.45
-149.83
-142.73
-135.05
-127.47
-120.76
-115.14
-110.10
-104.69
-98.06
-89.96
-80.83
-71.65
-63.46
-56.90
-52.08
-48.55
-45.64
-42.72
-39.45
-35.85
-32.17
-28.75
-25.83
-23.47
-21.55
-19.76
-17.75
-15.31
-12.46
-9.50
-6.89
-5.05
-4.15
-4.04
-4.31
-4.52
-4.38
-3.82
-2.93
-1.90
-0.89
0.02
0.78
1.41
1.92
2.33
2.66
2.90
3.04
3.02
2.83
2.50
2.19
2.10
2.43
3.30
4.64
6.19
7.59
8.47
8.63
8.04
6.91
5.52
4.16
3.06
2.36
2.13
2.36
2.97
3.81
4.62
5.15
5.17
4.58
3.49
2.14
0.80
-0.30
-1.12
-1.75
-2.35
-3.06
-3.89
-4.76
-5.52
-6.08
-6.42
-6.60
-6.69
-6.77
-6.85
-6.90
-6.88
-6.76
-6.54
-6.31
-6.16
-6.23
-6.57
-7.14
-7.75
-8.15
-8.12
-7.53
-6.43
-4.93
-3.15
-1.14
1.04
3.25
5.23
6.62
7.14
6.71
5.53
4.00
2.55
1.49
0.90
0.67
0.64
0.70
0.82
1.07
1.48
2.00
2.49
2.78
2.74
2.40
1.91
1.50
1.34
1.47
1.78
2.09
2.24
2.18
1.97
1.73
1.54
1.41
1.26
0.97
0.43
-0.42
-1.54
-2.80
-4.02
-4.99
-5.51
-5.46
-4.78
-3.55
-1.95
-0.24
1.31
2.46
3.11
3.28
3.13
2.86
2.66
2.59
2.66
2.80
2.91
2.96
2.94
2.89
2.83
2.77
2.71
2.62
2.56
2.60
2.80
3.17
3.62
3.98
4.07
3.79
3.20
2.41
1.61
0.92
0.37
-0.06
-0.45
-0.79
-1.07
-1.19
-1.11
-0.80
-0.33
0.21
0.67
0.95
0.99
0.82
0.54
0.30
0.23
0.41
0.84
1.45
2.09
2.62
2.91
2.94
2.80
2.65
2.64
2.87
3.30
3.77
4.12
4.23
4.14
3.96
3.81
3.75
3.74
3.65
3.34
2.72
1.77
0.49
-1.06
-2.78
-4.57
-6.26
-7.70
-8.76
-9.36
-9.47
-9.12
-8.37
-7.34
-6.14
-4.93
-3.79
-2.81
-2.01
-1.38
-0.92
-0.62
-0.46
-0.35
-0.20
0.00
0.22
0.31
0.15
-0.31
-0.93
-1.53
-1.89
-1.97
-1.85
-1.68
-1.58
-1.56
-1.52
-1.42
-1.24
-1.10
-1.06
-1.14
-1.26
-1.26
-1.03
-0.56
0.03
0.61
1.03
1.25
1.29
1.20
1.06
0.92
0.87
0.95
1.18
1.52
1.91
2.29
2.60
2.84
3.02
3.19
3.34
3.47
3.52
3.44
3.21
2.83
2.38
1.95
1.62
1.44
1.37
1.31
1.14
0.79
0.27
-0.32
-0.87
-1.31
-1.61
-1.82
-1.97
-2.07
-2.08
-1.94
-1.64
-1.22
-0.77
-0.41
-0.21
-0.19
-0.26
-0.34
-0.36
-0.30
-0.21
-0.16
-0.22
-0.38
-0.58
-0.71
-0.71
-0.57
-0.38
-0.25
-0.27
-0.46
-0.78
-1.15
-1.52
-1.85
-2.09
-2.20
-2.17
-1.97
-1.67
-1.35
-1.14
-1.07
-1.12
-1.21
-1.25
-1.20
-1.09
-0.99
-0.92
-0.87
-0.79
-0.66
-0.47
-0.26
-0.07
0.09
0.19
0.25
0.25
0.18
0.02
-0.18
-0.35
-0.42
-0.31
0.00
0.47
1.02
1.58
2.03
2.28
2.27
1.97
1.46
0.87
0.35
0.04
-0.01
0.18
0.50
0.82
1.06
1.18
1.18
1.10
0.98
0.85
0.73
0.64
0.58
0.55
0.55
0.55
0.49
0.32
-0.03
-0.52
-1.09
-1.60
-1.93
-2.04
-1.97
-1.81
-1.67
-1.58
-1.53
-1.44
-1.25
-0.97
-0.69
-0.51
-0.52
-0.73
-1.07
-1.44
-1.74
-1.92
-2.00
-1.97
-1.87
-1.71
-1.48
-1.26
-1.12
-1.13
-1.33
-1.70
-2.15
-2.57
-2.88
-3.03
-2.99
-2.74
-2.24
-1.55
-0.77
-0.07
0.41
0.60
0.61
0.60
0.76
1.15
1.69
2.23
2.58
2.62
2.31
1.74
1.04
0.35
-0.17
-0.43
-0.40
-0.12
0.31
0.79
1.22
1.56
1.76
1.81
1.68
1.44
1.20
1.08
1.21
1.57
2.06
2.49
2.71
2.65
2.39
2.07
1.81
1.65
1.58
1.53
1.48
1.45
1.47
1.56
1.65
1.67
1.52
1.16
0.62
-0.05
-0.73
-1.32
-1.67
-1.64
-1.12
-0.10
1.26
2.65
3.68
4.06
3.68
2.74
1.63
0.75
0.41
0.64
1.29
2.11
2.88
3.47
3.83
3.90
3.62
2.92
1.78
0.28
-1.41
-3.04
-4.40
-5.34
-5.81
-5.86
-5.59
-5.15
-4.71
-4.38
-4.20
-4.10
-3.97
-3.69
-3.23
-2.65
-2.07
-1.61
-1.28
-1.05
-0.84
-0.63
-0.43
-0.32
-0.32
-0.44
-0.62
-0.80
-0.91
-0.96
-0.91
-0.77
-0.51
-0.14
0.30
0.71
1.00
1.13
1.12
1.04
1.00
1.04
1.16
1.25
1.21
0.99
0.61
0.17
-0.22
-0.48
-0.62
-0.68
-0.72
-0.75
-0.76
-0.72
-0.63
-0.53
-0.48
-0.47
-0.44
-0.32
-0.02
0.45
1.01
1.55
1.93
2.13
2.13
1.98
1.72
1.37
0.95
0.51
0.07
-0.31
-0.59
-0.75
-0.81
-0.76
-0.61
-0.41
-0.16
0.08
0.29
0.40
0.42
0.36
0.24
0.09
-0.07
-0.21
-0.31
-0.36
-0.34
-0.26
-0.12
0.05
0.24
0.43
0.59
0.71
0.78
0.83
0.86
0.90
0.96
1.02
1.01
0.88
0.56
0.08
-0.48
-0.94
-1.17
-1.11
-0.84
-0.52
-0.33
-0.36
-0.57
-0.82
-0.97
-0.97
-0.88
-0.80
-0.82
-0.93
-1.05
-1.06
-0.84
-0.40
0.20
0.84
1.37
1.68
1.71
1.47
1.05
0.58
0.22
0.06
0.13
0.37
0.65
0.83
0.84
0.69
0.45
0.17
-0.10
-0.33
-0.55
-0.75
-0.90
-0.96
-0.89
-0.71
-0.45
-0.18
0.10
0.36
0.59
0.77
0.84
0.75
0.46
0.01
-0.50
-0.95
-1.22
-1.24
-1.03
-0.65
-0.24
0.12
0.39
0.57
0.69
0.77
0.80
0.72
0.48
0.08
-0.42
-0.92
-1.32
-1.57
-1.68
-1.73
-1.81
-2.00
-2.31
-2.74
-3.26
-3.87
-4.55
-5.31
-6.01
-6.43
-6.19
-4.97
-2.65
0.51
3.98
7.06
9.21
10.25
10.33
9.80
8.96
7.92
6.64
5.03
3.13
1.16
-0.54
-1.68
-2.16
-2.09
-1.71
-1.31
-1.06
-1.02
-1.13
-1.30
-1.43
-1.48
-1.47
-1.44
-1.40
-1.35
-1.24
-1.04
-0.71
-0.28
0.19
0.60
0.83
0.83
0.61
0.25
-0.10
-0.31
-0.32
-0.15
0.08
0.24
0.24
0.07
-0.18
-0.41
-0.52
-0.52
-0.48
-0.49
-0.63
-0.88
-1.16
-1.34
-1.34
-1.16
-0.88
-0.61
-0.37
-0.18
-0.05
0.00
-0.09
-0.37
-0.78
-1.19
-1.44
-1.45
-1.26
-1.05
-1.01
-1.24
-1.69
-2.20
-2.56
-2.67
-2.51
-2.17
-1.78
-1.45
-1.23
-1.15
-1.18
-1.31
-1.50
-1.73
-1.94
-2.10
-2.15
-2.09
-1.96
-1.84
-1.78
-1.79
-1.77
-1.59
-1.12
-0.34
0.68
1.74
2.62
3.19
3.42
3.45
3.44
3.50
3.64
3.83
3.95
3.98
3.91
3.81
3.72
3.61
3.42
3.11
2.66
2.11
1.59
1.17
0.88
0.70
0.57
0.43
0.27
0.09
-0.07
-0.19
-0.25
-0.21
-0.08
0.13
0.33
0.46
0.48
0.38
0.24
0.15
0.14
0.19
0.22
0.19
0.08
-0.03
-0.07
-0.02
0.08
0.14
0.08
-0.09
-0.31
-0.52
-0.66
-0.75
-0.81
-0.90
-0.99
-1.04
-0.96
-0.72
-0.31
0.16
0.58
0.87
0.96
0.90
0.74
0.56
0.41
0.28
0.17
0.06
-0.03
-0.10
-0.16
-0.24
-0.37
-0.53
-0.65
-0.65
-0.49
-0.21
0.05
0.15
0.01
-0.32
-0.71
-0.98
-0.99
-0.75
-0.32
0.13
0.47
0.63
0.60
0.45
0.28
0.15
0.10
0.11
0.14
0.14
0.13
0.12
0.15
0.23
0.31
0.33
0.22
-0.03
-0.37
-0.69
-0.88
-0.88
-0.67
-0.30
0.15
0.57
0.86
0.97
0.90
0.77
0.69
0.76
0.94
1.10
1.08
0.80
0.33
-0.15
-0.44
-0.43
-0.21
0.02
0.10
-0.06
-0.37
-0.71
-0.95
-1.07
-1.12
-1.21
-1.38
-1.61
-1.78
-1.78
-1.55
-1.12
-0.59
-0.13
0.14
0.20
0.08
-0.12
-0.30
-0.41
-0.48
-0.55
-0.65
-0.77
-0.85
-0.88
-0.85
-0.81
-0.82
-0.91
-1.08
-1.29
-1.49
-1.63
-1.69
-1.67
-1.57
-1.40
-1.18
-0.92
-0.66
-0.41
-0.19
-0.00
0.15
0.26
0.32
0.33
0.27
0.18
0.07
-0.02
-0.08
-0.11
-0.13
-0.15
-0.16
-0.15
-0.09
0.05
0.27
0.54
0.84
1.12
1.36
1.54
1.65
1.71
1.73
1.77
1.89
2.19
2.74
3.56
4.61
5.78
6.94
7.92
8.59
8.90
8.86
8.52
7.95
7.22
6.39
5.49
4.58
3.71
2.96
2.35
1.83
1.31
0.65
-0.20
-1.23
-2.31
-3.24
-3.90
-4.20
-4.23
-4.13
-4.08
-4.23
-4.57
-4.99
-5.30
-5.31
-4.97
-4.34
-3.62
-3.00
-2.58
-2.35
-2.18
-1.93
-1.56
-1.11
-0.74
-0.59
-0.71
-1.05
-1.43
-1.73
-1.87
-1.90
-1.91
-1.98
-2.12
-2.24
-2.27
-2.15
-1.93
-1.70
-1.57
-1.54
-1.59
-1.62
-1.58
-1.45
-1.23
-0.94
-0.56
-0.07
0.52
1.14
1.64
1.85
1.68
1.21
0.62
0.14
-0.08
-0.05
0.12
0.25
0.25
0.14
0.01
-0.02
0.07
0.20
0.28
0.19
-0.07
-0.43
-0.78
-1.02
-1.11
-1.06
-0.95
-0.80
-0.62
-0.42
-0.22
-0.05
0.05
0.06
-0.02
-0.13
-0.23
-0.28
-0.27
-0.21
-0.06
0.19
0.55
0.96
1.37
1.69
1.85
1.88
1.84
1.83
1.89
2.03
2.19
2.31
2.32
2.18
1.93
1.61
1.29
1.01
0.81
0.72
0.74
0.85
1.03
1.23
1.40
1.48
1.47
1.39
1.31
1.25
1.25
1.30
1.41
1.53
1.64
1.69
1.57
1.22
0.62
-0.21
-1.13
-2.00
-2.71
-3.16
-3.36
-3.36
-3.20
-2.93
-2.59
-2.18
-1.73
-1.29
-0.95
-0.80
-0.85
-1.04
-1.19
-1.15
-0.88
-0.44
-0.03
0.17
0.08
-0.24
-0.60
-0.82
-0.81
-0.59
-0.31
-0.07
0.03
0.02
-0.05
-0.12
-0.18
-0.28
-0.46
-0.73
-1.00
-1.15
-1.04
-0.65
-0.08
0.46
0.79
0.81
0.59
0.31
0.14
0.17
0.36
0.59
0.77
0.84
0.87
0.93
1.07
1.23
1.34
1.29
1.06
0.71
0.36
0.09
-0.04
-0.10
-0.14
-0.22
-0.32
-0.39
-0.38
-0.31
-0.22
-0.20
-0.28
-0.43
-0.58
-0.62
-0.49
-0.21
0.16
0.52
0.85
1.14
1.39
1.62
1.81
1.95
2.01
2.04
2.08
2.20
2.38
2.55
2.59
2.36
1.80
0.95
-0.06
-1.02
-1.77
-2.21
-2.35
-2.31
-2.20
-2.10
-2.00
-1.87
-1.67
-1.38
-1.03
-0.72
-0.50
-0.38
-0.35
-0.35
-0.35
-0.33
-0.31
-0.33
-0.41
-0.57
-0.76
-0.91
-0.95
-0.85
-0.65
-0.41
-0.22
-0.10
-0.03
0.06
0.17
0.28
0.34
0.27
0.12
-0.02
-0.01
0.22
0.59
0.93
1.02
0.73
0.13
-0.52
-0.93
-0.90
-0.46
0.21
0.81
1.12
1.08
0.77
0.37
0.03
-0.20
-0.36
-0.51
-0.67
-0.80
-0.82
-0.70
-0.46
-0.20
-0.05
-0.03
-0.13
-0.23
-0.25
-0.14
0.09
0.34
0.54
0.64
0.64
0.56
0.44
0.29
0.18
0.17
0.32
0.59
0.87
1.02
0.94
0.62
0.20
-0.13
-0.24
-0.13
0.07
0.21
0.22
0.10
-0.06
-0.23
-0.42
-0.72
-1.16
-1.64
-2.01
-2.12
-1.92
-1.52
-1.15
-0.97
-0.99
-1.10
-1.11
-0.89
-0.45
0.07
0.54
0.83
0.92
0.82
0.58
0.21
-0.25
-0.72
-1.09
-1.23
-1.09
-0.74
-0.31
0.07
0.29
0.35
0.33
0.31
0.32
0.36
0.41
0.46
0.52
0.61
0.72
0.79
0.76
0.59
0.32
-0.01
-0.31
-0.51
-0.57
-0.52
-0.38
-0.20
-0.02
0.10
0.14
0.07
-0.09
-0.32
-0.58
-0.81
-0.95
-0.95
-0.81
-0.56
-0.31
-0.12
-0.05
-0.07
-0.12
-0.15
-0.15
-0.15
-0.19
-0.27
-0.36
-0.37
-0.26
-0.00
0.37
0.77
1.15
1.41
1.53
1.47
1.28
1.00
0.73
0.50
0.32
0.18
0.04
-0.08
-0.17
-0.18
-0.14
-0.07
-0.05
-0.09
-0.17
-0.23
-0.18
-0.02
0.24
0.49
0.63
0.61
0.44
0.21
0.02
-0.01
0.13
0.43
0.80
1.14
1.33
1.32
1.12
0.78
0.41
0.10
-0.05
-0.03
0.14
0.38
0.59
0.69
0.64
0.45
0.19
-0.07
-0.23
-0.28
-0.24
-0.17
-0.18
-0.33
-0.64
-1.03
-1.37
-1.55
-1.53
-1.33
-1.02
-0.69
-0.35
-0.04
0.23
0.42
0.50
0.48
0.39
0.29
0.24
0.29
0.41
0.57
0.73
0.86
0.96
1.00
0.97
0.85
0.64
0.37
0.09
-0.17
-0.37
-0.48
-0.47
-0.32
-0.03
0.31
0.56
0.59
0.37
-0.06
-0.54
-0.89
-0.96
-0.74
-0.31
0.15
0.51
0.68
0.71
0.71
0.78
0.92
1.06
1.05
0.87
0.54
0.23
0.08
0.11
0.25
0.32
0.22
-0.08
-0.44
-0.73
-0.85
-0.82
-0.72
-0.65
-0.61
-0.57
-0.44
-0.20
0.12
0.42
0.63
0.69
0.62
0.49
0.35
0.25
0.21
0.18
0.17
0.16
0.20
0.32
0.52
0.76
0.98
1.13
1.21
1.24
1.28
1.37
1.50
1.61
1.63
1.54
1.37
1.19
1.09
1.12
1.26
1.49
1.73
1.98
2.27
2.63
3.12
3.69
4.23
4.60
4.68
4.42
3.88
3.13
2.29
1.43
0.58
-0.30
-1.27
-2.41
-3.74
-5.18
-6.55
-7.63
-8.19
-8.15
-7.56
-6.54
-5.31
-4.05
-2.92
-2.06
-1.56
-1.42
-1.52
-1.67
-1.62
-1.19
-0.39
0.59
1.41
1.75
1.35
0.13
-1.85
-4.37
-7.09
-9.65
-11.74
-13.16
-13.93
-14.25
-14.46
-14.91
-15.83
-17.29
-19.18
-21.32
-23.49
-25.64
-27.85
-30.38
-33.55
-37.58
-42.49
-48.04
-53.81
-59.37
-64.50
-69.28
-74.10
-79.48
-85.81
-93.20
-101.42
-109.97
-118.42
-126.54
-134.50
-142.86
-152.38
-163.77
-177.40
-193.19
-210.49
-228.08
-244.22
-256.85
-263.89
-263.67
-255.36
-239.22
-216.54
-189.27
-159.52
-129.12
-99.27
-70.56
-43.00
-16.23
10.47
38.08
67.87
101.12
138.54
179.60
221.89
261.32
293.01
312.89
319.20
313.13
298.30
279.21
259.55
241.23
224.49
208.70
193.40
178.76
165.38
153.71
143.60
134.29
124.83
114.59
103.54
92.22
81.52
72.16
64.48
58.31
53.09
48.12
42.87
37.21
31.43
26.08
21.68
18.45
16.21
14.48
12.69
10.50
7.87
5.12
2.69
0.92
-0.06
-0.39
-0.35
-0.24
-0.29
-0.57
-1.08
-1.69
-2.28
-2.71
-2.90
-2.83
-2.50
-1.96
-1.22
-0.27
0.89
2.25
3.68
5.01
6.05
6.71
7.08
7.40
8.01
9.18
11.04
13.51
16.35
19.23
21.89
24.17
26.12
27.93
29.94
32.49
35.85
40.12
45.19
50.78
56.57
62.33
68.02
73.80
79.98
86.76
94.23
102.26
110.64
119.14
127.66
136.27
145.18
154.75
165.54
178.21
193.18
210.15
227.55
242.50
251.35
250.92
239.64
218.33
189.81
157.85
125.75
95.35
66.88
39.54
12.21
-16.07
-46.14
-78.81
-114.65
-153.30
-192.78
-229.40
-258.67
-276.78
-282.19
-276.20
-262.34
-244.88
-227.22
-211.08
-196.62
-183.30
-170.67
-158.73
-147.73
-137.75
-128.47
-119.28
-109.68
-99.55
-89.21
-79.36
-70.62
-63.33
-57.36
-52.26
-47.47
-42.63
-37.69
-32.92
-28.76
-25.56
-23.41
-22.11
-21.27
-20.42
-19.23
-17.54
-15.42
-13.10
-10.90
-9.09
-7.83
-7.10
-6.69
-6.27
-5.62
-4.65
-3.49
-2.39
-1.57
-1.11
-0.97
-0.99
-1.02
-0.98
-0.85
-0.64
-0.38
-0.12
0.09
0.23
0.29
0.27
0.24
0.19
0.12
-0.04
-0.30
-0.63
-0.96
-1.17
-1.23
-1.17
-1.06
-0.96
-0.91
-0.86
-0.77
-0.65
-0.51
-0.41
-0.37
-0.40
-0.50
-0.61
-0.67
-0.60
-0.39
-0.09
0.17
0.28
0.18
-0.08
-0.31
-0.36
-0.15
0.21
0.55
0.69
0.58
0.32
0.09
-0.00
0.07
0.23
0.39
0.48
0.53
0.56
0.63
0.71
0.78
0.82
0.87
0.95
1.09
1.24
1.30
1.22
0.98
0.67
0.39
0.26
0.27
0.33
0.35
0.26
0.09
-0.06
-0.12
-0.07
0.02
0.05
-0.07
-0.33
-0.65
-0.91
-1.03
-0.97
-0.76
-0.45
-0.12
0.20
0.45
0.61
0.66
0.62
0.55
0.51
0.51
0.53
0.52
0.45
0.33
0.20
0.13
0.14
0.23
0.34
0.43
0.46
0.44
0.40
0.39
0.46
0.62
0.83
1.03
1.10
0.98
0.69
0.35
0.09
0.05
0.19
0.40
0.49
0.35
0.01
-0.40
-0.70
-0.81
-0.76
-0.65
-0.57
-0.54
-0.53
-0.49
-0.40
-0.30
-0.21
-0.16
-0.09
0.02
0.18
0.34
0.38
0.27
0.04
-0.18
-0.23
-0.02
0.45
1.04
1.60
1.99
2.15
2.10
1.88
1.53
1.10
0.64
0.20
-0.15
-0.34
-0.38
-0.28
-0.13
-0.02
0.00
-0.06
-0.17
-0.25
-0.25
-0.18
-0.08
-0.03
-0.12
-0.37
-0.75
-1.15
-1.48
-1.65
-1.64
-1.49
-1.24
-0.94
-0.64
-0.36
-0.09
0.18
0.46
0.75
1.03
1.28
1.47
1.56
1.52
1.36
1.07
0.69
0.26
-0.16
-0.52
-0.81
-1.00
-1.09
-1.08
-0.97
-0.77
-0.48
-0.16
0.14
0.37
0.50
0.54
0.51
0.43
0.32
0.16
-0.04
-0.25
-0.45
-0.60
-0.69
-0.75
-0.82
-0.95
-1.18
-1.48
-1.81
-2.11
-2.36
-2.56
-2.74
-2.96
-3.22
-3.49
-3.70
-3.79
-3.74
-3.55
-3.29
-3.03
-2.81
-2.67
-2.63
-2.64
-2.65
-2.58
-2.38
-2.03
-1.61
-1.18
-0.83
-0.59
-0.47
-0.46
-0.57
-0.84
-1.27
-1.82
-2.38
-2.82
-3.05
-3.06
-2.92
-2.72
-2.53
-2.36
-2.18
-1.99
-1.79
-1.60
-1.43
-1.24
-0.96
-0.54
0.04
0.77
1.61
2.55
3.61
4.81
6.13
7.45
8.58
9.32
9.54
9.23
8.54
7.66
6.73
5.84
4.99
4.18
3.43
2.82
2.43
2.28
2.37
2.58
2.77
2.83
2.69
2.39
2.04
1.80
1.78
2.00
2.34
2.61
2.58
2.15
1.34
0.33
-0.63
-1.34
-1.71
-1.77
-1.65
-1.44
-1.24
-1.04
-0.85
-0.65
-0.48
-0.37
-0.38
-0.46
-0.54
-0.51
-0.32
0.00
0.34
0.53
0.49
0.23
-0.12
-0.40
-0.48
-0.33
-0.01
0.37
0.74
1.03
1.28
1.53
1.85
2.32
2.93
3.66
4.41
5.06
5.57
5.96
6.34
6.82
7.47
8.24
9.06
9.86
10.57
11.17
11.53
11.42
10.46
8.33
4.97
0.69
-3.81
-7.69
-10.30
-11.41
-11.26
-10.37
-9.28
-8.30
-7.46
-6.65
-5.80
-4.95
-4.22
-3.75
-3.51
-3.40
-3.27
-3.04
-2.74
-2.45
-2.24
-2.16
-2.15
-2.18
-2.21
-2.28
-2.43
-2.69
-3.02
-3.38
-3.68
-3.84
-3.81
-3.59
-3.20
-2.70
-2.14
-1.55
-0.99
-0.50
-0.13
0.09
0.15
0.14
0.15
0.29
0.63
1.12
1.67
2.14
2.42
2.48
2.40
2.28
2.26
2.43
2.79
3.26
3.71
3.97
4.01
3.88
3.74
3.77
4.07
4.61
5.25
5.80
6.12
6.21
6.14
6.05
6.04
6.19
6.48
6.81
7.03
6.87
6.06
4.32
1.57
-2.06
-6.19
-10.30
-13.85
-16.44
-17.85
-18.05
-17.21
-15.62
-13.62
-11.57
-9.79
-8.48
-7.73
-7.48
-7.59
-7.85
-8.04
-8.00
-7.66
-7.05
-6.33
-5.67
-5.23
-5.04
-5.02
-4.99
-4.83
-4.51
-4.11
-3.81
-3.73
-3.94
-4.39
-4.98
-5.60
-6.14
-6.56
-6.82
-6.89
-6.76
-6.48
-6.14
-5.85
-5.76
-6.00
-6.62
-7.55
-8.67
-9.85
-11.05
-12.36
-14.00
-16.15
-18.81
-21.78
-24.64
-27.05
-28.89
-30.40
-32.09
-34.56
-38.15
-42.81
-48.16
-53.64
-58.77
-63.39
-67.68
-72.08
-77.03
-82.75
-89.09
-95.52
-101.40
-106.36
-110.57
-114.81
-120.31
-128.26
-139.57
-154.68
-173.47
-195.19
-218.31
-240.37
-258.23
-268.71
-269.50
-259.92
-241.13
-215.66
-186.45
-155.97
-125.77
-96.54
-68.51
-41.70
-15.95
9.22
34.82
62.33
93.36
128.94
168.81
210.82
251.06
284.73
307.65
317.79
315.91
305.26
290.12
274.17
259.43
246.22
233.99
222.33
211.50
202.29
195.33
190.59
187.20
183.97
180.00
175.18
170.23
166.37
164.68
165.53
168.45
172.35
175.99
178.68
180.57
182.55
185.79
191.12
198.59
207.45
216.50
224.30
229.41
230.50
226.71
218.05
205.65
191.48
177.51
164.65
152.14
137.88
119.64
96.33
68.73
39.11
10.00
-17.09
-42.21
-66.75
-92.64
-121.54
-154.35
-190.90
-229.84
-268.55
-303.49
-331.05
-348.66
-355.69
-353.69
-345.79
-335.39
-325.04
-315.85
-307.71
-299.98
-292.31
-285.03
-279.03
-275.45
-275.26
-279.13
-287.31
-299.47
-314.40
-329.88
-342.73
-349.49
-347.44
-335.43
-314.21
-286.03
-253.66
-219.52
-185.14
-151.28
-118.20
-86.14
-55.18
-25.17
4.49
34.77
66.83
101.72
140.16
182.14
226.49
270.62
310.72
342.58
362.93
370.60
366.96
355.45
340.20
324.73
311.07
299.82
290.73
283.34
277.34
272.58
268.84
265.83
263.45
262.03
262.41
265.73
272.89
283.95
297.59
311.22
321.43
325.05
320.07
306.26
285.04
258.84
230.11
200.66
171.45
142.80
114.82
87.69
61.56
36.32
11.41
-14.23
-41.94
-73.09
-108.54
-148.00
-189.48
-229.18
-262.16
-283.90
-291.97
-287.14
-273.18
-255.39
-238.55
-225.34
-215.92
-208.75
-201.96
-194.41
-185.97
-177.02
-167.83
-158.20
-147.64
-135.83
-123.02
-110.06
-98.16
-88.33
-80.88
-75.32
-70.52
-65.26
-58.78
-51.10
-42.96
-35.46
-29.48
-25.34
-22.71
-20.82
-18.86
-16.35
-13.28
-10.02
-7.10
-4.96
-3.74
-3.30
-3.32
-3.48
-3.53
-3.45
-3.30
-3.22
-3.31
-3.55
-3.87
-4.16
-4.33
-4.37
-4.36
-4.38
-4.48
-4.63
-4.71
-4.61
-4.33
-4.02
-3.87
-4.01
-4.38
-4.74
-4.70
-3.98
-2.51
-0.52
1.62
3.55
5.05
6.17
7.02
7.72
8.25
8.45
8.18
7.45
6.46
5.50
4.82
4.50
4.40
4.31
4.06
3.69
3.33
3.22
3.47
4.08
4.92
5.85
6.76
7.59
8.28
8.79
9.01
8.88
8.37
7.54
6.52
5.49
4.62
4.03
3.75
3.71
3.76
3.73
3.45
2.80
1.77
0.38
-1.24
-2.94
-4.51
-5.76
-6.56
-6.89
-6.89
-6.81
-6.93
-7.42
-8.36
-9.61
-10.93
-11.99
-12.52
-12.31
-11.39
-9.94
-8.27
-6.71
-5.45
-4.52
-3.79
-3.05
-2.14
-1.02
0.23
1.48
2.55
3.24
3.43
3.06
2.21
1.08
-0.09
-1.07
-1.73
-2.06
-2.05
-1.73
-1.08
-0.12
1.03
2.17
3.01
3.35
3.12
2.40
1.42
0.40
-0.42
-0.94
-1.14
-1.14
-1.16
-1.39
-1.95
-2.76
-3.60
-4.16
-4.24
-3.79
-2.92
-1.86
-0.79
0.20
1.13
2.07
3.05
4.01
4.85
5.40
5.52
5.20
4.54
3.78
3.21
3.06
3.34
3.85
4.24
4.22
3.76
3.08
2.62
2.71
3.40
4.34
4.98
4.78
3.45
1.12
-1.78
-4.64
-6.85
-8.02
-8.03
-7.05
-5.52
-3.95
-2.81
-2.35
-2.59
-3.34
-4.40
-5.58
-6.81
-7.98
-8.95
-9.55
-9.62
-9.18
-8.45
-7.77
-7.40
-7.41
-7.66
-7.85
-7.75
-7.27
-6.54
-5.79
-5.22
-4.90
-4.71
-4.46
-3.92
-2.93
-1.41
0.61
3.00
5.49
7.77
9.52
10.49
10.66
10.19
9.37
8.51
7.79
7.22
6.68
6.04
5.22
4.26
3.31
2.53
2.03
1.80
1.74
1.68
1.45
1.00
0.35
-0.35
-0.93
-1.28
-1.39
-1.34
-1.22
-1.09
-0.93
-0.73
-0.47
-0.25
-0.21
-0.48
-1.14
-2.14
-3.35
-4.58
-5.64
-6.37
-6.72
-6.70
-6.45
-6.12
-5.88
-5.81
-5.89
-5.99
-5.94
-5.62
-5.00
-4.15
-3.26
-2.50
-2.05
-2.02
-2.42
-3.23
-4.32
-5.56
-6.77
-7.80
-8.53
-8.96
-9.16
-9.30
-9.52
-9.86
-10.29
-10.67
-10.84
-10.65
-10.02
-8.92
-7.35
-5.33
-2.88
-0.09
2.95
6.11
9.27
12.30
15.07
17.49
19.42
20.80
21.59
21.76
21.36
20.45
19.19
17.76
16.35
15.13
14.12
13.25
12.38
11.41
10.29
9.06
7.75
6.36
4.83
3.13
1.28
-0.59
-2.33
-3.82
-5.07
-6.26
-7.65
-9.52
-12.07
-15.36
-19.29
-23.62
-28.01
-32.15
-35.88
-39.25
-42.53
-46.09
-50.25
-55.05
-60.28
-65.50
-70.32
-74.64
-78.79
-83.38
-89.06
-96.18
-104.56
-113.59
-122.49
-130.70
-138.16
-145.37
-153.19
-162.57
-174.27
-188.66
-205.57
-224.07
-242.44
-258.23
-268.76
-271.86
-266.51
-253.19
-233.56
-209.81
-183.86
-156.94
-129.67
-102.37
-75.43
-49.34
-24.44
-0.59
22.96
47.45
74.34
104.88
139.66
178.12
218.06
255.80
286.86
307.27
315.01
310.74
297.49
279.43
260.21
241.96
225.14
209.33
194.12
179.70
166.68
155.50
145.99
137.30
128.37
118.54
107.85
97.01
87.06
78.74
72.22
67.01
62.27
57.23
51.50
45.25
39.02
33.45
28.95
25.56
22.98
20.79
18.61
16.22
13.67
11.13
8.85
7.03
5.79
5.07
4.70
4.43
4.06
3.47
2.76
2.09
1.62
1.41
1.38
1.36
1.26
1.07
0.93
0.96
1.22
1.64
2.06
2.37
2.55
2.65
2.77
2.94
3.13
3.23
3.23
3.15
3.11
3.23
3.55
4.06
4.68
5.34
6.01
6.68
7.28
7.67
7.74
7.41
6.81
6.19
5.90
6.21
7.26
8.99
11.20
13.60
15.87
17.66
18.65
18.71
17.94
16.69
15.50
14.94
15.41
17.12
20.06
24.08
28.89
34.14
39.36
44.12
48.19
51.69
55.19
59.52
65.40
73.10
82.31
92.18
101.77
110.41
118.10
125.45
133.54
143.51
156.24
172.20
191.25
212.46
233.98
253.13
266.84
272.46
268.57
255.46
234.91
209.50
181.73
153.37
125.34
97.98
71.43
45.78
20.92
-3.65
-28.98
-56.57
-87.97
-124.11
-164.48
-206.64
-246.33
-278.45
-298.66
-304.94
-298.38
-282.66
-262.60
-242.33
-224.16
-208.46
-194.52
-181.59
-169.52
-158.61
-149.09
-140.61
-132.22
-122.87
-111.97
-99.80
-87.39
-76.13
-67.07
-60.51
-56.00
-52.54
-49.12
-45.11
-40.43
-35.46
-30.75
-26.69
-23.41
-20.75
-18.37
-16.01
-13.56
-11.12
-8.93
-7.24
-6.18
-5.75
-5.79
-6.05
-6.26
-6.18
-5.65
-4.61
-3.13
-1.38
0.40
2.02
3.38
4.50
5.48
6.41
7.28
7.96
8.29
8.16
7.55
6.64
5.70
5.00
4.76
5.00
5.50
5.84
5.49
3.93
0.94
-3.34
-8.42
-13.66
-18.52
-22.87
-27.01
-31.52
-36.95
-43.57
-51.25
-59.56
-67.98
-76.19
-84.21
-92.37
-100.96
-109.91
-118.52
-125.64
-130.15
-131.52
-130.08
-126.67
-121.75
-114.75
-103.85
-86.65
-61.29
-27.31
14.43
62.62
116.34
174.93
236.78
297.86
351.30
388.87
403.87
393.88
361.79
314.26
258.77
200.93
143.56
87.95
35.73
-9.91
-44.95
-66.48
-74.67
-73.12
-67.52
-63.15
-62.87
-66.49
-71.63
-75.49
-76.44
-74.54
-71.08
-67.59
-64.91
-62.97
-61.05
-58.37
-54.63
-50.17
-45.76
-42.19
-39.83
-38.54
-37.76
-36.77
-35.05
-32.53
-29.52
-26.58
-24.23
-22.71
-21.87
-21.23
-20.26
-18.60
-16.22
-13.41
-10.61
-8.19
-6.34
-4.98
-3.93
-3.02
-2.19
-1.49
-1.01
-0.83
-0.92
-1.15
-1.43
-1.66
-1.82
-1.90
-1.88
-1.77
-1.57
-1.36
-1.24
-1.29
-1.55
-1.96
-2.41
-2.73
-2.80
-2.56
-2.04
-1.32
-0.54
0.18
0.70
0.97
1.02
0.93
0.81
0.75
0.80
0.94
1.16
1.44
1.76
2.04
2.17
2.06
1.64
0.97
0.17
-0.58
-1.21
-1.68
-2.08
-2.46
-2.85
-3.20
-3.48
-3.66
-3.76
-3.79
-3.77
-3.66
-3.49
-3.31
-3.27
-3.49
-4.00
-4.72
-5.42
-5.83
-5.79
-5.27
-4.50
-3.85
-3.66
-4.15
-5.26
-6.71
-8.09
-8.99
-9.18
-8.65
-7.61
-6.34
-5.14
-4.19
-3.49
-2.91
-2.21
-1.18
0.29
2.13
4.11
5.92
7.25
7.95
8.01
7.56
6.83
6.04
5.41
5.11
5.24
5.84
6.86
8.18
9.66
11.13
12.40
13.32
13.79
13.78
13.41
12.85
12.28
11.77
11.23
10.49
9.37
7.77
5.76
3.48
1.10
-1.26
-3.54
-5.70
-7.68
-9.45
-10.93
-12.10
-12.93
-13.41
-13.53
-13.33
-12.93
-12.52
-12.35
-12.61
-13.32
-14.30
-15.21
-15.68
-15.42
-14.35
-12.65
-10.60
-8.42
-6.15
-3.54
-0.16
4.43
10.47
17.85
26.14
34.69
42.77
49.75
55.22
59.05
61.36
62.39
62.38
61.39
59.18
55.30
49.17
40.31
28.56
14.13
-2.25
-19.43
-35.90
-50.04
-60.52
-66.52
-68.02
-65.75
-60.85
-54.58
-47.94
-41.53
-35.66
-30.38
-25.67
-21.44
-17.54
-13.79
-10.09
-6.46
-3.04
-0.08
2.24
3.85
4.79
5.19
5.20
4.96
4.62
4.29
4.04
3.85
3.57
2.98
1.94
0.53
-0.99
-2.26
-2.99
-3.13
-2.88
-2.57
-2.45
-2.54
-2.69
-2.60
-2.11
-1.25
-0.21
0.72
1.35
1.60
1.52
1.24
0.87
0.51
0.23
0.08
0.11
0.40
0.96
1.78
2.75
3.77
4.70
5.43
5.93
6.21
6.35
6.49
6.74
7.19
7.80
8.44
8.92
9.09
8.88
8.34
7.66
7.03
6.59
6.35
6.23
6.06
5.74
5.22
4.49
3.59
2.58
1.49
0.38
-0.67
-1.58
-2.27
-2.65
-2.68
-2.40
-1.92
-1.44
-1.19
-1.26
-1.60
-2.02
-2.28
-2.23
-1.88
-1.35
-0.84
-0.50
-0.37
-0.44
-0.65
-0.97
-1.39
-1.81
-2.16
-2.36
-2.37
-2.31
-2.33
-2.62
-3.25
-4.12
-5.07
-5.89
-6.42
-6.60
-6.44
-6.02
-5.41
-4.70
-3.95
-3.24
-2.64
-2.15
-1.78
-1.49
-1.25
-1.03
-0.80
-0.55
-0.24
0.15
0.59
0.98
1.22
1.22
1.00
0.68
0.43
0.37
0.56
0.95
1.42
1.88
2.27
2.62
2.91
3.16
3.28
3.21
2.91
2.39
1.78
1.18
0.67
0.29
0.01
-0.20
-0.37
-0.44
-0.42
-0.28
-0.07
0.17
0.41
0.67
1.00
1.41
1.89
2.36
2.75
3.01
3.16
3.24
3.28
3.25
3.11
2.84
2.43
1.95
1.44
0.96
0.54
0.18
-0.11
-0.32
-0.43
-0.43
-0.31
-0.06
0.30
0.77
1.30
1.84
2.35
2.76
3.01
3.05
2.81
2.31
1.65
1.01
0.61
0.60
1.01
1.74
2.60
3.45
4.21
4.87
5.43
5.87
6.11
6.11
5.85
5.32
4.57
3.61
2.46
1.16
-0.22
-1.59
-2.86
-4.01
-5.08
-6.14
-7.31
-8.64
-10.13
-11.68
-13.17
-14.43
-15.33
-15.81
-15.86
-15.54
-14.96
-14.21
-13.40
-12.62
-11.91
-11.30
-10.74
-10.20
-9.63
-9.02
-8.36
-7.57
-6.52
-5.05
-3.03
-0.50
2.36
5.22
7.75
9.72
11.10
12.05
12.79
13.52
14.29
15.02
15.54
15.76
15.68
15.43
15.19
15.07
15.00
14.81
14.29
13.37
12.15
10.88
9.80
9.01
8.40
7.74
6.80
5.48
3.86
2.10
0.41
-1.06
-2.20
-3.01
-3.51
-3.75
-3.85
-3.91
-4.05
-4.29
-4.62
-4.99
-5.37
-5.86
-6.60
-7.67
-9.00
-10.32
-11.27
-11.56
-11.19
-10.45
-9.86
-9.83
-10.50
-11.63
-12.70
-13.23
-13.04
-12.36
-11.74
-11.79
-12.82
-14.68
-16.79
-18.45
-19.09
-18.60
-17.29
-15.68
-14.24
-13.22
-12.66
-12.58
-13.03
-13.82
-14.11
-12.17
-5.80
6.77
25.72
49.11
73.31
94.38
109.52
118.08
121.14
120.27
116.26
108.61
96.19
78.54
56.93
34.27
14.04
-1.23
-11.01
-16.70
-20.60
-24.64
-29.45
-34.36
-38.11
-39.75
-39.23
-37.40
-35.46
-34.38
-34.45
-35.28
-36.09
-36.16
-35.18
-33.35
-31.16
-29.19
-27.78
-26.89
-26.20
-25.29
-23.81
-21.67
-18.96
-15.96
-12.96
-10.17
-7.69
-5.52
-3.60
-1.92
-0.57
0.30
0.57
0.21
-0.59
-1.53
-2.25
-2.52
-2.39
-2.13
-2.15
-2.73
-3.88
-5.29
-6.49
-7.02
-6.69
-5.63
-4.23
-2.95
-2.07
-1.66
-1.62
-1.79
-2.10
-2.52
-3.05
-3.55
-3.83
-3.72
-3.16
-2.32
-1.49
-0.94
-0.75
-0.79
-0.80
-0.57
-0.12
0.36
0.61
0.54
0.35
0.46
1.33
3.24
6.08
9.41
12.58
14.93
15.98
15.52
13.61
10.47
6.50
2.12
-2.18
-5.96
-8.91
-10.85
-11.78
-11.84
-11.22
-10.13
-8.80
-7.39
-6.06
-4.89
-3.95
-3.21
-2.65
-2.19
-1.80
-1.46
-1.21
-1.08
-1.03
-0.98
-0.84
-0.52
-0.02
0.56
1.12
1.60
2.08
2.70
3.59
4.77
6.08
7.22
7.88
7.89
7.32
6.42
5.49
4.78
4.35
4.07
3.82
3.49
3.14
2.89
2.86
3.00
3.17
3.13
2.73
2.01
1.16
0.45
0.03
-0.14
-0.25
-0.53
-1.08
-1.84
-2.60
-3.18
-3.49
-3.59
-3.59
-3.60
-3.63
-3.63
-3.57
-3.43
-3.26
-3.09
-2.93
-2.70
-2.33
-1.74
-0.95
-0.07
0.71
1.24
1.38
1.17
0.72
0.21
-0.18
-0.39
-0.47
-0.58
-0.87
-1.42
-2.18
-3.00
-3.73
-4.26
-4.64
-5.01
-5.60
-6.53
-7.78
-9.16
-10.39
-11.25
-11.74
-12.10
-12.70
-13.87
-15.72
-18.06
-20.47
-22.54
-24.09
-25.28
-26.55
-28.44
-31.27
-35.01
-39.17
-43.06
-46.08
-48.10
-49.59
-51.51
-54.93
-60.48
-68.05
-76.75
-85.31
-92.59
-98.13
-102.32
-106.24
-111.26
-118.56
-128.88
-142.30
-158.03
-174.22
-188.11
-196.38
-196.08
-185.59
-165.21
-136.93
-103.51
-67.18
-28.66
12.72
57.91
106.50
155.63
200.24
234.72
255.16
261.06
255.47
243.53
230.32
218.90
209.67
201.11
191.30
179.12
164.76
149.32
134.11
120.09
107.82
97.54
89.21
82.34
75.82
68.13
57.86
44.38
28.33
11.46
-4.03
-16.39
-24.79
-29.44
-31.10
-30.60
-28.53
-25.32
-21.53
-17.98
-15.61
-15.02
-16.11
-18.10
-19.83
-20.30
-19.15
-16.73
-13.90
-11.60
-10.40
-10.33
-10.88
-11.32
-11.04
-9.77
-7.74
-5.47
-3.62
-2.70
-2.92
-4.16
-6.08
-8.23
-10.19
-11.70
-12.59
-12.88
-12.64
-12.03
-11.20
-10.27
-9.30
-8.30
-7.22
-6.09
-5.00
-4.09
-3.51
-3.32
-3.44
-3.60
-3.49
-2.78
-1.32
0.75
3.05
5.08
6.33
6.53
5.69
4.09
2.14
0.26
-1.24
-2.13
-2.24
-1.50
-0.01
1.95
3.94
5.66
7.13
8.86
11.60
15.91
21.76
28.39
34.51
38.83
40.51
39.34
35.66
30.05
23.09
15.31
7.31
-0.22
-6.48
-10.85
-13.07
-13.38
-12.36
-10.78
-9.28
-8.23
-7.74
-7.69
-7.89
-8.17
-8.38
-8.43
-8.22
-7.76
-7.10
-6.37
-5.76
-5.40
-5.35
-5.60
-6.04
-6.56
-7.08
-7.50
-7.77
-7.89
-7.88
-7.82
-7.75
-7.70
-7.62
-7.44
-7.11
-6.63
-6.02
-5.38
-4.76
-4.21
-3.73
-3.28
-2.76
-2.10
-1.21
-0.17
0.88
1.67
1.91
1.45
0.29
-1.33
-3.06
-4.54
-5.53
-6.01
-6.12
-6.15
-6.38
-6.93
-7.74
-8.53
-8.89
-8.43
-6.93
-4.38
-1.00
2.80
6.59
9.94
12.54
14.24
15.09
15.26
15.02
14.62
14.19
13.73
13.11
12.19
10.89
9.21
7.27
5.25
3.30
1.50
-0.16
-1.76
-3.36
-4.99
-6.55
-7.91
-8.86
-9.31
-9.27
-8.90
-8.40
-7.97
-7.65
-7.42
-7.23
-7.10
-7.16
-7.56
-8.36
-9.46
-10.63
-11.57
-12.10
-12.21
-12.01
-11.67
-11.29
-10.87
-10.31
-9.56
-8.59
-7.47
-6.28
-5.05
-3.73
-2.27
-0.65
1.01
2.48
3.53
4.03
3.97
3.53
2.94
2.39
1.94
1.56
1.14
0.61
-0.03
-0.73
-1.42
-2.10
-2.75
-3.33
-3.77
-3.95
-3.84
-3.59
-3.44
-3.66
-4.38
-5.47
-6.66
-7.68
-8.51
-9.41
-10.84
-13.14
-16.28
-19.74
-22.72
-24.45
-24.60
-23.48
-21.99
-21.22
-22.01
-24.54
-28.25
-32.05
-34.83
-36.01
-35.69
-34.69
-34.08
-34.74
-37.21
-41.62
-47.85
-55.39
-63.02
-68.51
-68.98
-61.73
-45.48
-20.97
9.28
41.99
74.32
104.41
131.13
153.31
169.24
176.94
175.02
163.68
144.89
121.79
97.60
74.67
54.31
37.07
23.35
13.71
8.83
9.10
14.21
22.77
32.02
38.25
37.68
27.78
8.53
-17.25
-44.62
-68.29
-84.65
-93.02
-95.41
-95.19
-95.28
-96.88
-99.38
-101.19
-100.99
-98.50
-94.70
-91.23
-89.73
-91.16
-95.28
-100.35
-103.22
-99.90
-86.62
-61.00
-23.10
24.25
75.92
125.88
168.78
201.48
223.65
237.30
245.38
249.99
251.17
246.71
233.18
207.62
169.26
120.37
66.00
12.60
-33.62
-68.22
-89.34
-97.65
-95.86
-87.73
-77.12
-67.25
-60.28
-57.17
-57.78
-61.08
-65.45
-68.98
-69.89
-67.05
-60.32
-50.59
-39.47
-28.75
-19.79
-13.18
-8.68
-5.61
-3.33
-1.59
-0.61
-0.81
-2.40
-5.12
-8.21
-10.68
-11.68
-10.88
-8.55
-5.33
-2.00
0.83
2.87
4.11
4.70
4.86
4.75
4.46
4.03
3.46
2.71
1.80
0.71
-0.53
-1.84
-3.14
-4.29
-5.17
-5.74
-5.99
-5.98
-5.80
-5.56
-5.40
-5.47
-5.88
-6.64
-7.61
-8.56
-9.26
-9.61
-9.70
-9.76
-10.06
-10.67
-11.50
-12.29
-12.69
-12.44
-11.40
-9.52
-6.82
-3.47
0.23
3.79
6.61
8.09
7.86
5.92
2.67
-1.23
-5.02
-8.10
-10.14
-11.15
-11.38
-11.16
-10.80
-10.52
-10.43
-10.65
-11.29
-12.43
-14.08
-16.12
-18.31
-20.39
-22.17
-23.60
-24.75
-25.70
-26.49
-27.12
-27.54
-27.74
-27.68
-27.32
-26.56
-25.24
-23.15
-20.03
-15.49
-9.17
-0.84
9.31
20.56
31.70
41.29
48.14
51.69
52.05
49.91
46.14
41.50
36.59
31.86
27.76
24.67
22.88
22.35
22.74
23.51
24.16
24.42
24.35
24.21
24.23
24.46
24.65
24.40
23.41
21.61
19.24
16.70
14.34
12.32
10.58
8.92
7.12
5.06
2.69
0.02
-2.87
-5.86
-8.73
-11.20
-13.03
-14.04
-14.27
-13.91
-13.23
-12.49
-11.90
-11.61
-11.76
-12.46
-13.75
-15.60
-17.82
-20.19
-22.46
-24.52
-26.32
-27.90
-29.31
-30.54
-31.54
-32.21
-32.44
-32.13
-31.20
-29.56
-27.07
-23.62
-19.11
-13.62
-7.41
-0.97
5.06
10.07
13.58
15.32
15.32
13.82
11.20
7.93
4.51
1.43
-0.93
-2.35
-2.85
-2.68
-2.21
-1.79
-1.58
-1.49
-1.22
-0.38
1.35
4.03
7.52
11.53
15.81
20.29
25.06
30.22
35.69
41.10
45.91
49.59
51.84
52.57
51.75
49.18
44.58
37.81
29.19
19.67
10.63
3.41
-1.28
-3.54
-4.20
-4.29
-4.63
-5.55
-6.99
-8.73
-10.54
-12.24
-13.68
-14.62
-14.85
-14.27
-13.00
-11.26
-9.39
-7.60
-5.95
-4.37
-2.75
-1.05
0.69
2.34
3.80
5.06
6.17
7.26
8.47
9.83
11.24
12.38
12.79
11.98
9.61
5.59
0.22
-6.01
-12.45
-18.47
-23.60
-27.49
-29.95
-30.96
-30.68
-29.47
-27.88
-26.43
-25.50
-25.18
-25.27
-25.43
-25.36
-24.96
-24.30
-23.60
-23.07
-22.83
-22.87
-23.16
-23.69
-24.57
-25.96
-28.08
-31.02
-34.68
-38.76
-42.81
-46.40
-49.28
-51.43
-53.11
-54.74
-56.68
-59.13
-61.99
-64.87
-67.27
-68.76
-69.15
-68.69
-68.00
-67.93
-69.09
-71.39
-73.75
-74.17
-70.09
-58.99
-38.97
-9.29
29.14
73.58
119.63
162.00
195.83
218.15
228.78
230.11
225.71
218.52
209.69
198.55
183.76
164.70
142.19
118.04
94.04
71.11
49.16
27.84
7.26
-11.62
-27.35
-38.73
-45.48
-48.32
-48.52
-47.39
-45.77
-43.96
-41.90
-39.29
-35.89
-31.67
-26.84
-21.84
-17.22
-13.36
-10.35
-7.98
-5.94
-4.19
-3.04
-3.07
-4.73
-7.98
-12.16
-16.21
-19.06
-20.11
-19.36
-17.27
-14.47
-11.47
-8.56
-5.94
-3.89
-2.71
-2.68
-3.84
-5.92
-8.40
-10.71
-12.46
-13.56
-14.23
-14.80
-15.49
-16.26
-16.86
-16.95
-16.31
-14.97
-13.19
-11.33
-9.66
-8.24
-6.98
-5.66
-4.20
-2.61
-1.05
0.31
1.41
2.30
3.12
3.98
4.88
5.67
6.18
6.26
5.86
5.03
3.85
2.39
0.65
-1.33
-3.48
-5.62
-7.50
-8.91
-9.80
-10.26
-10.46
-10.55
-10.55
-10.34
-9.78
-8.84
-7.62
-6.36
-5.35
-4.79
-4.68
-4.89
-5.24
-5.56
-5.74
-5.77
-5.68
-5.50
-5.23
-4.91
-4.54
-4.16
-3.75
-3.29
-2.75
-2.10
-1.37
-0.61
0.08
0.65
1.09
1.38
1.54
1.56
1.45
1.26
1.09
1.02
1.07
1.19
1.30
1.29
1.11
0.79
0.38
-0.07
-0.48
-0.78
-0.90
-0.79
-0.45
0.04
0.56
1.03
1.43
1.80
2.17
2.53
2.82
2.95
2.92
2.80
2.69
2.70
2.80
2.88
2.79
2.39
1.67
0.75
-0.15
-0.82
-1.13
-1.10
-0.89
-0.67
-0.58
-0.67
-0.85
-1.05
-1.18
-1.20
-1.15
-1.05
-0.96
-0.92
-1.01
-1.27
-1.75
-2.40
-3.08
-3.64
-3.92
-3.86
-3.44
-2.73
-1.79
-0.72
0.32
1.17
1.67
1.77
1.53
1.15
0.88
0.90
1.27
1.90
2.63
3.31
3.81
4.05
3.94
3.41
2.46
1.23
-0.02
-0.94
-1.28
-0.95
-0.10
0.98
1.95
2.59
2.78
2.55
1.93
0.98
-0.20
-1.50
-2.72
-3.66
-4.14
-4.12
-3.68
-3.01
-2.33
-1.81
-1.54
-1.51
-1.63
-1.89
-2.25
-2.73
-3.32
-3.93
-4.39
-4.49
-4.11
-3.23
-2.00
-0.62
0.65
1.61
2.15
2.25
1.93
1.29
0.42
-0.61
-1.69
-2.73
-3.65
-4.41
-5.00
-5.49
-5.99
-6.56
-7.23
-7.88
-8.36
-8.57
-8.48
-8.19
-7.84
-7.48
-7.02
-6.29
-5.17
-3.70
-2.07
-0.58
0.61
1.53
2.42
3.55
5.06
6.78
8.37
9.45
9.82
9.54
8.89
8.14
7.45
6.83
6.20
5.49
4.69
3.84
2.99
2.17
1.42
0.79
0.37
0.20
0.24
0.40
0.56
0.72
0.99
1.57
2.67
4.44
6.96
10.23
14.19
18.61
23.05
26.82
29.17
29.52
27.65
23.83
18.68
12.99
7.42
2.46
-1.67
-4.88
-7.17
-8.59
-9.24
-9.27
-8.88
-8.27
-7.59
-6.90
-6.17
-5.37
-4.54
-3.81
-3.42
-3.61
-4.51
-6.02
-7.80
-9.35
-10.20
-10.05
-8.88
-6.93
-4.60
-2.39
-0.69
0.25
0.46
0.21
-0.07
0.04
0.78
2.02
3.36
4.25
4.22
3.08
0.96
-1.79
-4.69
-7.35
-9.50
-10.97
-11.71
-11.73
-11.12
-10.06
-8.79
-7.55
-6.54
-5.82
-5.32
-4.93
-4.55
-4.17
-3.86
-3.71
-3.79
-4.04
-4.35
-4.57
-4.63
-4.55
-4.41
-4.32
-4.34
-4.52
-4.88
-5.47
-6.30
-7.28
-8.16
-8.61
-8.29
-7.02
-4.86
-2.18
0.57
2.98
4.85
6.23
7.33
8.28
9.14
9.79
10.06
9.89
9.34
8.62
7.95
7.51
7.38
7.62
8.29
9.46
11.09
12.98
14.69
15.71
15.68
14.51
12.48
10.11
7.87
6.01
4.44
2.83
0.83
-1.78
-4.91
-8.25
-11.38
-13.94
-15.76
-16.85
-17.30
-17.27
-16.86
-16.19
-15.36
-14.51
-13.71
-12.95
-12.12
-11.08
-9.73
-8.03
-6.06
-3.90
-1.62
0.73
3.07
5.26
7.16
8.67
9.76
10.51
11.02
11.35
11.53
11.53
11.37
11.05
10.62
10.13
9.61
9.07
8.54
8.01
7.50
6.98
6.46
6.00
5.69
5.61
5.77
6.09
6.45
6.73
6.90
7.00
7.09
7.21
7.35
7.40
7.23
6.72
5.79
4.47
2.89
1.26
-0.13
-1.09
-1.56
-1.65
-1.63
-1.80
-2.35
-3.30
-4.47
-5.62
-6.53
-7.06
-7.23
-7.16
-7.00
-6.86
-6.75
-6.64
-6.47
-6.20
-5.86
-5.55
-5.36
-5.34
-5.48
-5.66
-5.77
-5.71
-5.44
-5.01
-4.49
-3.99
-3.57
-3.26
-3.08
-3.02
-3.06
-3.15
-3.20
-3.10
-2.73
-2.03
-1.04
0.12
1.25
2.18
2.82
3.15
3.15
2.82
2.09
0.91
-0.70
-2.64
-4.71
-6.67
-8.28
-9.37
-9.81
-9.56
-8.64
-7.15
-5.27
-3.22
-1.24
0.50
1.87
2.84
3.43
3.70
3.78
3.78
3.79
3.88
4.01
4.13
4.17
4.12
4.01
3.91
3.86
3.88
3.92
3.91
3.80
3.62
3.46
3.48
3.84
4.60
5.72
7.00
8.17
8.99
9.28
8.96
8.07
6.72
5.11
3.43
1.91
0.74
0.06
-0.10
0.21
0.80
1.46
1.97
2.19
2.11
1.80
1.37
0.91
0.47
-0.00
-0.51
-1.03
-1.48
-1.75
-1.80
-1.65
-1.42
-1.19
-1.05
-1.00
-0.96
-0.91
-0.81
-0.71
-0.64
-0.64
-0.75
-0.99
-1.37
-1.88
-2.46
-3.02
-3.44
-3.61
-3.50
-3.17
-2.74
-2.33
-2.01
-1.73
-1.41
-0.94
-0.35
0.30
0.87
1.25
1.42
1.46
1.43
1.42
1.43
1.41
1.35
1.28
1.27
1.38
1.64
1.97
2.23
2.32
2.19
1.86
1.46
1.09
0.81
0.63
0.50
0.37
0.24
0.15
0.13
0.22
0.39
0.57
0.65
0.61
0.48
0.34
0.31
0.40
0.54
0.56
0.29
-0.33
-1.21
-2.20
-3.13
-3.90
-4.49
-4.91
-5.15
-5.14
-4.86
-4.34
-3.73
-3.19
-2.84
-2.69
-2.64
-2.60
-2.48
-2.32
-2.15
-2.03
-1.92
-1.69
-1.24
-0.54
0.31
1.12
1.67
1.82
1.55
1.00
0.34
-0.27
-0.74
-1.06
-1.27
-1.38
-1.39
-1.30
-1.13
-0.89
-0.68
-0.54
-0.52
-0.58
-0.65
-0.64
-0.54
-0.36
-0.24
-0.33
-0.74
-1.45
-2.33
-3.14
-3.64
-3.66
-3.10
-1.98
-0.37
1.63
3.86
6.11
8.14
9.74
10.72
10.96
10.47
9.29
7.58
5.56
3.51
1.73
0.43
-0.30
-0.60
-0.69
-0.82
-1.11
-1.58
-2.16
-2.79
-3.45
-4.14
-4.81
-5.34
-5.60
-5.51
-5.15
-4.70
-4.33
-4.16
-4.12
-4.04
-3.81
-3.41
-2.94
-2.59
-2.45
-2.51
-2.68
-2.82
-2.84
-2.70
-2.39
-1.92
-1.32
-0.73
-0.34
-0.41
-1.09
-2.30
-3.67
-4.59
-4.46
-2.91
0.01
3.81
7.77
11.11
13.32
14.19
13.86
12.65
10.96
9.11
7.30
5.62
4.09
2.76
1.70
0.95
0.47
0.09
-0.42
-1.25
-2.41
-3.68
-4.72
-5.22
-5.05
-4.35
-3.43
-2.65
-2.26
-2.29
-2.60
-2.93
-3.06
-2.85
-2.33
-1.64
-0.96
-0.40
0.02
0.38
0.79
1.26
1.71
2.00
2.02
1.73
1.23
0.69
0.21
-0.12
-0.32
-0.41
-0.44
-0.40
-0.29
-0.16
-0.06
-0.11
-0.37
-0.90
-1.68
-2.56
-3.41
-4.05
-4.42
-4.54
-4.54
-4.55
-4.68
-4.92
-5.20
-5.41
-5.47
-5.36
-5.13
-4.83
-4.49
-4.12
-3.71
-3.27
-2.86
-2.55
-2.38
-2.32
-2.28
-2.16
-1.90
-1.48
-0.94
-0.28
0.45
1.22
1.97
2.60
3.04
3.20
3.01
2.43
1.42
0.04
-1.54
-2.98
-3.82
-3.71
-2.52
-0.47
1.94
4.10
5.56
6.10
5.82
4.98
3.85
2.65
1.50
0.45
-0.46
-1.18
-1.63
-1.77
-1.64
-1.36
-1.11
-1.05
-1.23
-1.53
-1.74
-1.64
-1.14
-0.37
0.46
1.14
1.62
2.01
2.49
3.14
3.92
4.65
5.17
5.40
5.43
5.42
5.56
5.95
6.65
7.66
8.93
10.36
11.79
12.97
13.65
13.64
12.89
11.47
9.60
7.54
5.60
4.03
2.99
2.50
2.43
2.56
2.59
2.29
1.58
0.49
-0.76
-1.93
-2.84
-3.41
-3.70
-3.85
-4.02
-4.27
-4.58
-4.87
-5.05
-5.09
-5.01
-4.85
-4.65
-4.39
-4.09
-3.79
-3.57
-3.57
-3.87
-4.46
-5.19
-5.89
-6.37
-6.59
-6.59
-6.51
-6.48
-6.56
-6.72
-6.87
-6.91
-6.82
-6.63
-6.39
-6.17
-5.97
-5.77
-5.51
-5.14
-4.68
-4.18
-3.79
-3.65
-3.86
-4.43
-5.23
-6.06
-6.72
-7.09
-7.17
-7.06
-6.86
-6.64
-6.41
-6.14
-5.79
-5.38
-4.94
-4.48
-3.96
-3.30
-2.40
-1.19
0.34
2.10
3.97
5.78
7.38
8.71
9.77
10.58
11.20
11.69
12.03
12.19
12.16
11.92
11.49
10.90
10.17
9.33
8.40
7.43
6.53
5.85
5.51
5.52
5.80
6.17
6.43
6.39
6.03
5.40
4.66
3.93
3.29
2.72
2.15
1.55
0.95
0.43
0.05
-0.19
-0.38
-0.60
-0.87
-1.16
-1.36
-1.41
-1.34
-1.26
-1.25
-1.37
-1.54
-1.65
-1.60
-1.41
-1.17
-0.99
-0.96
-1.08
-1.29
-1.57
-1.87
-2.17
-2.45
-2.72
-2.96
-3.21
-3.46
-3.70
-3.86
-3.83
-3.51
-2.88
-2.03
-1.13
-0.41
-0.04
-0.11
-0.60
-1.44
-2.45
-3.48
-4.34
-4.92
-5.19
-5.25
-5.27
-5.48
-6.06
-7.05
-8.33
-9.53
-10.18
-9.75
-7.92
-4.71
-0.53
3.86
7.64
10.19
11.27
11.07
9.98
8.43
6.73
5.04
3.48
2.18
1.29
0.90
0.95
1.23
1.45
1.40
0.99
0.27
-0.57
-1.33
-1.84
-1.99
-1.77
-1.24
-0.57
0.05
0.45
0.56
0.41
0.08
-0.30
-0.63
-0.86
-0.93
-0.83
-0.53
-0.10
0.40
0.85
1.15
1.29
1.31
1.29
1.36
1.55
1.87
2.23
2.55
2.78
2.92
2.99
3.02
3.06
3.10
3.16
3.22
3.23
3.14
2.91
2.52
1.99
1.41
0.91
0.62
0.64
0.96
1.47
1.94
2.11
1.82
1.06
-0.02
-1.15
-2.05
-2.53
-2.55
-2.23
-1.74
-1.27
-1.05
-1.20
-1.78
-2.68
-3.61
-4.20
-4.14
-3.33
-1.95
-0.41
0.86
1.56
1.61
1.18
0.51
-0.21
-0.87
-1.48
-2.05
-2.51
-2.72
-2.55
-2.01
-1.24
-0.55
-0.24
-0.53
-1.39
-2.56
-3.71
-4.55
-4.99
-5.16
-5.29
-5.59
-6.12
-6.77
-7.38
-7.81
-8.09
-8.35
-8.82
-9.64
-10.81
-12.14
-13.33
-14.17
-14.67
-15.05
-15.68
-16.90
-18.79
-21.15
-23.61
-25.75
-27.34
-28.40
-29.11
-29.75
-30.55
-31.72
-33.46
-35.80
-38.48
-40.78
-41.52
-39.44
-33.68
-24.30
-12.46
-0.18
10.30
17.28
20.03
18.93
15.15
10.08
4.89
0.25
-3.64
-6.73
-8.95
-10.26
-10.82
-11.10
-11.39
-11.19
-8.71
-1.22
13.74
36.84
65.93
96.36
122.65
140.51
148.44
147.91
142.29
135.31
129.99
128.27
131.09
138.21
147.75
155.95
157.72
148.40
125.98
92.37
53.19
15.69
-14.24
-34.19
-45.58
-52.13
-57.51
-63.58
-70.04
-75.51
-78.98
-80.72
-82.01
-84.17
-87.49
-91.01
-92.98
-92.00
-87.83
-81.65
-75.43
-71.05
-69.42
-70.17
-71.91
-72.83
-71.24
-65.99
-56.69
-43.77
-28.43
-12.45
2.27
14.24
22.83
28.32
31.63
33.70
35.06
35.75
35.55
34.37
32.48
30.40
28.58
27.13
25.80
24.12
21.67
18.21
13.76
8.59
3.11
-2.17
-6.77
-10.38
-12.99
-14.86
-16.35
-17.76
-19.07
-20.04
-20.34
-19.79
-18.50
-16.75
-14.86
-13.00
-11.16
-9.24
-7.23
-5.25
-3.52
-2.24
-1.47
-1.13
-1.05
-1.08
-1.12
-1.10
-0.97
-0.63
-0.03
0.84
1.87
2.89
3.73
4.29
4.55
4.62
4.57
4.48
4.35
4.15
3.81
3.34
2.77
2.20
1.74
1.42
1.22
1.03
0.76
0.38
-0.04
-0.39
-0.57
-0.57
-0.48
-0.44
-0.54
-0.77
-1.04
-1.20
-1.18
-0.98
-0.71
-0.47
-0.31
-0.18
0.02
0.44
1.12
2.04
3.05
4.03
4.85
5.46
5.86
6.04
6.00
5.74
5.33
4.90
4.62
4.60
4.81
5.07
5.11
4.70
3.79
2.52
1.14
-0.08
-1.01
-1.64
-2.09
-2.47
-2.86
-3.31
-3.81
-4.39
-5.05
-5.70
-6.26
-6.56
-6.53
-6.15
-5.52
-4.78
-4.06
-3.43
-2.92
-2.54
-2.30
-2.17
-2.14
-2.12
-2.04
-1.87
-1.62
-1.35
-1.16
-1.15
-1.33
-1.64
-1.98
-2.22
-2.27
-2.09
-1.74
-1.28
-0.79
-0.33
0.08
0.39
0.56
0.54
0.34
0.04
-0.26
-0.43
-0.46
-0.37
-0.28
-0.26
-0.33
-0.44
-0.54
-0.58
-0.54
-0.46
-0.37
-0.29
-0.23
-0.15
-0.06
0.00
-0.01
-0.15
-0.43
-0.80
-1.17
-1.45
-1.60
-1.64
-1.67
-1.81
-2.14
-2.66
-3.30
-3.97
-4.57
-5.02
-5.30
-5.46
-5.57
-5.72
-5.98
-6.32
-6.69
-6.95
-7.04
-6.96
-6.74
-6.47
-6.22
-6.01
-5.83
-5.67
-5.55
-5.49
-5.53
-5.67
-5.92
-6.25
-6.64
-7.03
-7.37
-7.59
-7.62
-7.49
-7.24
-6.95
-6.70
-6.47
-6.15
-5.59
-4.65
-3.25
-1.45
0.60
2.68
4.68
6.56
8.40
10.29
12.26
14.15
15.68
16.56
16.62
15.92
14.70
13.27
11.86
10.53
9.23
7.89
6.59
5.52
4.90
4.85
5.26
5.86
6.32
6.42
6.15
5.65
5.12
4.66
4.33
4.07
3.89
3.81
3.87
4.08
4.40
4.74
5.02
5.22
5.41
5.63
5.90
6.19
6.36
6.34
6.07
5.61
5.04
4.49
4.03
3.63
3.25
2.78
2.17
1.43
0.60
-0.22
-0.98
-1.62
-2.15
-2.52
-2.69
-2.66
-2.44
-2.08
-1.67
-1.29
-0.94
-0.63
-0.33
-0.07
0.12
0.22
0.24
0.21
0.13
-0.01
-0.29
-0.73
-1.30
-1.89
-2.35
-2.61
-2.64
-2.53
-2.34
-2.15
-1.96
-1.78
-1.56
-1.27
-0.86
-0.27
0.49
1.35
2.13
2.67
2.87
2.76
2.51
2.34
2.44
2.90
3.67
4.63
5.62
6.46
7.06
7.42
7.58
7.65
7.69
7.72
7.70
7.63
7.59
7.70
8.09
8.81
9.73
10.63
11.30
11.62
11.63
11.55
11.60
11.97
12.69
13.67
14.67
15.35
15.32
14.27
12.09
8.94
5.27
1.72
-1.14
-2.98
-3.83
-4.02
-4.03
-4.24
-4.82
-5.67
-6.55
-7.14
-7.21
-6.69
-5.71
-4.51
-3.40
-2.67
-2.52
-3.00
-4.03
-5.46
-7.02
-8.43
-9.45
-9.93
-9.87
-9.38
-8.65
-7.84
-7.00
-6.11
-5.05
-3.73
-2.14
-0.38
1.39
2.92
3.89
3.99
3.03
0.99
-1.90
-5.18
-8.30
-10.78
-12.37
-13.05
-12.97
-12.34
-11.32
-10.06
-8.70
-7.42
-6.39
-5.66
-5.13
-4.56
-3.71
-2.50
-1.04
0.44
1.68
2.55
3.08
3.36
3.54
3.68
3.78
3.78
3.60
3.15
2.38
1.30
-0.03
-1.44
-2.74
-3.82
-4.66
-5.38
-6.14
-7.01
-7.91
-8.67
-9.11
-9.12
-8.75
-8.18
-7.63
-7.27
-7.14
-7.18
-7.20
-7.05
-6.67
-6.11
-5.52
-5.07
-4.81
-4.67
-4.47
-4.06
-3.37
-2.47
-1.55
-0.77
-0.26
-0.02
-0.06
-0.35
-0.84
-1.46
-2.10
-2.64
-3.00
-3.22
-3.36
-3.49
-3.61
-3.63
-3.45
-3.02
-2.37
-1.63
-0.95
-0.44
-0.12
0.07
0.20
0.35
0.48
0.56
0.51
0.32
0.02
-0.30
-0.54
-0.61
-0.49
-0.20
0.26
0.88
1.67
2.56
3.39
3.98
4.18
3.95
3.42
2.76
2.17
1.70
1.33
0.99
0.63
0.31
0.11
0.15
0.51
1.17
2.08
3.11
4.09
4.89
5.44
5.71
5.81
5.83
5.87
5.95
6.05
6.13
6.17
6.18
6.16
6.06
5.79
5.28
4.56
3.73
2.91
2.15
1.37
0.44
-0.73
-2.05
-3.25
-4.04
-4.22
-3.84
-3.15
-2.45
-1.93
-1.61
-1.37
-1.08
-0.71
-0.33
-0.05
0.04
-0.01
-0.11
-0.15
-0.08
0.04
0.11
0.01
-0.29
-0.72
-1.13
-1.39
-1.44
-1.30
-1.09
-0.90
-0.79
-0.80
-0.88
-1.00
-1.09
-1.14
-1.15
-1.18
-1.30
-1.55
-1.88
-2.15
-2.21
-1.95
-1.41
-0.73
-0.13
0.25
0.38
0.35
0.29
0.29
0.40
0.60
0.85
1.10
1.32
1.45
1.44
1.27
0.95
0.56
0.18
-0.09
-0.19
-0.12
0.10
0.38
0.66
0.87
1.03
1.16
1.32
1.55
1.81
2.06
2.22
2.25
2.15
1.94
1.71
1.49
1.28
1.06
0.77
0.37
-0.14
-0.67
-1.12
-1.37
-1.40
-1.24
-1.02
-0.88
-0.98
-1.38
-2.09
-2.97
-3.86
-4.58
-4.95
-4.91
-4.48
-3.80
-3.03
-2.33
-1.84
-1.59
-1.54
-1.56
-1.56
-1.49
-1.37
-1.27
-1.25
-1.33
-1.44
-1.46
-1.27
-0.82
-0.12
0.72
1.57
2.31
2.87
3.21
3.31
3.18
2.83
2.33
1.78
1.29
1.00
0.97
1.19
1.58
2.02
2.39
2.59
2.56
2.28
1.81
1.21
0.59
0.07
-0.29
-0.48
-0.51
-0.45
-0.36
-0.28
-0.23
-0.16
-0.03
0.21
0.57
0.97
1.30
1.41
1.22
0.73
0.03
-0.76
-1.47
-2.00
-2.30
-2.38
-2.29
-2.19
-2.23
-2.59
-3.35
-4.47
-5.79
-7.07
-8.12
-8.83
-9.21
-9.36
-9.40
-9.42
-9.41
-9.30
-9.01
-8.47
-7.69
-6.77
-5.84
-5.04
-4.41
-3.88
-3.27
-2.36
-1.03
0.66
2.47
4.07
5.15
5.60
5.47
4.97
4.32
3.72
3.26
3.00
2.98
3.29
4.06
5.33
7.01
8.83
10.41
11.31
11.25
10.18
8.32
6.13
4.10
2.63
1.94
2.08
3.00
4.53
6.42
8.23
9.41
9.46
8.12
5.53
2.23
-1.06
-3.71
-5.39
-6.17
-6.37
-6.33
-6.27
-6.29
-6.39
-6.59
-6.90
-7.25
-7.48
-7.31
-6.50
-4.96
-2.78
-0.24
2.34
4.66
6.49
7.68
8.20
8.12
7.68
7.21
7.02
7.17
7.50
7.61
7.17
6.08
4.55
2.98
1.73
0.92
0.39
-0.17
-1.00
-2.10
-3.22
-3.96
-4.02
-3.30
-1.99
-0.46
0.90
1.86
2.37
2.56
2.62
2.66
2.69
2.64
2.43
2.06
1.61
1.18
0.91
0.84
0.98
1.29
1.69
2.13
2.52
2.81
2.97
3.04
3.07
3.16
3.38
3.76
4.26
4.82
5.35
5.76
5.98
5.95
5.60
4.89
3.81
2.43
0.84
-0.83
-2.49
-4.05
-5.45
-6.67
-7.69
-8.50
-9.13
-9.62
-10.04
-10.43
-10.80
-11.16
-11.45
-11.60
-11.55
-11.27
-10.81
-10.26
-9.76
-9.43
-9.30
-9.31
-9.32
-9.16
-8.65
-7.67
-6.19
-4.24
-1.94
0.49
2.79
4.72
6.13
6.99
7.41
7.55
7.55
7.50
7.37
7.09
6.63
5.99
5.23
4.49
3.90
3.57
3.62
4.08
4.90
5.95
6.96
7.65
7.78
7.28
6.20
4.74
3.12
1.54
0.14
-0.98
-1.82
-2.39
-2.76
-3.02
-3.29
-3.62
-4.01
-4.37
-4.59
-4.63
-4.49
-4.28
-4.12
-4.09
-4.22
-4.48
-4.80
-5.15
-5.54
-5.93
-6.27
-6.46
-6.35
-5.86
-5.03
-4.07
-3.24
-2.79
-2.81
-3.19
-3.66
-3.96
-3.92
-3.53
-2.97
-2.46
-2.20
-2.26
-2.58
-3.04
-3.45
-3.67
-3.57
-3.10
-2.22
-0.94
0.70
2.67
4.88
7.28
9.81
12.41
15.06
17.67
20.15
22.35
24.12
25.38
26.16
26.64
27.08
27.71
28.62
29.72
30.78
31.56
31.82
31.34
29.79
26.78
21.93
15.08
6.55
-2.83
-11.95
-19.76
-25.58
-29.19
-30.72
-30.44
-28.61
-25.54
-21.68
-17.62
-14.01
-11.30
-9.61
-8.68
-8.04
-7.32
-6.33
-5.20
-4.21
-3.67
-3.76
-4.47
-5.66
-7.08
-8.43
-9.38
-9.74
-9.44
-8.57
-7.32
-5.97
-4.69
-3.60
-2.77
-2.24
-2.03
-2.15
-2.56
-3.08
-3.53
-3.74
-3.65
-3.38
-3.11
-3.03
-3.19
-3.47
-3.69
-3.71
-3.45
-3.02
-2.56
-2.22
-2.04
-1.97
-1.90
-1.72
-1.40
-1.03
-0.74
-0.64
-0.76
-1.00
-1.25
-1.37
-1.31
-1.11
-0.84
-0.61
-0.43
-0.29
-0.18
-0.06
0.06
0.17
0.24
0.30
0.35
0.43
0.55
0.69
0.86
1.00
1.10
1.16
1.21
1.29
1.44
1.68
1.99
2.27
2.46
2.51
2.41
2.26
2.15
2.14
2.23
2.37
2.45
2.37
2.10
1.63
1.05
0.43
-0.11
-0.51
-0.79
-1.03
-1.33
-1.80
-2.43
-3.10
-3.63
-3.84
-3.64
-3.02
-2.08
-0.92
0.35
1.63
2.82
3.74
4.25
4.26
3.83
3.16
2.47
1.91
1.49
1.12
0.66
0.08
-0.57
-1.17
-1.61
-1.82
-1.82
-1.72
-1.67
-1.93
-2.79
-4.51
-7.15
-10.46
-13.85
-16.41
-17.24
-15.67
-11.56
-5.39
1.77
8.56
13.65
16.11
15.67
12.74
8.23
3.22
-1.36
-4.98
-7.45
-8.81
-9.11
-8.31
-6.41
-3.52
0.04
3.75
7.08
9.70
11.54
12.71
13.35
13.54
13.17
12.10
10.20
7.54
4.39
1.22
-1.40
-2.94
-3.10
-1.93
0.18
2.58
4.67
6.02
6.46
6.08
5.04
3.49
1.57
-0.45
-2.18
-3.09
-2.75
-1.03
1.80
5.09
8.08
10.13
10.94
10.54
9.27
7.52
5.64
3.83
2.21
0.81
-0.31
-1.13
-1.67
-1.97
-2.16
-2.35
-2.56
-2.76
-2.79
-2.52
-1.91
-1.09
-0.34
-0.00
-0.31
-1.34
-2.94
-4.82
-6.63
-8.01
-8.67
-8.44
-7.27
-5.30
-2.87
-0.45
1.55
2.82
3.32
3.19
2.71
2.11
1.58
1.22
1.03
0.98
1.01
1.02
0.92
0.64
0.14
-0.57
-1.42
-2.33
-3.17
-3.82
-4.17
-4.21
-3.99
-3.60
-3.14
-2.65
-2.14
-1.62
-1.11
-0.70
-0.44
-0.36
-0.36
-0.34
-0.20
0.07
0.42
0.73
0.94
1.02
1.00
0.91
0.72
0.44
0.09
-0.26
-0.51
-0.63
-0.62
-0.61
-0.74
-1.10
-1.68
-2.30
-2.74
-2.80
-2.45
-1.83
-1.18
-0.73
-0.60
-0.76
-1.09
-1.45
-1.72
-1.90
-1.99
-2.02
-2.03
-2.03
-2.06
-2.16
-2.34
-2.54
-2.67
-2.62
-2.40
-2.09
-1.86
-1.80
-1.92
-2.08
-2.11
-1.89
-1.43
-0.90
-0.51
-0.42
-0.65
-1.11
-1.66
-2.23
-2.85
-3.54
-4.29
-4.96
-5.29
-5.05
-4.13
-2.62
-0.77
1.09
2.73
4.05
5.06
5.83
6.36
6.63
6.62
6.33
5.84
5.24
4.63
4.02
3.36
2.57
1.64
0.62
-0.29
-0.88
-1.02
-0.70
-0.10
0.53
1.00
1.21
1.21
1.08
0.94
0.79
0.61
0.35
-0.01
-0.42
-0.80
-1.10
-1.31
-1.45
-1.53
-1.55
-1.46
-1.27
-0.99
-0.68
-0.38
-0.12
0.11
0.32
0.49
0.59
0.54
0.32
-0.04
-0.45
-0.82
-1.13
-1.43
-1.84
-2.43
-3.20
-4.02
-4.73
-5.22
-5.46
-5.49
-5.39
-5.18
-4.86
-4.44
-3.95
-3.48
-3.11
-2.90
-2.90
-3.13
-3.60
-4.28
-5.06
-5.79
-6.28
-6.38
-6.15
-5.79
-5.57
-5.73
-6.28
-7.04
-7.71
-8.00
-7.79
-7.07
-6.03
-4.94
-4.09
-3.82
-4.36
-5.78
-7.90
-10.31
-12.54
-14.28
-15.53
-16.56
-17.71
-19.04
-20.13
-20.24
-18.64
-15.12
-10.24
-5.34
-2.06
-1.77
-5.03
-11.29
-18.89
-25.38
-28.06
-24.75
-14.47
2.12
22.74
44.12
63.05
77.34
86.51
91.77
95.31
99.43
105.56
113.43
120.87
124.26
119.73
104.81
79.75
47.79
14.28
-15.34
-37.40
-50.99
-57.58
-59.68
-59.42
-57.83
-55.08
-51.26
-47.05
-43.69
-42.37
-43.56
-46.61
-50.12
-52.55
-52.93
-51.25
-48.41
-45.74
-44.42
-45.02
-47.32
-50.51
-53.63
-55.97
-57.38
-58.29
-59.43
-61.50
-64.82
-69.27
-74.34
-79.42
-84.12
-88.36
-92.36
-96.45
-100.91
-105.94
-111.72
-118.54
-126.67
-136.15
-146.48
-156.56
-165.01
-170.61
-172.68
-171.01
-165.51
-155.78
-140.97
-120.04
-92.32
-57.90
-17.81
26.11
71.39
115.12
154.21
185.80
207.88
219.84
222.80
219.12
211.63
202.68
193.65
185.07
177.03
169.60
163.00
157.41
152.75
148.68
144.71
140.55
136.24
132.13
128.77
126.60
125.77
126.14
127.30
128.83
130.40
131.97
133.89
136.66
140.84
146.75
154.31
163.15
172.78
182.86
193.21
203.59
213.48
221.96
227.77
229.57
226.30
217.38
202.81
183.18
159.46
132.97
105.09
76.96
49.23
21.84
-6.04
-35.81
-68.93
-106.11
-146.50
-187.32
-224.26
-252.65
-269.03
-272.50
-265.10
-250.78
-233.91
-217.70
-203.51
-191.19
-180.03
-169.52
-159.65
-150.61
-142.26
-134.07
-125.28
-115.43
-104.63
-93.58
-83.29
-74.60
-67.82
-62.63
-58.23
-53.68
-48.30
-41.91
-34.95
-28.23
-22.59
-18.53
-16.00
-14.50
-13.30
-11.79
-9.69
-7.07
-4.28
-1.70
0.35
1.72
2.41
2.50
2.11
1.31
0.23
-1.08
-2.50
-3.89
-5.06
-5.85
-6.12
-5.86
-5.15
-4.11
-2.81
-1.27
0.51
2.43
4.28
5.75
6.58
6.71
6.32
5.80
5.51
5.58
5.83
5.88
5.34
4.02
2.10
-0.04
-1.93
-3.28
-4.00
-4.19
-4.04
-3.70
-3.25
-2.71
-2.15
-1.69
-1.47
-1.63
-2.16
-2.91
-3.67
-4.21
-4.45
-4.43
-4.32
-4.24
-4.26
-4.30
-4.24
-3.94
-3.38
-2.65
-1.92
-1.37
-1.11
-1.12
-1.33
-1.61
-1.90
-2.14
-2.32
-2.43
-2.44
-2.30
-1.96
-1.41
-0.66
0.25
1.30
2.45
3.70
5.03
6.41
7.75
8.99
10.01
10.73
11.09
11.06
10.68
10.00
9.09
8.05
6.93
5.80
4.64
3.46
2.28
1.11
-0.01
-1.12
-2.32
-3.78
-5.66
-7.99
-10.61
-13.20
-15.41
-17.00
-17.91
-18.22
-18.10
-17.64
-16.91
-15.93
-14.79
-13.57
-12.31
-10.95
-9.38
-7.51
-5.36
-3.12
-1.05
0.68
2.10
3.47
5.08
7.12
9.52
11.98
14.12
15.67
16.49
16.62
16.18
15.26
13.97
12.43
10.81
9.32
8.12
7.31
6.81
6.45
5.99
5.27
4.22
2.92
1.52
0.22
-0.85
-1.60
-2.03
-2.21
-2.24
-2.15
-1.99
-1.73
-1.38
-0.93
-0.44
0.00
0.34
0.52
0.53
0.41
0.20
-0.05
-0.30
-0.54
-0.73
-0.83
-0.81
-0.66
-0.44
-0.26
-0.22
-0.39
-0.73
-1.16
-1.59
-1.96
-2.27
-2.54
-2.72
-2.78
-2.66
-2.36
-1.95
-1.49
-1.05
-0.59
-0.01
0.73
1.63
2.56
3.36
3.84
3.89
3.48
2.67
1.58
0.39
-0.76
-1.76
-2.56
-3.21
-3.80
-4.42
-5.15
-5.98
-6.86
-7.71
-8.46
-9.04
-9.44
-9.67
-9.79
-9.89
-10.10
-10.55
-11.32
-12.41
-13.75
-15.26
-16.82
-18.39
-19.92
-21.41
-22.80
-24.05
-25.09
-25.87
-26.39
-26.69
-26.85
-26.98
-27.18
-27.47
-27.79
-27.97
-27.77
-27.00
-25.59
-23.69
-21.65
-19.87
-18.70
-18.13
-17.78
-16.90
-14.56
-9.87
-2.24
8.45
21.73
36.52
51.29
64.34
74.24
80.16
82.12
80.88
77.57
73.26
68.63
63.88
58.88
53.42
47.43
40.99
34.23
27.20
19.88
12.28
4.54
-2.97
-9.76
-15.29
-19.27
-21.69
-22.91
-23.52
-24.14
-25.20
-26.87
-29.02
-31.29
-33.30
-34.77
-35.62
-36.00
-36.22
-36.59
-37.38
-38.67
-40.40
-42.33
-44.19
-45.75
-46.96
-48.06
-49.49
-51.73
-55.06
-59.34
-63.95
-68.06
-70.98
-72.64
-73.55
-74.58
-76.33
-78.69
-80.80
-81.49
-79.91
-75.94
-70.35
-64.51
-60.02
-58.44
-61.04
-68.41
-79.93
-93.19
-103.97
-107.07
-97.84
-74.11
-37.30
7.76
54.52
96.86
131.06
156.44
174.84
189.28
202.52
216.16
230.49
244.84
258.14
269.50
278.59
285.79
292.02
298.04
303.76
307.72
307.25
299.32
281.82
254.43
218.56
176.64
131.14
83.98
36.63
-9.38
-51.98
-88.63
-117.03
-136.04
-146.20
-149.63
-149.12
-147.19
-145.27
-143.55
-141.31
-137.58
-131.83
-124.26
-115.70
-107.22
-99.55
-92.81
-86.45
-79.69
-71.89
-62.95
-53.26
-43.62
-34.90
-27.77
-22.64
-19.58
-18.40
-18.72
-19.95
-21.36
-22.23
-22.03
-20.56
-18.04
-14.90
-11.60
-8.39
-5.30
-2.19
0.97
4.03
6.55
7.93
7.64
5.38
1.30
-4.00
-9.65
-14.76
-18.65
-21.01
-21.96
-21.85
-21.06
-19.86
-18.37
-16.67
-14.90
-13.30
-12.13
-11.56
-11.55
-11.84
-12.09
-12.03
-11.56
-10.70
-9.63
-8.49
-7.38
-6.31
-5.23
-4.10
-2.87
-1.56
-0.22
1.02
1.99
2.55
2.62
2.26
1.61
0.89
0.33
0.06
0.19
0.73
1.67
2.92
4.33
5.65
6.61
6.99
6.75
6.03
5.13
4.34
3.83
3.57
3.38
3.04
2.46
1.70
0.93
0.36
0.06
-0.03
-0.06
-0.17
-0.38
-0.64
-0.84
-0.94
-0.96
-0.96
-1.02
-1.11
-1.21
-1.32
-1.49
-1.81
-2.33
-2.99
-3.62
-3.99
-3.98
-3.58
-2.96
-2.35
-1.97
-1.89
-2.06
-2.32
-2.54
-2.66
-2.70
-2.75
-2.89
-3.15
-3.47
-3.72
-3.79
-3.61
-3.20
-2.64
-2.03
-1.48
-1.05
-0.72
-0.43
-0.07
0.40
0.97
1.57
2.06
2.33
2.33
2.14
1.88
1.67
1.62
1.77
2.13
2.68
3.37
4.14
4.91
5.57
5.99
6.09
5.83
5.26
4.55
3.88
3.42
3.21
3.22
3.28
3.26
3.04
2.64
2.13
1.61
1.16
0.77
0.43
0.12
-0.19
-0.51
-0.83
-1.13
-1.39
-1.59
-1.73
-1.88
-2.11
-2.50
-3.01
-3.52
-3.83
-3.79
-3.37
-2.72
-2.09
-1.70
-1.70
-2.06
-2.60
-3.12
-3.42
-3.42
-3.18
-2.86
-2.66
-2.73
-3.11
-3.72
-4.35
-4.79
-4.85
-4.47
-3.69
-2.65
-1.51
-0.48
0.26
0.57
0.40
-0.23
-1.17
-2.21
-3.18
-4.00
-4.71
-5.41
-6.25
-7.25
-8.33
-9.30
-10.00
-10.34
-10.41
-10.44
-10.71
-11.44
-12.67
-14.20
-15.63
-16.44
-16.23
-14.81
-12.26
-8.87
-4.98
-0.88
3.28
7.48
11.69
15.85
19.71
22.98
25.30
26.45
26.33
25.09
23.07
20.72
18.47
16.62
15.26
14.26
13.43
12.61
11.87
11.43
11.70
13.03
15.62
19.35
23.81
28.40
32.55
35.94
38.55
40.69
42.72
44.83
46.85
48.26
48.42
46.91
43.75
39.45
34.90
31.10
29.02
29.47
32.78
38.44
44.77
49.05
48.35
40.78
26.45
7.73
-11.69
-28.32
-40.19
-47.35
-51.23
-53.49
-55.04
-55.86
-55.46
-53.65
-50.89
-48.16
-46.33
-45.73
-45.97
-46.18
-45.46
-43.28
-39.72
-35.42
-31.26
-27.93
-25.71
-24.23
-22.80
-20.72
-17.71
-14.11
-10.68
-8.32
-7.57
-8.43
-10.37
-12.57
-14.28
-15.04
-14.78
-13.69
-12.09
-10.27
-8.45
-6.77
-5.31
-4.07
-3.04
-2.17
-1.39
-0.70
-0.17
0.03
-0.30
-1.27
-2.80
-4.51
-5.85
-6.16
-4.97
-2.17
1.87
6.42
10.60
13.69
15.36
15.73
15.25
14.42
13.61
12.96
12.36
11.64
10.71
9.53
8.20
6.83
5.53
4.42
3.64
3.33
3.64
4.64
6.29
8.42
10.76
13.04
15.07
16.82
18.34
19.67
20.75
21.29
20.94
19.42
16.74
13.24
9.52
6.21
3.73
2.16
1.22
0.41
-0.79
-2.70
-5.40
-8.67
-12.15
-15.40
-18.07
-19.97
-21.01
-21.28
-20.91
-20.06
-18.99
-17.90
-16.98
-16.29
-15.77
-15.29
-14.78
-14.28
-13.98
-14.11
-14.75
-15.82
-17.04
-18.12
-18.86
-19.24
-19.38
-19.41
-19.48
-19.66
-19.99
-20.44
-20.83
-20.70
-19.43
-16.38
-11.14
-3.87
4.71
13.49
21.35
27.50
31.58
33.67
34.06
33.10
31.15
28.56
25.65
22.63
19.55
16.28
12.69
8.80
4.91
1.54
-0.83
-1.88
-1.66
-0.43
1.44
3.64
5.91
7.96
9.46
10.04
9.48
7.83
5.47
2.91
0.64
-1.16
-2.55
-3.80
-5.18
-6.82
-8.63
-10.39
-11.87
-12.90
-13.45
-13.60
-13.52
-13.42
-13.47
-13.74
-14.16
-14.62
-14.95
-15.13
-15.27
-15.58
-16.27
-17.42
-18.94
-20.59
-22.10
-23.21
-23.79
-23.78
-23.29
-22.67
-22.46
-23.34
-25.61
-28.78
-31.11
-29.72
-21.43
-3.99
22.73
56.22
92.00
124.98
150.77
166.41
170.31
161.83
141.31
110.35
72.33
32.24
-4.35
-32.94
-51.45
-60.67
-63.34
-62.64
-60.95
-59.36
-57.98
-56.51
-54.63
-52.01
-48.33
-43.41
-37.43
-31.09
-25.42
-21.37
-19.43
-19.45
-20.64
-21.74
-21.18
-17.17
-8.24
6.27
25.49
46.91
67.00
82.43
91.23
93.13
88.99
79.77
65.97
47.76
25.92
2.52
-19.20
-36.00
-46.02
-49.55
-48.63
-45.84
-42.94
-40.38
-37.70
-34.41
-30.61
-26.99
-24.32
-23.00
-22.91
-23.58
-24.54
-25.42
-25.93
-25.87
-25.17
-24.10
-23.32
-23.66
-25.72
-29.58
-34.68
-40.20
-45.54
-50.61
-55.66
-60.81
-65.53
-68.66
-68.92
-65.84
-60.33
-54.71
-51.80
-53.72
-60.94
-72.15
-84.99
-97.13
-106.98
-113.55
-116.06
-113.32
-103.67
-85.73
-58.91
-23.50
19.92
70.90
128.77
191.27
253.27
306.63
342.05
352.15
334.22
291.25
230.83
162.51
95.20
35.63
-11.88
-45.16
-63.76
-69.02
-63.98
-52.82
-39.90
-28.53
-20.30
-15.19
-12.22
-10.00
-7.45
-4.06
0.05
4.16
7.17
8.00
6.06
1.43
-5.07
-12.23
-18.90
-24.42
-28.74
-32.37
-35.98
-40.02
-44.49
-48.84
-52.36
-54.46
-55.04
-54.66
-54.30
-55.06
-57.56
-61.73
-66.71
-71.28
-74.39
-75.78
-76.19
-77.18
-80.56
-87.39
-97.14
-107.28
-113.65
-111.47
-96.79
-67.77
-25.39
26.60
82.57
136.28
182.26
217.01
239.59
251.57
256.27
257.29
256.94
255.16
249.43
235.77
210.47
171.85
121.41
63.83
5.93
-45.17
-83.98
-108.07
-118.55
-119.24
-115.25
-111.21
-110.09
-112.62
-117.40
-121.43
-121.06
-113.07
-95.85
-70.33
-40.24
-11.30
10.53
21.14
19.64
8.47
-7.83
-24.48
-38.15
-47.66
-53.63
-57.53
-60.59
-63.30
-65.40
-66.39
-66.11
-65.18
-64.87
-66.65
-71.51
-79.35
-88.65
-96.56
-99.28
-92.98
-74.71
-43.38
-0.25
51.04
105.15
156.25
199.34
231.32
251.61
262.04
265.97
267.10
267.88
268.58
267.17
260.18
244.12
216.79
177.95
129.46
74.87
18.91
-33.13
-76.22
-106.61
-122.83
-126.24
-120.60
-110.72
-100.88
-93.56
-89.18
-86.75
-84.86
-82.51
-79.29
-75.29
-70.74
-65.84
-60.78
-55.79
-51.07
-46.80
-43.04
-39.68
-36.50
-33.24
-29.72
-25.92
-21.95
-18.08
-14.63
-11.86
-9.94
-8.88
-8.51
-8.53
-8.60
-8.43
-7.87
-6.96
-5.85
-4.79
-3.96
-3.50
-3.46
-3.91
-4.90
-6.52
-8.75
-11.41
-14.13
-16.46
-18.04
-18.70
-18.56
-17.93
-17.17
-16.56
-16.24
-16.21
-16.38
-16.62
-16.82
-16.87
-16.63
-16.04
-15.04
-13.69
-12.15
-10.61
-9.33
-8.44
-7.95
-7.64
-7.16
-6.08
-4.12
-1.22
2.35
6.17
9.74
12.72
15.02
16.78
18.26
19.67
21.11
22.49
23.63
24.41
24.81
25.00
25.21
25.59
26.15
26.70
26.95
26.60
25.41
23.31
20.32
16.65
12.62
8.60
4.88
1.55
-1.57
-4.80
-8.39
-12.36
-16.41
-20.03
-22.79
-24.48
-25.15
-25.02
-24.27
-23.03
-21.47
-19.88
-18.76
-18.65
-19.91
-22.53
-26.05
-29.79
-33.07
-35.53
-37.21
-38.53
-40.06
-42.30
-45.50
-49.60
-54.27
-59.02
-63.39
-67.01
-69.69
-71.44
-72.45
-73.04
-73.62
-74.61
-76.34
-78.98
-82.55
-86.90
-91.88
-97.57
-104.34
-112.64
-122.54
-133.03
-141.74
-145.23
-139.89
-123.13
-94.21
-54.52
-7.18
43.81
94.34
140.80
180.40
211.31
232.77
245.17
249.85
248.82
244.30
238.34
232.56
228.08
225.49
224.70
225.02
225.39
224.98
223.65
222.13
221.47
222.09
223.14
222.53
218.04
208.61
195.13
179.89
165.06
151.20
136.63
118.29
93.45
61.19
22.58
-20.25
-65.52
-112.39
-160.29
-207.71
-251.47
-287.31
-311.48
-322.54
-322.01
-313.66
-301.78
-289.34
-277.40
-265.47
-252.96
-240.23
-228.74
-220.11
-214.75
-211.21
-206.59
-198.23
-185.32
-169.69
-155.15
-145.47
-142.19
-143.48
-144.62
-139.91
-124.76
-97.19
-58.11
-10.73
40.35
90.00
133.25
166.06
186.11
193.38
190.10
180.01
167.05
154.29
143.35
134.53
127.42
121.44
116.12
111.04
105.80
100.10
93.94
87.74
82.20
77.87
74.85
72.59
70.17
66.75
62.04
56.45
50.84
46.05
42.47
39.89
37.60
34.76
30.83
25.78
20.09
14.42
9.40
5.33
2.15
-0.35
-2.28
-3.50
-3.57
-1.98
1.44
6.31
11.70
16.42
19.51
20.54
19.85
18.44
17.70
19.04
23.49
31.03
40.16
47.79
49.88
42.69
24.44
-3.83
-38.30
-73.58
-104.49
-127.47
-141.24
-146.50
-145.21
-139.64
-131.63
-122.10
-110.85
-96.79
-78.67
-55.99
-29.64
-1.93
24.18
46.16
62.79
74.21
81.35
85.24
86.58
85.84
83.62
80.86
78.64
77.75
78.34
79.81
81.16
81.42
80.07
77.46
74.59
72.59
71.99
72.01
70.66
65.44
54.67
38.41
18.77
-0.94
-17.54
-29.18
-35.71
-38.13
-37.71
-35.29
-31.23
-25.79
-19.66
-14.05
-10.35
-9.45
-11.26
-14.61
-17.63
-18.51
-16.23
-11.04
-4.34
2.03
6.56
8.84
9.61
10.42
12.87
18.02
26.21
36.96
48.86
59.39
65.03
62.16
48.59
24.95
-4.84
-34.67
-58.59
-73.04
-77.94
-76.01
-70.89
-65.29
-60.17
-55.15
-49.70
-43.96
-38.81
-35.26
-33.65
-33.41
-33.38
-32.37
-29.82
-26.03
-22.00
-18.92
-17.61
-18.13
-19.78
-21.44
-22.15
-21.48
-19.67
-17.34
-15.19
-13.63
-12.70
-12.21
-11.86
-11.42
-10.79
-9.93
-8.89
-7.79
-6.74
-5.91
-5.38
-5.11
-4.94
-4.57
-3.75
-2.31
-0.27
2.05
4.11
5.30
5.17
3.70
1.40
-0.86
-2.19
-2.10
-0.74
1.13
2.50
2.62
1.33
-0.74
-2.45
-2.63
-0.62
3.27
7.71
10.77
10.67
6.61
-0.67
-9.10
-16.03
-19.36
-18.49
-14.56
-9.96
-7.30
-8.46
-13.92
-22.61
-31.90
-37.91
-36.10
-22.59
4.01
40.89
80.68
113.17
128.85
122.88
97.30
60.25
22.45
-7.29
-24.97
-31.74
-31.58
-28.43
-24.26
-19.13
-12.67
-5.44
0.62
3.18
0.93
