1529949020.00
64.000000
-0.00
-0.00
-0.00
-0.00
-0.00
-0.00
-0.00
-0.00
-0.00
-0.00
0.00
0.01
0.01
-0.00
-0.03
-0.05
-0.05
0.00
0.13
0.36
0.66
1.01
1.37
1.72
2.06
2.40
2.79
3.24
3.80
4.42
5.06
5.66
6.20
6.68
7.15
7.68
8.31
9.14
10.09
11.04
11.88
12.56
13.14
13.76
14.65
15.96
17.91
20.32
22.90
25.38
27.58
29.57
31.68
34.32
37.81
42.54
48.15
54.10
59.83
64.97
69.58
74.14
79.34
85.71
93.76
103.00
112.62
121.73
129.77
136.75
143.30
150.75
157.77
166.64
177.95
191.79
206.97
220.57
228.25
225.36
208.53
176.87
132.76
80.05
23.07
-34.94
-92.44
-149.16
-205.23
-260.37
-313.74
-363.87
-409.83
-450.91
-486.50
-515.74
-537.23
-549.22
-549.96
-538.37
-514.21
-478.67
-433.88
-382.45
-327.02
-269.84
-212.63
-156.66
-102.95
-52.37
-5.90
35.58
71.43
101.35
125.50
144.38
158.69
169.15
176.37
180.75
182.57
182.07
179.51
175.23
169.65
163.18
156.15
148.81
141.30
133.69
126.02
118.33
110.69
103.16
95.80
88.68
81.83
75.25
68.95
62.95
57.25
51.86
46.78
42.03
37.59
33.45
29.61
26.07
22.81
19.83
17.11
14.67
12.48
10.54
8.83
7.35
6.07
4.97
4.05
3.27
2.62
2.09
1.65
1.30
1.01
0.79
0.61
0.48
0.37
0.29
0.22
0.18
0.14
0.11
0.09
0.08
0.07
0.06
0.05
0.05
0.04
0.04
0.04
0.05
0.06
0.07
0.09
0.11
0.14
0.16
0.19
0.23
0.26
0.29
0.32
0.34
0.37
0.39
0.41
0.43
0.46
0.49
0.53
0.58
0.64
0.71
0.80
0.90
1.01
1.13
1.28
1.43
1.60
1.79
1.99
2.21
2.44
2.70
2.98
3.27
3.60
3.94
4.31
4.70
5.12
5.57
6.04
6.55
7.09
7.67
8.29
8.95
9.65
10.39
11.17
12.02
12.93
13.91
14.95
16.05
17.18
18.28
19.27
20.06
20.49
20.45
19.82
18.52
16.50
13.81
10.58
6.98
3.30
-0.15
-3.05
-5.10
-6.05
-5.77
-4.22
-1.52
2.07
6.19
10.39
14.18
17.14
18.93
19.33
18.28
15.89
12.37
8.06
3.28
-1.65
-6.45
-10.88
-14.75
-17.96
-20.44
-22.15
-23.02
-23.21
-22.84
-21.96
-20.62
-18.79
-16.39
-13.30
-9.43
-4.66
0.68
6.24
11.68
16.67
21.00
24.61
27.62
30.28
33.00
35.64
38.15
40.45
42.44
44.07
45.32
46.30
47.26
48.57
49.94
51.13
51.70
50.85
47.54
40.60
29.02
11.93
-6.24
-22.60
-34.55
-40.54
-40.44
-35.51
-27.82
-19.68
-13.10
-9.50
-10.32
-16.01
-25.94
-38.47
-51.30
-62.24
-70.04
-74.68
-77.17
-79.23
-81.73
-84.20
-85.09
-82.48
-75.04
-62.64
-46.37
-28.09
-10.05
6.11
19.38
29.13
34.74
35.41
30.42
19.71
4.35
-13.58
-31.35
-46.46
-57.61
-65.03
-70.16
-75.01
-81.26
-89.89
-101.15
-114.84
-130.41
-146.92
-162.88
-176.11
-184.26
-185.64
-180.17
-169.58
-157.39
-147.62
-143.19
-144.66
-149.78
-154.65
-155.35
-149.04
-134.19
-110.68
-79.50
-42.56
-2.92
35.67
68.77
92.31
104.14
105.70
101.42
97.22
98.75
109.13
128.39
152.37
173.65
184.00
178.67
156.21
118.61
71.33
21.95
-19.33
-44.94
-53.64
-51.49
-46.69
-49.31
-67.18
-101.30
-145.55
-184.92
-205.80
-202.59
-178.28
-136.14
-81.44
-20.39
41.65
99.03
153.11
205.13
254.92
303.59
360.99
435.60
528.30
630.71
725.71
802.85
855.00
879.65
835.30
709.44
528.10
340.13
207.25
120.84
65.93
33.10
11.45
-1.56
-1.25
12.97
34.22
50.66
48.14
24.47
-17.66
-73.94
-138.40
-200.13
-251.06
-289.52
-319.60
-350.09
-383.14
-418.44
-454.48
-487.96
-512.84
-524.98
-523.86
-511.79
-493.12
-467.88
-435.65
-397.09
-353.15
-303.94
-247.53
-179.86
-96.95
0.91
108.85
215.80
307.80
373.00
404.04
402.75
379.57
348.71
321.20
301.81
289.02
278.15
263.85
238.65
199.80
151.25
100.81
54.72
14.08
-23.47
-60.29
-98.44
-143.91
-200.05
-265.18
-334.10
-401.83
-465.08
-519.65
-558.98
-543.45
-457.08
-322.64
-187.08
-85.55
-25.45
4.64
15.39
21.31
27.48
27.26
14.68
-8.16
-31.38
-38.24
-20.91
19.59
75.41
133.12
175.92
194.20
190.06
174.75
160.71
154.35
156.04
162.81
169.84
171.04
163.47
148.42
129.59
110.05
90.13
69.14
46.99
23.82
-0.76
-26.14
-50.46
-71.14
-86.36
-96.19
-101.60
-103.72
-103.62
-102.27
-99.89
-95.84
-89.16
-79.39
-67.25
-54.15
-41.67
-31.12
-23.03
-17.08
-12.39
-8.02
-3.45
1.22
5.59
9.37
12.66
15.90
19.55
23.51
27.09
29.21
28.83
25.46
19.28
11.02
1.57
-8.30
-17.95
-26.81
-34.35
-40.11
-43.92
-45.96
-46.70
-46.65
-46.05
-44.70
-42.14
-37.98
-32.22
-25.34
-18.17
-11.55
-6.04
-1.81
1.39
3.90
5.90
7.33
8.04
8.06
7.69
7.56
8.35
10.48
14.05
18.78
24.28
30.19
36.16
41.83
46.72
50.27
52.01
51.82
50.01
47.19
43.97
40.61
36.96
32.62
27.28
20.97
14.17
7.64
2.18
-1.66
-3.74
-4.27
-3.84
-3.26
-3.43
-4.95
-7.96
-11.97
-15.85
-18.33
-18.39
-15.68
-10.65
-4.23
2.54
8.81
14.09
18.19
21.15
23.03
23.99
24.14
23.60
22.54
21.18
19.81
18.77
18.21
17.99
17.64
16.43
13.80
9.50
3.90
-2.34
-8.47
-14.06
-19.19
-24.29
-29.94
-36.44
-43.77
-51.47
-58.79
-65.02
-69.61
-72.35
-73.29
-72.62
-70.47
-66.85
-61.63
-54.78
-46.62
-37.81
-29.30
-21.85
-15.88
-11.10
-6.88
-2.63
1.91
6.60
11.23
15.76
20.44
25.42
30.41
34.64
37.08
37.09
34.75
30.95
26.89
23.53
21.23
19.68
18.30
16.54
14.17
11.17
7.67
3.83
-0.19
-4.29
-8.43
-12.62
-16.95
-21.23
-25.11
-28.01
-29.40
-29.08
-27.19
-24.19
-20.51
-16.40
-11.86
-6.82
-1.32
4.35
9.67
14.01
16.99
18.54
19.05
19.12
19.28
19.82
20.59
21.15
20.97
19.77
17.65
15.05
12.57
10.64
9.38
8.57
7.87
7.00
5.75
4.01
1.66
-1.52
-5.71
-11.01
-17.33
-24.37
-31.79
-39.30
-46.82
-54.18
-60.78
-65.32
-65.90
-60.73
-49.06
-31.92
-12.10
6.82
21.77
31.36
36.05
37.61
37.89
37.87
37.43
35.80
32.26
26.76
19.83
12.36
5.28
-0.68
-4.44
-4.78
-0.45
9.41
24.77
44.21
64.88
83.20
96.00
101.97
101.76
97.35
91.04
84.52
78.37
72.20
65.13
56.40
46.65
36.74
27.17
17.68
7.52
-4.02
-17.14
-31.17
-44.34
-51.98
-50.22
-38.03
-17.73
6.36
29.94
50.06
65.69
77.52
91.15
110.37
134.41
158.62
178.45
192.49
202.36
210.69
218.80
232.49
253.81
280.16
306.68
330.96
354.31
378.71
403.71
426.32
451.99
485.49
527.42
573.03
615.51
648.70
668.02
671.30
605.99
452.57
235.15
8.69
-180.67
-316.94
-406.37
-462.12
-495.48
-513.82
-512.85
-490.09
-450.04
-403.42
-360.82
-327.77
-304.80
-289.70
-279.89
-266.54
-244.06
-213.30
-180.50
-152.48
-132.36
-119.70
-112.08
-107.35
-99.52
-84.96
-64.20
-41.30
-20.49
-3.67
9.53
20.73
30.79
42.27
56.29
71.61
85.17
93.82
95.50
88.86
78.13
65.28
52.21
39.71
27.32
13.77
-1.79
-19.15
-36.92
-53.01
-66.70
-77.75
-86.52
-93.96
-101.31
-109.51
-118.79
-128.53
-137.44
-145.03
-150.62
-153.48
-153.29
-150.92
-148.83
-150.52
-158.99
-174.72
-195.70
-215.68
-225.61
-216.93
-185.19
-131.62
-62.24
14.61
90.80
156.99
207.24
240.23
258.05
263.57
258.97
246.06
226.79
203.42
172.15
131.08
83.06
34.39
-9.70
-47.13
-77.97
-102.94
-122.65
-147.31
-183.96
-231.46
-282.04
-328.10
-365.93
-394.74
-415.43
-429.43
-451.24
-491.21
-548.91
-615.32
-682.24
-747.30
-811.78
-877.45
-864.67
-732.94
-506.04
-253.23
-33.20
129.34
233.92
292.07
319.39
331.84
329.58
311.69
282.66
252.04
227.74
212.68
206.57
206.49
209.22
202.84
181.51
150.97
125.34
117.85
130.62
163.02
207.51
254.74
291.01
308.18
306.91
294.07
277.69
263.43
254.67
251.44
251.42
247.21
231.66
201.93
160.14
112.29
65.16
23.95
-10.63
-41.76
-75.78
-118.41
-167.62
-219.31
-267.82
-308.55
-339.18
-360.42
-374.30
-382.28
-384.28
-378.44
-363.39
-339.05
-307.60
-272.97
-239.53
-210.18
-185.52
-164.33
-144.75
-126.24
-109.46
-96.02
-87.76
-85.85
-90.13
-99.21
-110.87
-122.62
-132.55
-139.24
-141.68
-139.18
-131.12
-117.03
-96.69
-70.47
-39.43
-5.50
29.04
61.88
91.14
115.54
134.38
147.41
154.53
155.82
151.49
142.17
129.07
113.89
98.54
84.61
73.02
63.78
56.27
49.68
43.71
38.88
36.48
38.08
44.72
56.40
71.85
89.03
105.84
121.00
134.36
146.77
159.62
174.31
191.99
213.28
237.80
263.46
286.00
299.63
299.13
282.67
253.76
221.12
195.95
187.64
200.27
231.47
274.27
320.62
364.26
401.57
430.39
448.24
451.76
437.80
405.58
358.17
302.19
245.74
195.58
155.14
124.25
100.09
78.89
57.25
32.71
3.94
-29.23
-65.35
-101.23
-132.46
-154.71
-165.12
-163.37
-151.80
-134.57
-116.41
-101.23
-91.35
-87.13
-87.22
-88.94
-89.37
-86.30
-78.88
-67.72
-54.21
-39.49
-23.52
-5.13
17.20
43.69
72.30
98.99
119.14
129.37
128.53
117.71
99.08
74.92
46.68
15.32
-17.57
-49.10
-75.30
-92.48
-98.79
-95.09
-83.77
-68.58
-53.36
-41.23
-34.07
-32.35
-35.31
-40.77
-45.42
-43.92
-32.30
-9.75
20.70
53.27
81.70
101.46
111.25
113.18
114.03
120.09
134.62
157.23
185.04
214.35
241.54
263.19
275.48
276.84
264.71
236.71
192.73
136.45
74.51
13.02
-45.18
-118.99
-214.73
-323.36
-423.88
-497.13
-536.18
-546.61
-541.57
-532.48
-524.38
-513.85
-496.23
-469.52
-435.91
-400.36
-367.33
-338.63
-313.19
-288.26
-258.70
-221.88
-179.01
-134.32
-92.76
-57.58
-29.32
-6.16
14.84
37.97
65.94
99.13
135.66
172.29
205.32
231.07
246.38
249.32
240.58
222.90
200.27
176.73
155.26
137.21
122.43
109.96
98.77
88.42
78.55
68.43
56.87
42.72
25.76
7.18
-10.65
-25.06
-34.37
-38.74
-40.16
-41.83
-46.91
-57.42
-73.42
-92.93
-112.47
-128.19
-137.23
-138.60
-133.41
-124.15
-113.46
-102.94
-92.71
-81.82
-69.31
-55.14
-40.36
-26.53
-14.69
-4.56
5.44
17.57
34.05
56.54
85.97
122.12
162.98
204.22
239.45
261.78
266.43
253.02
226.21
194.14
165.20
145.06
135.18
133.55
136.69
141.48
145.77
147.72
145.01
134.74
114.44
83.61
44.83
3.50
-33.45
-59.78
-71.99
-70.41
-58.91
-43.43
-29.82
-22.11
-21.66
-27.53
-37.48
-49.17
-60.85
-71.35
-79.89
-85.66
-87.98
-86.57
-81.86
-75.02
-67.59
-60.87
-55.48
-51.18
-47.06
-42.11
-35.70
-27.95
-19.71
-12.19
-6.55
-3.47
-3.09
-5.07
-8.74
-13.19
-17.34
-20.06
-20.51
-18.48
-14.52
-9.77
-5.50
-2.60
-1.30
-1.24
-1.82
-2.61
-3.44
-4.40
-5.57
-6.92
-8.29
-9.48
-10.39
-10.97
-11.21
-11.12
-10.72
-10.16
-9.69
-9.59
-10.03
-10.95
-12.15
-13.30
-14.22
-14.84
-15.18
-15.17
-14.62
-13.30
-11.05
-7.95
-4.36
-0.79
2.29
4.54
5.78
5.99
5.21
3.63
1.62
-0.24
-1.30
-1.06
0.64
3.41
6.45
8.78
9.53
8.27
5.16
0.86
-3.68
-7.54
-10.12
-11.33
-11.45
-11.06
-10.75
-10.89
-11.55
-12.61
-13.80
-14.86
-15.55
-15.64
-14.91
-13.19
-10.50
-7.13
-3.62
-0.64
1.30
2.02
1.85
1.42
1.51
2.64
4.93
8.08
11.60
15.07
18.25
21.11
23.57
25.40
26.20
25.54
23.23
19.50
14.87
10.00
5.39
1.29
-2.27
-5.28
-7.49
-8.44
-7.60
-4.70
-0.02
5.52
10.58
13.89
14.68
12.92
9.19
4.28
-1.13
-6.76
-12.56
-18.47
-24.13
-28.90
-32.12
-33.45
-33.06
-31.57
-29.76
-28.16
-26.84
-25.46
-23.53
-20.75
-17.31
-13.80
-10.99
-9.48
-9.36
-10.13
-10.98
-11.12
-10.16
-8.27
-6.05
-4.22
-3.34
-3.56
-4.47
-5.29
-5.04
-2.87
1.61
8.21
16.16
24.20
30.97
35.32
36.67
35.26
32.05
28.42
25.64
24.37
24.40
24.83
24.63
23.17
20.57
17.54
14.87
12.97
11.56
9.85
6.86
1.80
-5.79
-15.92
-28.03
-40.96
-53.16
-63.15
-70.17
-74.60
-77.83
-81.45
-86.21
-91.30
-94.41
-92.53
-83.28
-66.01
-42.26
-15.40
10.43
31.64
46.17
53.90
56.30
55.51
53.34
50.64
47.43
43.44
38.86
34.52
31.55
30.60
31.30
32.21
31.47
27.74
20.83
11.78
2.40
-5.57
-11.08
-14.00
-14.90
-14.60
-13.70
-12.42
-10.66
-8.27
-5.27
-1.91
1.39
4.28
6.59
8.35
9.66
10.58
10.98
10.63
9.29
6.84
3.38
-0.71
-4.87
-8.46
-10.88
-11.79
-11.28
-9.81
-8.10
-6.88
-6.62
-7.42
-9.04
-11.06
-13.07
-14.80
-16.12
-17.12
-17.89
-18.63
-19.55
-20.74
-22.21
-23.76
-25.02
-25.53
-24.87
-22.84
-19.58
-15.46
-11.06
-6.93
-3.43
-0.67
1.48
3.28
4.95
6.63
8.32
9.96
11.47
12.82
14.04
15.17
16.23
17.23
18.17
19.07
19.96
20.80
21.47
21.75
21.38
20.21
18.26
15.71
12.84
9.94
7.16
4.62
2.34
0.43
-1.03
-2.07
-2.82
-3.53
-4.49
-5.84
-7.53
-9.31
-10.89
-12.01
-12.56
-12.56
-12.07
-11.13
-9.74
-7.83
-5.39
-2.46
0.75
3.97
6.90
9.35
11.24
12.59
13.55
14.22
14.66
14.84
14.73
14.31
13.59
12.67
11.62
10.53
9.46
8.46
7.55
6.74
6.00
5.32
4.62
3.90
3.08
2.17
1.18
0.12
-1.00
-2.27
-3.79
-5.69
-8.04
-10.77
-13.64
-16.24
-18.19
-19.16
-19.02
-17.91
-16.09
-13.93
-11.72
-9.62
-7.60
-5.59
-3.48
-1.23
1.12
3.41
5.54
7.43
9.10
10.59
11.96
13.25
14.43
15.50
16.43
17.18
17.73
17.99
17.89
17.37
16.40
15.06
13.52
11.92
10.38
8.91
7.44
5.84
3.99
1.85
-0.61
-3.26
-5.98
-8.60
-10.97
-13.00
-14.63
-15.81
-16.51
-16.73
-16.47
-15.77
-14.68
-13.22
-11.43
-9.33
-6.94
-4.29
-1.45
1.50
4.46
7.29
9.84
11.88
13.24
13.80
13.62
12.94
12.11
11.44
11.11
11.12
11.36
11.74
12.20
12.78
13.53
14.49
15.58
16.68
17.60
18.21
18.46
18.36
17.96
17.34
16.54
15.54
14.33
12.85
11.07
8.95
6.46
3.65
0.64
-2.33
-4.88
-6.64
-7.35
-6.98
-5.72
-3.86
-1.69
0.65
3.08
5.55
7.86
9.76
10.99
11.46
11.35
11.03
10.86
11.01
11.46
11.95
12.23
12.12
11.60
10.75
9.59
8.11
6.25
4.05
1.61
-0.88
-3.16
-5.08
-6.49
-7.38
-7.80
-7.91
-7.96
-8.29
-9.14
-10.64
-12.69
-15.00
-17.18
-18.87
-19.84
-20.00
-19.38
-18.08
-16.23
-13.98
-11.44
-8.72
-5.88
-2.97
-0.02
2.93
5.83
8.60
11.12
13.23
14.74
15.50
15.54
15.06
14.41
13.91
13.70
13.68
13.57
13.06
12.02
10.58
9.00
7.59
6.51
5.71
5.02
4.24
3.25
2.01
0.51
-1.27
-3.33
-5.65
-8.10
-10.45
-12.44
-13.93
-14.89
-15.44
-15.72
-15.75
-15.43
-14.57
-13.01
-10.73
-7.93
-4.92
-2.05
0.41
2.34
3.76
4.80
5.60
6.25
6.77
7.08
7.15
7.03
6.88
6.94
7.40
8.31
9.49
10.61
11.36
11.54
11.11
10.19
8.93
7.51
6.13
5.03
4.43
4.47
5.11
6.08
6.96
7.31
6.80
5.28
2.79
-0.57
-4.65
-9.18
-13.77
-17.91
-21.13
-23.07
-23.61
-22.77
-20.61
-17.11
-12.31
-6.34
0.44
7.41
13.89
19.37
23.57
26.52
28.37
29.37
29.77
29.85
29.93
30.23
30.80
31.49
32.05
32.35
32.58
33.22
34.81
37.60
41.29
45.12
48.18
49.96
50.66
51.27
53.06
57.07
63.50
71.67
80.29
88.06
94.41
99.69
104.99
111.49
119.81
129.70
140.21
149.92
157.27
160.74
158.95
150.70
135.58
114.24
88.59
61.33
34.76
9.65
-15.68
-44.69
-80.48
-123.21
-168.36
-207.45
-230.74
-230.93
-205.91
-159.52
-100.12
-37.59
19.32
64.62
94.84
108.52
105.53
87.36
56.98
18.40
-24.57
-69.95
-117.82
-169.64
-226.25
-285.82
-342.28
-387.63
-414.99
-421.35
-409.03
-383.14
-349.63
-313.12
-275.63
-235.38
-190.09
-138.81
-82.40
-23.95
35.31
95.24
155.43
214.35
270.92
321.92
362.88
390.21
401.72
401.93
399.05
401.51
415.58
445.89
490.43
540.72
584.64
608.87
608.87
587.74
553.73
495.74
412.30
310.19
203.12
119.67
59.89
17.83
-12.75
-41.42
-74.09
-111.61
-153.24
-196.88
-239.52
-280.23
-316.05
-346.20
-373.58
-403.22
-437.82
-478.88
-525.87
-575.82
-624.67
-663.55
-683.01
-676.33
-641.41
-579.72
-497.71
-405.66
-315.58
-239.22
-182.84
-147.63
-130.19
-123.65
-118.45
-105.82
-80.39
-41.58
6.27
56.73
102.42
136.59
152.04
146.56
125.66
99.91
78.64
64.87
55.54
44.48
27.46
5.08
-17.37
-32.35
-33.71
-19.00
10.24
50.10
94.76
139.20
180.20
215.52
242.29
256.41
254.12
234.57
201.86
164.49
132.28
112.74
107.93
114.74
127.67
142.10
156.33
171.31
188.83
209.28
230.89
248.76
256.83
250.56
229.03
195.50
155.86
116.84
80.34
50.62
31.03
22.28
22.72
30.13
42.61
57.23
71.17
81.73
87.37
86.52
78.18
62.25
40.65
15.80
-12.02
-42.53
-74.87
-106.93
-137.03
-164.01
-186.87
-204.48
-215.90
-223.84
-230.87
-238.13
-244.95
-250.64
-255.19
-259.36
-264.57
-273.07
-291.52
-324.33
-370.84
-424.58
-476.76
-519.95
-550.41
-568.48
-551.90
-491.95
-395.07
-279.97
-166.36
-67.60
9.76
64.05
97.26
114.33
117.84
111.37
98.60
84.17
71.39
61.70
55.35
52.11
51.73
50.72
46.54
38.69
28.83
19.44
10.92
3.62
-2.26
-6.53
-11.00
-17.02
-24.78
-33.31
-41.43
-48.34
-53.40
-56.28
-56.74
-55.79
-54.43
-53.26
-52.35
-51.52
-50.47
-48.57
-45.09
-39.32
-31.27
-21.36
-10.28
1.15
12.29
22.85
33.14
43.93
56.07
70.15
86.14
103.52
121.45
139.15
156.27
172.96
189.84
207.95
228.87
254.54
286.72
325.75
369.32
411.91
445.59
462.28
456.39
426.89
377.74
316.50
251.80
191.16
139.86
101.11
76.68
67.16
71.49
86.36
106.25
124.67
136.23
138.36
131.81
119.55
104.87
89.89
75.12
60.27
45.44
31.65
20.39
12.51
7.66
4.36
0.93
-3.81
-10.34
-18.89
-29.72
-42.92
-57.85
-72.76
-85.35
-93.83
-98.04
-99.63
-101.24
-104.83
-110.47
-116.16
-118.87
-116.24
-107.81
-95.16
-80.95
-67.64
-56.47
-47.29
-39.09
-30.90
-22.44
-14.28
-7.51
-2.92
-0.52
0.62
1.78
3.79
6.49
8.79
9.39
7.59
3.91
-0.09
-2.52
-2.19
0.86
5.37
9.65
12.39
13.30
13.10
13.01
14.15
17.10
21.83
27.91
34.74
41.70
48.25
54.07
59.17
64.02
69.33
75.63
82.84
90.19
96.55
100.92
102.87
102.52
100.40
97.37
94.80
94.78
99.74
111.44
129.62
151.13
170.40
181.38
180.04
166.18
143.54
118.32
96.59
82.11
75.30
73.64
73.11
69.93
61.89
48.92
32.66
15.19
-2.10
-19.02
-36.29
-54.36
-72.67
-89.93
-105.32
-119.39
-133.66
-149.03
-163.96
-174.41
-176.02
-167.26
-151.41
-135.60
-127.22
-129.99
-142.29
-158.88
-174.76
-188.56
-202.93
-221.35
-244.05
-266.13
-278.96
-274.46
-249.54
-207.84
-158.26
-111.58
-76.78
-58.40
-55.89
-64.69
-78.16
-89.81
-95.32
-93.52
-86.42
-78.01
-72.23
-71.09
-73.92
-77.96
-79.96
-77.69
-70.46
-58.89
-44.50
-29.28
-15.33
-4.52
2.11
4.81
5.12
4.90
5.39
6.45
6.57
3.66
-3.74
-15.68
-30.92
-47.61
-63.63
-76.81
-85.06
-87.20
-84.13
-79.81
-80.70
-93.66
-122.52
-165.30
-213.72
-255.56
-278.89
-276.06
-246.13
-194.66
-131.46
-67.20
-10.54
33.74
65.06
86.13
101.19
114.16
127.34
141.11
154.48
165.99
174.53
179.67
181.56
180.67
177.67
173.45
169.16
165.81
163.94
163.15
162.19
159.10
151.64
138.15
118.28
93.59
67.42
44.06
27.38
19.61
20.75
29.18
42.74
59.72
79.11
100.12
121.39
140.76
155.74
164.43
166.14
161.30
150.96
136.17
117.74
96.49
73.71
51.28
31.41
15.86
5.24
-1.42
-6.49
-12.81
-22.47
-35.63
-50.30
-63.29
-71.80
-74.78
-73.52
-70.68
-68.71
-68.69
-69.99
-71.03
-70.32
-66.94
-60.46
-50.72
-37.88
-22.65
-6.53
8.63
21.67
33.09
45.19
61.23
83.73
112.91
146.04
178.02
203.24
217.69
220.34
213.12
199.45
182.48
163.83
143.59
121.29
97.10
71.92
46.71
21.50
-4.86
-33.65
-64.78
-96.16
-124.65
-148.08
-167.08
-184.94
-205.59
-231.00
-259.62
-286.76
-306.52
-314.09
-307.21
-286.45
-254.78
-216.78
-177.96
-143.75
-118.23
-102.90
-96.18
-93.88
-90.96
-83.30
-69.18
-49.53
-27.04
-4.80
15.00
31.34
43.95
53.01
58.98
62.79
65.81
69.52
74.66
80.69
85.88
88.38
87.76
85.84
86.17
92.26
105.47
123.82
142.66
156.92
163.55
162.90
158.32
154.12
153.27
156.06
159.94
160.96
155.65
142.57
122.98
100.05
77.61
58.51
43.50
31.01
17.91
0.67
-23.44
-55.48
-94.23
-135.98
-174.66
-202.84
-213.58
-202.66
-170.53
-123.02
-70.12
-23.08
9.36
23.87
23.43
15.81
10.19
13.52
27.91
50.26
73.87
91.30
97.18
89.87
71.46
46.58
20.52
-2.19
-18.57
-27.27
-28.35
-22.88
-12.64
0.32
14.14
27.54
40.00
51.57
62.47
72.55
80.95
86.06
85.84
78.57
63.65
42.39
18.15
-4.31
-20.17
-26.39
-23.01
-13.43
-3.06
2.74
0.98
-7.97
-20.79
-32.78
-39.84
-40.07
-34.40
-26.12
-19.47
-18.08
-23.47
-34.47
-47.71
-58.99
-65.00
-64.63
-59.24
-51.79
-45.38
-41.92
-41.66
-43.63
-46.84
-51.12
-57.26
-66.33
-78.47
-92.29
-105.02
-113.58
-116.16
-113.31
-107.89
-103.74
-103.84
-108.71
-116.13
-122.27
-123.64
-118.87
-109.16
-97.42
-86.62
-78.30
-72.28
-67.25
-61.78
-54.80
-45.65
-33.88
-19.37
-2.91
13.32
26.16
32.67
31.74
25.07
16.47
10.07
8.08
9.74
11.82
10.59
3.74
-8.51
-23.92
-39.58
-53.16
-63.47
-70.11
-72.84
-71.22
-64.83
-54.08
-40.66
-27.24
-16.53
-10.46
-9.92
-15.05
-25.50
-40.19
-57.02
-72.78
-83.94
-88.06
-84.83
-76.21
-65.14
-53.78
-42.51
-30.32
-16.55
-2.25
9.61
15.84
15.35
10.47
6.03
6.82
14.65
27.09
38.43
42.76
37.21
23.95
9.33
0.65
2.34
13.71
29.58
43.26
50.18
49.80
45.23
40.78
39.26
40.64
42.47
41.95
37.91
31.73
26.52
25.10
27.90
32.34
33.93
28.73
15.76
-2.25
-20.25
-33.53
-40.19
-41.91
-42.57
-45.58
-51.75
-58.72
-62.36
-58.97
-47.11
-28.16
-5.71
15.63
31.44
38.80
37.42
30.16
22.32
19.56
25.05
37.50
51.14
58.16
52.40
32.31
1.71
-32.04
-61.23
-80.85
-89.76
-89.99
-84.78
-76.74
-67.00
-55.74
-43.05
-29.75
-17.49
-8.08
-2.52
-0.13
1.34
4.65
11.33
20.47
28.62
31.24
25.06
9.98
-10.99
-33.54
-54.94
-75.61
-98.41
-126.04
-157.93
-188.98
-211.19
-217.40
-204.81
-176.45
-139.54
-102.06
-69.42
-42.93
-20.50
1.32
25.61
54.18
87.24
123.52
160.27
193.32
217.97
230.35
228.98
215.47
194.04
169.62
145.92
124.46
104.72
85.59
66.57
48.28
32.22
20.20
14.02
15.34
25.27
43.48
67.02
90.03
104.90
104.89
86.97
53.58
11.85
-29.18
-62.31
-84.58
-97.68
-106.05
-114.02
-123.64
-134.23
-143.60
-149.95
-153.07
-153.98
-153.52
-150.82
-142.77
-125.59
-97.23
-59.53
-18.32
18.77
45.92
61.93
70.69
78.87
92.09
111.83
134.79
154.75
166.04
166.29
157.20
143.09
128.30
115.21
103.83
92.97
81.86
70.94
61.57
54.91
50.94
48.32
45.17
40.14
33.03
24.62
15.87
7.14
-1.98
-12.16
-23.29
-33.81
-40.87
-41.38
-33.52
-17.72
3.16
24.89
43.42
56.20
62.78
64.36
62.82
59.78
56.16
52.18
47.75
42.76
37.19
31.09
24.53
17.62
10.68
4.25
-0.93
-4.22
-5.20
-3.99
-1.29
1.83
4.25
5.18
4.34
1.96
-1.50
-5.55
-9.81
-13.96
-17.68
-20.66
-22.58
-23.19
-22.43
-20.29
-16.88
-12.37
-7.01
-1.21
4.50
9.53
13.50
16.29
18.18
19.62
21.02
22.56
24.16
25.49
26.17
25.95
24.69
22.51
19.72
16.88
14.68
13.79
14.54
16.71
19.48
21.69
22.32
20.95
17.80
13.70
9.53
5.91
2.97
0.47
-1.96
-4.52
-7.17
-9.67
-11.74
-13.28
-14.44
-15.52
-16.83
-18.38
-19.74
-20.14
-18.81
-15.28
-9.63
-2.47
5.38
13.13
20.27
26.44
31.32
34.52
35.63
34.37
30.77
25.29
18.69
11.81
5.40
0.01
-4.08
-6.77
-8.13
-8.39
-7.91
-7.11
-6.41
-6.01
-5.89
-5.88
-5.74
-5.38
-4.87
-4.41
-4.20
-4.23
-4.29
-4.04
-3.19
-1.65
0.46
2.88
5.29
7.35
8.78
9.31
8.82
7.33
5.08
2.48
0.01
-1.95
-3.27
-4.02
-4.43
-4.67
-4.80
-4.72
-4.19
-2.96
-0.87
2.05
5.55
9.24
12.65
15.41
17.28
18.30
18.66
18.64
18.54
18.48
18.46
18.37
18.06
17.54
16.89
16.28
15.78
15.27
14.45
12.98
10.67
7.65
4.39
1.54
-0.29
-0.71
0.39
2.86
6.35
10.40
14.53
18.27
21.27
23.36
24.56
25.03
24.97
24.54
23.89
23.13
22.51
22.30
22.75
23.87
25.44
27.06
28.33
29.13
29.61
30.25
31.58
33.99
37.43
41.40
45.02
47.36
47.81
46.34
43.58
40.66
38.76
38.74
40.75
44.24
48.07
51.05
52.28
51.54
49.33
46.61
44.49
43.65
43.99
44.44
43.05
37.40
25.46
6.53
-17.79
-43.52
-65.20
-77.98
-79.91
-73.15
-63.40
-57.42
-59.77
-70.85
-86.96
-102.54
-112.74
-114.93
-108.45
-93.43
-70.21
-39.90
-5.48
27.92
54.65
71.35
78.94
82.38
87.89
99.39
116.41
134.68
148.87
155.48
154.07
146.34
134.26
118.85
100.67
81.38
64.98
57.51
64.79
89.17
127.23
170.25
207.43
230.48
237.19
231.80
221.99
214.37
210.79
207.85
199.52
181.01
151.53
114.61
75.81
39.62
7.50
-22.17
-52.29
-84.98
-120.04
-154.78
-185.06
-207.12
-219.23
-222.52
-220.46
-217.40
-216.96
-220.99
-230.07
-244.32
-264.01
-288.83
-316.13
-339.42
-348.78
-334.04
-289.74
-219.51
-136.63
-59.91
-5.94
17.91
16.15
2.24
-8.72
-7.05
8.00
29.62
48.10
55.75
49.64
31.88
8.16
-14.20
-27.88
-26.97
-8.50
26.36
72.05
120.22
162.18
191.69
206.26
207.06
197.75
183.14
168.03
156.48
151.00
152.01
157.58
163.89
166.61
162.31
149.61
129.49
104.75
78.93
55.27
35.97
21.74
11.99
5.01
-1.36
-9.01
-18.89
-30.59
-42.47
-52.22
-57.81
-58.31
-54.22
-47.32
-39.97
-34.31
-31.59
-31.95
-34.65
-38.63
-42.92
-46.98
-50.57
-53.56
-55.69
-56.66
-56.36
-55.21
-54.15
-54.33
-56.41
-60.09
-64.01
-66.19
-64.97
-59.72
-51.35
-41.97
-34.17
-30.00
-30.22
-34.06
-39.50
-44.09
-45.86
-43.95
-38.79
-31.70
-24.23
-17.43
-11.53
-5.99
0.06
7.36
16.20
26.44
37.59
49.04
60.24
70.68
79.91
87.46
92.76
95.02
93.27
86.39
73.52
54.41
29.70
1.09
-28.96
-57.67
-82.53
-101.79
-114.77
-121.89
-124.51
-124.51
-123.94
-124.74
-128.40
-135.91
-147.54
-162.70
-179.80
-196.50
-210.21
-218.88
-221.70
-219.37
-213.65
-206.58
-199.57
-193.14
-187.04
-180.81
-174.15
-167.11
-159.84
-152.26
-143.97
-134.31
-122.71
-109.09
-93.89
-77.91
-61.94
-46.41
-31.33
-16.52
-2.02
11.74
23.97
33.87
41.11
46.11
49.86
53.56
58.01
63.27
68.80
73.63
76.79
77.56
75.52
70.54
62.72
52.43
40.30
27.28
14.58
3.61
-4.32
-8.31
-8.14
-4.40
1.69
8.59
14.87
19.59
22.36
23.20
22.25
19.58
15.25
9.45
2.59
-4.59
-11.15
-16.26
-19.46
-20.88
-21.17
-21.18
-21.85
-24.24
-29.38
-38.18
-51.20
-68.43
-89.10
-111.65
-133.90
-153.87
-170.59
-184.05
-194.65
-202.54
-207.53
-209.50
-208.80
-206.17
-203.00
-201.49
-203.15
-207.61
-212.20
-213.04
-207.02
-193.02
-171.80
-146.19
-120.88
-99.54
-82.66
-66.30
-43.49
-7.31
46.07
115.90
194.58
267.67
318.72
334.80
311.09
251.63
166.34
67.45
-32.99
-113.80
-156.92
-155.88
-120.92
-71.43
-23.68
14.70
37.85
52.67
64.48
73.96
79.62
80.90
80.22
83.75
95.44
116.76
147.40
183.56
218.09
243.11
252.45
244.10
221.12
190.45
161.44
143.58
141.80
154.16
173.00
188.27
192.11
181.97
160.43
133.43
107.36
85.49
67.49
51.13
34.67
18.42
4.57
-4.57
-8.13
-7.13
-4.44
-3.15
-5.02
-9.68
-14.98
-18.07
-16.88
-10.91
-1.41
8.81
16.47
18.89
15.12
6.43
-3.95
-11.99
-14.35
-9.70
0.93
14.80
28.82
40.79
50.12
57.69
65.14
74.18
86.08
101.29
119.22
138.19
155.56
168.53
175.20
175.63
172.07
168.15
167.25
170.67
176.95
182.30
182.15
172.86
152.81
122.60
84.62
42.41
0.14
-37.88
-67.88
-87.56
-96.68
-97.11
-91.94
-84.08
-75.12
-65.21
-53.99
-41.89
-30.80
-23.74
-23.63
-32.20
-49.07
-71.59
-94.98
-113.26
-121.05
-115.60
-98.46
-75.49
-54.66
-42.51
-41.00
-46.82
-53.70
-56.35
-53.73
-49.55
-49.59
-57.73
-73.25
-91.05
-104.38
-108.54
-102.93
-90.64
-76.02
-61.93
-48.57
-34.20
-17.37
1.17
18.18
29.40
31.92
25.88
14.45
2.12
-7.53
-13.35
-16.46
-18.83
-21.67
-24.65
-26.39
-25.61
-22.12
-16.85
-11.11
-5.70
-0.53
4.96
10.96
16.65
20.44
20.87
17.55
11.50
4.44
-2.20
-8.04
-13.59
-19.45
-25.39
-30.22
-32.49
-31.45
-27.71
-22.88
-18.74
-16.37
-15.77
-16.19
-16.82
-17.30
-17.68
-18.15
-18.57
-18.34
-16.62
-12.71
-6.31
2.26
12.15
22.25
31.44
38.87
44.00
46.73
47.29
46.11
43.57
39.85
34.87
28.46
20.59
11.72
2.82
-4.72
-9.61
-11.13
-9.36
-5.11
0.55
6.76
13.17
19.85
26.92
34.03
40.17
43.94
44.15
40.49
33.85
25.97
18.84
13.82
11.26
10.56
10.73
10.95
10.95
10.92
11.14
11.65
12.07
11.81
10.40
7.74
4.17
0.27
-3.36
-6.38
-8.74
-10.72
-12.78
-15.28
-18.37
-21.76
-24.68
-26.09
-25.03
-21.12
-14.88
-7.70
-1.32
2.82
4.35
4.30
4.74
7.90
15.06
25.80
37.93
48.44
54.78
56.06
53.60
50.23
48.99
51.72
58.22
66.61
74.22
78.91
79.81
77.54
73.54
69.57
67.29
68.09
72.80
81.20
91.24
98.77
98.59
86.88
64.19
36.66
14.51
7.39
19.34
46.03
76.26
97.19
100.50
85.94
60.44
33.77
13.36
1.45
-4.34
-7.95
-11.88
-15.81
-17.67
-15.85
-10.79
-5.18
-2.74
-6.32
-16.53
-31.30
-46.90
-59.51
-66.80
-68.67
-66.98
-64.44
-63.14
-63.68
-65.08
-65.50
-63.27
-57.83
-49.97
-41.47
-34.28
-29.70
-27.90
-27.99
-28.50
-28.11
-26.12
-22.71
-18.78
-15.52
-13.94
-14.62
-17.59
-22.44
-28.46
-34.92
-41.12
-46.55
-51.02
-54.63
-57.80
-61.04
-64.72
-68.87
-73.15
-77.00
-79.82
-81.23
-81.13
-79.67
-77.09
-73.63
-69.35
-64.03
-57.19
-48.16
-36.24
-21.09
-2.91
17.46
38.61
58.78
76.11
88.84
95.69
96.09
90.41
79.85
66.03
50.57
34.91
20.36
8.28
0.03
-3.55
-2.83
0.15
2.10
-0.42
-9.54
-25.06
-44.52
-64.10
-80.05
-89.76
-92.27
-88.06
-78.66
-66.16
-52.81
-40.69
-31.34
-25.44
-22.77
-22.27
-22.50
-22.10
-20.11
-16.28
-10.99
-5.08
0.51
4.89
7.51
8.13
6.77
3.70
-0.67
-5.74
-10.88
-15.46
-19.06
-21.54
-23.08
-24.19
-25.51
-27.59
-30.70
-34.73
-39.18
-43.45
-47.03
-49.72
-51.58
-52.77
-53.27
-52.71
-50.49
-46.11
-39.59
-31.61
-23.26
-15.61
-9.19
-3.75
1.46
7.33
14.43
22.84
32.23
42.14
52.21
62.24
72.17
81.92
91.40
100.50
109.13
117.23
124.82
131.80
137.93
142.65
145.05
144.06
138.83
129.26
116.44
102.49
90.02
81.22
77.04
76.79
78.46
79.49
77.76
72.39
64.03
54.56
46.30
41.04
39.36
40.50
43.02
45.75
48.68
52.96
60.14
70.89
84.06
96.79
105.65
108.16
103.87
94.29
81.79
68.22
54.08
38.58
20.59
-0.46
-24.23
-49.89
-76.71
-104.34
-132.21
-158.83
-181.49
-196.98
-202.98
-199.42
-188.82
-175.35
-163.19
-154.95
-151.16
-150.90
-152.97
-156.71
-162.23
-169.76
-178.82
-187.77
-193.99
-194.81
-188.51
-175.16
-156.78
-136.59
-117.77
-102.10
-89.27
-77.29
-63.75
-47.44
-29.21
-11.78
1.61
8.92
10.51
9.02
8.10
10.53
16.79
24.93
31.55
33.61
29.88
21.13
9.26
-3.87
-17.25
-30.37
-42.46
-51.98
-57.00
-56.28
-50.36
-41.60
-33.17
-27.49
-25.11
-24.77
-24.48
-22.87
-20.00
-17.22
-16.43
-18.99
-25.05
-33.30
-41.43
-46.87
-47.71
-43.39
-34.71
-23.29
-10.66
2.32
15.43
28.63
41.45
53.07
62.88
71.07
78.80
87.61
98.34
110.54
122.66
132.84
139.93
143.99
146.10
147.87
150.69
155.29
161.22
166.66
168.50
163.28
148.77
125.57
97.88
72.50
56.34
53.24
61.91
76.14
87.30
87.90
74.36
47.70
12.13
-27.47
-67.49
-106.13
-142.60
-175.86
-204.11
-225.32
-238.20
-243.09
-241.63
-235.80
-226.64
-213.95
-196.84
-174.73
-147.96
-117.49
-84.08
-47.69
-7.73
35.73
80.62
122.42
154.92
172.15
170.50
149.91
113.78
67.65
17.44
-31.95
-77.15
-116.35
-149.07
-175.93
-198.39
-218.22
-236.54
-252.78
-264.10
-265.91
-253.38
-223.40
-176.02
-114.80
-45.96
23.16
85.86
137.32
175.10
199.27
212.02
216.88
217.60
217.02
215.94
212.72
203.69
184.51
152.47
108.69
59.29
14.26
-15.81
-23.85
-9.31
21.79
59.61
94.63
120.47
134.38
135.72
124.16
99.25
61.53
14.17
-36.73
-83.60
-119.94
-142.26
-150.43
-146.63
-134.17
-116.66
-97.67
-80.54
-67.71
-60.41
-58.39
-60.37
-64.30
-67.41
-65.68
-53.86
-26.64
18.98
81.17
152.41
221.15
275.72
308.35
317.59
307.75
286.53
262.02
240.50
225.55
218.18
217.45
221.05
226.00
229.23
227.96
220.27
205.37
183.63
156.69
127.48
99.98
78.53
66.79
66.62
77.41
96.06
117.84
137.67
151.37
156.46
152.32
139.83
120.74
97.39
72.52
49.51
32.40
25.36
31.68
52.23
84.58
123.03
160.09
188.58
203.67
203.88
190.66
167.22
137.30
104.31
70.78
38.18
6.81
-24.45
-57.80
-95.70
-139.53
-188.00
-236.44
-277.40
-302.56
-305.73
-285.63
-247.11
-200.21
-157.30
-129.20
-121.61
-133.48
-157.85
-185.18
-207.76
-223.14
-235.32
-252.43
-282.13
-326.98
-382.11
-436.77
-479.02
-501.03
-502.06
-487.79
-466.56
-444.70
-424.24
-403.62
-380.60
-355.24
-330.74
-311.84
-302.06
-301.52
-306.70
-312.28
-313.71
-309.24
-300.37
-290.72
-283.69
-280.31
-278.16
-271.86
-254.96
-222.29
-171.72
-104.90
-26.14
59.15
146.46
233.32
319.23
404.84
490.96
577.86
664.61
748.76
825.92
889.53
931.88
945.90
927.82
878.93
805.59
717.17
622.98
529.73
440.35
354.86
272.23
192.57
117.86
51.18
-4.94
-49.82
-85.14
-114.25
-140.83
-167.68
-195.26
-222.02
-245.68
-264.52
-277.75
-285.24
-286.94
-282.70
-272.78
-257.45
-237.20
-212.81
-185.30
-155.60
-124.50
-93.02
-61.10
-32.16
-10.97
-0.88
-1.66
-10.09
-21.19
-29.33
-29.75
-21.80
-8.64
3.82
8.35
-1.00
-26.48
-65.18
-109.78
-151.70
-182.43
-197.29
-194.36
-174.34
-140.85
-101.46
-66.71
-46.94
-48.30
-69.93
-102.56
-129.95
-135.98
-109.78
-54.28
12.34
66.61
96.65
102.89
90.80
71.30
55.59
50.55
56.03
66.14
73.06
70.70
56.56
33.00
7.28
-11.99
-18.21
-8.89
14.86
50.11
92.98
137.84
177.33
203.50
208.96
189.18
144.87
83.26
17.17
-38.38
-70.74
-73.18
-45.68
5.24
68.39
130.67
179.91
206.97
206.66
177.82
123.50
51.25
-27.21
-97.88
-147.33
-166.40
-153.13
-113.48
-59.74
-6.52
33.38
51.91
46.92
21.89
-15.24
-53.83
-83.19
-95.67
-89.54
-70.07
-47.86
-34.98
-40.42
-67.53
-113.69
-172.02
-233.63
-289.21
-330.09
-349.31
-343.19
-312.69
-263.63
-205.16
-146.53
-94.27
-50.74
-14.82
16.00
43.63
68.48
89.91
107.34
121.29
133.83
148.33
168.29
195.62
228.77
262.07
286.77
293.62
276.06
232.31
165.85
84.22
-3.08
-86.64
-158.76
-214.17
-250.51
-268.01
-269.05
-256.94
-234.78
-204.22
-165.12
-116.47
-57.95
8.20
76.47
138.67
185.82
210.36
207.94
178.41
126.00
58.76
-12.66
-76.73
-123.04
-144.59
-139.31
-110.48
-65.76
-15.03
32.13
68.78
91.75
101.66
101.77
96.52
89.73
83.46
77.85
71.84
64.62
56.71
50.29
48.17
52.52
63.75
80.10
98.15
113.72
122.72
121.80
109.10
84.78
51.34
13.42
-23.22
-52.92
-71.63
-77.76
-72.48
-59.19
-42.42
-26.54
-14.55
-7.65
-5.35
-6.12
-8.08
-9.65
-9.77
-8.17
-5.28
-2.09
0.21
0.54
-1.69
-6.50
-13.37
-21.34
-29.10
-34.99
-37.21
-34.12
-24.93
-10.29
7.63
25.60
40.46
50.15
54.24
53.61
49.68
43.51
35.56
25.78
14.04
0.48
-14.47
-30.06
-45.22
-58.53
-68.33
-73.11
-71.99
-65.15
-53.92
-40.48
-27.49
-17.71
-13.74
-17.72
-30.39
-50.29
-73.23
-92.68
-101.41
-93.63
-67.07
-24.07
28.40
80.42
121.76
144.69
146.27
129.21
100.86
70.83
48.00
38.05
42.08
56.76
75.79
92.16
100.46
98.53
87.81
72.49
57.49
46.51
40.92
39.91
41.75
44.84
48.20
50.88
51.45
48.12
39.79
27.14
12.99
1.47
-3.80
-1.24
8.09
20.93
33.08
40.93
42.44
37.57
28.19
17.27
7.96
2.53
1.77
4.95
10.50
16.76
22.58
27.49
31.46
34.63
37.17
39.30
41.08
42.12
41.40
37.59
29.89
19.03
7.87
0.85
2.26
14.14
34.91
59.29
80.04
90.50
86.73
68.48
38.59
1.65
-37.18
-72.73
-100.03
-114.83
-114.85
-101.13
-78.51
-54.19
-34.95
-24.20
-20.77
-20.28
-18.18
-12.70
-5.86
-1.89
-4.34
-13.75
-27.35
-40.83
-50.66
-55.47
-55.74
-52.19
-44.18
-29.67
-6.64
24.84
61.21
96.16
122.86
137.03
138.81
132.84
126.11
124.83
131.98
146.26
163.04
176.49
181.37
174.35
154.05
121.17
78.85
32.92
-8.62
-37.69
-49.47
-45.57
-34.57
-29.09
-39.98
-70.51
-113.81
-155.28
-179.20
-176.04
-146.63
-101.27
-54.48
-18.35
1.91
8.46
7.66
5.84
6.08
7.75
8.38
5.98
0.43
-6.87
-14.70
-23.37
-34.70
-50.81
-71.94
-95.33
-115.69
-127.24
-126.17
-112.46
-89.99
-65.07
-44.09
-31.35
-27.75
-30.86
-36.13
-38.71
-35.22
-24.84
-9.54
6.71
19.34
24.61
20.78
8.60
-9.04
-27.91
-43.70
-53.23
-55.35
-51.13
-43.39
-35.49
-29.86
-27.12
-25.79
-23.14
-16.75
-5.92
7.49
19.61
26.31
25.33
17.75
7.81
1.17
2.35
12.77
30.22
50.10
67.63
79.85
86.45
89.10
90.01
90.34
89.61
86.10
78.07
64.93
47.75
28.83
10.54
-5.76
-20.33
-34.59
-50.05
-67.18
-85.02
-101.75
-115.71
-126.42
-134.68
-142.01
-149.71
-158.00
-165.91
-171.55
-172.74
-167.54
-154.58
-133.27
-103.65
-66.47
-23.31
23.28
69.81
112.50
148.26
175.62
195.25
209.47
220.94
231.11
239.22
242.78
239.10
227.24
208.81
187.36
166.63
148.78
133.79
120.24
107.01
94.52
84.88
80.28
81.47
87.15
94.57
100.91
104.24
103.57
98.20
87.45
69.76
43.93
11.08
-23.72
-51.84
-64.03
-54.30
-22.95
23.91
75.40
120.16
150.80
166.04
169.83
168.17
165.49
162.67
158.68
150.69
136.34
114.70
86.59
53.70
17.58
-20.19
-64.21
-110.91
-151.08
-174.90
-179.06
-169.15
-155.33
-148.80
-156.26
-178.31
-209.12
-241.04
-266.12
-278.76
-276.85
-261.28
-235.24
-202.88
-168.01
-132.84
-99.71
-70.96
-48.74
-33.97
-25.74
-22.13
-21.03
-21.28
-22.18
-23.98
-27.06
-31.57
-37.25
-43.57
-50.32
-57.33
-63.94
-68.19
-67.50
-59.84
-45.24
-26.24
-6.90
8.75
18.85
24.12
26.64
27.67
26.16
18.93
2.87
-22.65
-55.07
-89.17
-119.18
-141.17
-153.82
-157.86
-154.36
-143.31
-123.59
-94.97
-59.12
-20.15
16.21
44.48
61.02
64.99
58.37
44.94
28.11
10.25
-7.90
-26.76
-47.10
-69.30
-92.90
-116.45
-133.30
-137.30
-124.86
-97.41
-60.86
-22.22
13.50
44.16
69.80
91.21
108.20
120.13
126.38
127.24
124.18
119.43
115.16
112.93
113.31
115.31
117.44
118.26
117.08
114.13
110.21
106.16
102.57
99.88
97.16
93.57
88.59
82.37
75.67
69.61
65.24
63.35
64.40
67.95
73.49
80.48
88.53
97.45
107.23
117.84
129.19
141.18
153.12
164.21
173.84
181.62
187.45
191.17
192.18
189.23
183.60
175.32
164.15
149.95
132.92
113.53
92.38
70.04
47.03
23.99
1.17
-21.60
-44.24
-66.24
-86.81
-105.28
-121.49
-135.61
-147.99
-159.30
-171.79
-187.22
-205.98
-226.96
-248.25
-267.91
-284.19
-295.51
-300.83
-303.02
-304.16
-303.56
-297.74
-283.03
-258.26
-225.53
-189.58
-156.17
-135.52
-133.28
-147.44
-169.95
-192.24
-210.54
-226.33
-244.17
-268.48
-309.00
-370.79
-451.53
-542.54
-633.47
-715.71
-782.41
-828.36
-803.41
-684.68
-488.94
-266.08
-66.24
84.66
185.21
247.13
284.04
306.19
312.01
299.39
271.27
236.73
205.83
183.32
171.12
167.56
169.28
167.56
156.46
135.79
111.04
88.69
72.59
63.33
59.08
57.46
53.26
43.80
28.08
9.64
-7.00
-18.93
-25.41
-27.57
-27.27
-28.02
-32.26
-40.20
-49.64
-57.78
-62.62
-63.44
-60.81
-56.06
-51.30
-48.07
-46.55
-45.21
-41.76
-34.11
-20.95
-2.11
21.68
49.17
79.33
111.85
147.29
186.61
230.52
279.05
331.18
384.71
436.48
482.57
518.55
540.36
545.03
531.60
501.63
459.12
409.58
358.45
309.56
264.38
222.56
183.33
146.99
115.78
93.10
81.30
79.28
81.46
79.41
65.34
35.87
-6.13
-52.62
-93.95
-122.85
-136.60
-136.70
-126.89
-111.08
-92.72
-75.32
-63.09
-60.83
-71.97
-96.44
-129.67
-163.98
-191.55
-207.19
-209.50
-200.05
-181.68
-156.91
-127.48
-94.83
-60.54
-26.23
6.66
37.16
64.25
86.26
100.91
106.01
100.97
87.88
71.20
56.08
46.15
42.44
43.54
47.28
52.07
57.36
63.08
68.63
72.39
72.26
66.72
55.77
41.27
26.22
13.52
4.96
0.83
0.12
1.40
3.46
5.63
7.64
9.24
9.93
8.94
5.73
0.34
-6.31
-12.55
-16.55
-16.96
-13.39
-6.57
1.93
10.18
16.26
18.55
16.02
8.53
-2.89
-15.99
-27.69
-35.06
-36.36
-31.63
-22.53
-11.64
-1.38
6.50
11.07
12.05
9.54
4.10
-3.11
-10.40
-15.97
-18.64
-18.35
-16.07
-13.16
-10.39
-7.57
-3.71
2.16
10.24
19.63
28.69
35.66
39.27
38.99
35.03
28.08
19.05
9.19
0.04
-6.69
-9.70
-8.72
-4.94
-0.72
1.43
0.16
-3.94
-8.58
-11.01
-9.66
-5.16
-0.00
2.83
1.74
-2.52
-7.27
-9.50
-7.60
-2.29
4.04
8.74
10.45
9.74
8.53
8.88
11.79
16.79
22.24
26.11
26.62
22.60
13.51
-0.44
-18.11
-37.21
-54.61
-67.18
-72.86
-71.52
-64.93
-55.92
-47.12
-40.06
-34.98
-31.28
-28.22
-25.29
-22.05
-17.81
-11.43
-1.81
11.26
26.27
39.86
47.82
46.77
35.64
16.54
-6.01
-26.63
-41.02
-47.21
-45.82
-39.13
-29.97
-20.66
-12.63
-6.52
-2.36
0.15
1.58
2.50
3.30
4.16
4.94
5.50
5.86
6.20
6.49
6.48
5.41
2.26
-3.72
-12.31
-21.75
-29.02
-30.84
-25.22
-12.45
4.64
21.60
33.98
38.96
36.28
28.01
17.59
8.27
2.04
-0.75
-1.07
-0.35
0.16
-0.03
-0.86
-1.89
-2.82
-4.01
-6.58
-12.00
-21.19
-34.05
-48.85
-62.65
-72.17
-74.87
-69.94
-58.80
-44.76
-31.96
-24.12
-23.15
-28.71
-38.29
-48.37
-55.49
-57.16
-52.34
-41.20
-24.81
-4.83
16.59
36.92
53.58
64.52
69.03
67.99
63.70
58.84
55.35
53.78
53.40
52.90
51.18
47.86
43.20
37.75
32.22
27.42
24.40
24.35
28.10
35.52
45.09
54.16
59.82
60.08
54.74
45.51
35.11
26.13
20.05
16.84
15.47
14.70
13.69
12.42
11.38
10.99
11.25
11.63
11.40
10.08
7.80
5.12
2.67
0.72
-1.04
-3.34
-6.91
-12.18
-19.09
-27.09
-35.34
-42.90
-48.83
-52.08
-51.61
-46.58
-36.77
-22.89
-6.66
9.57
23.71
34.69
42.95
50.03
57.19
64.13
68.31
65.64
52.52
27.96
-5.48
-42.64
-78.06
-108.26
-132.57
-151.81
-166.24
-173.80
-170.71
-153.88
-123.62
-84.66
-44.74
-11.16
12.29
26.08
33.20
36.19
35.09
27.74
11.85
-12.64
-42.73
-73.77
-101.97
-126.31
-148.65
-172.03
-198.37
-227.24
-256.13
-281.33
-299.00
-305.58
-297.95
-274.05
-233.81
-179.92
-117.87
-54.44
4.34
55.10
97.89
135.83
173.79
216.74
268.37
329.83
399.29
472.07
541.75
601.69
646.65
673.67
681.94
672.06
645.26
603.22
548.33
483.82
413.61
341.52
270.44
201.52
134.05
66.11
-4.01
-76.27
-147.94
-213.68
-267.32
-304.05
-322.91
-327.25
-323.17
-316.45
-309.98
-303.75
-296.52
-288.63
-282.51
-281.40
-286.78
-296.14
-303.22
-301.08
-286.67
-263.19
-239.58
-225.12
-224.37
-235.00
-249.50
-259.30
-259.26
-250.31
-237.32
-225.85
-216.54
-203.49
-177.05
-128.93
-56.62
34.97
134.34
228.65
300.16
335.09
332.35
304.41
268.38
235.86
211.67
189.76
164.60
134.88
105.00
82.14
71.58
73.86
84.66
96.79
102.74
98.18
82.39
59.21
35.04
15.82
4.63
1.20
3.15
7.28
11.69
15.66
19.97
25.97
34.33
44.27
53.88
61.21
64.96
65.37
63.68
61.84
61.60
63.76
67.97
73.17
78.46
83.75
90.26
100.01
115.11
136.77
164.81
197.54
232.22
265.81
295.19
317.48
330.04
330.83
319.09
296.02
264.81
230.20
197.09
169.36
148.92
135.79
128.90
127.07
129.68
136.42
146.63
158.67
169.58
175.37
171.97
156.15
126.50
83.84
30.87
-28.61
-90.91
-153.27
-214.26
-273.56
-331.29
-387.33
-440.69
-489.43
-530.52
-560.45
-575.90
-575.12
-559.26
-533.13
-504.69
-482.79
-473.88
-479.10
-493.34
-506.70
-508.16
-489.60
-448.55
-388.69
-318.23
-247.33
-185.30
-138.54
-109.47
-96.36
-94.03
-95.35
-93.48
-83.79
-65.14
-39.70
-11.63
14.73
36.37
52.15
62.58
69.23
74.13
79.63
88.17
102.00
122.03
146.73
171.68
190.45
196.84
187.92
165.99
138.30
114.26
101.26
101.50
111.13
122.58
128.33
124.50
112.09
95.57
79.81
67.17
56.39
43.63
25.17
-0.03
-29.10
-56.16
-74.76
-80.39
-71.91
-51.23
-21.74
13.36
51.81
91.70
130.19
162.87
184.40
190.38
179.55
154.85
122.39
89.14
60.04
36.49
16.71
-2.08
-21.55
-41.03
-58.00
-70.08
-76.86
-80.49
-84.63
-92.49
-104.94
-120.17
-134.74
-145.39
-150.57
-150.53
-146.49
-139.64
-130.94
-121.70
-114.22
-111.23
-114.49
-123.07
-132.46
-135.97
-127.33
-103.43
-65.52
-18.65
30.10
73.53
105.72
123.25
125.87
116.86
102.74
91.39
89.28
98.99
118.22
141.00
160.25
170.41
168.63
154.59
129.52
95.35
54.90
12.21
-27.48
-58.89
-78.57
-86.14
-84.39
-77.94
-70.94
-65.28
-60.55
-55.19
-48.40
-40.99
-34.84
-31.39
-30.42
-30.15
-28.52
-24.61
-19.04
-13.01
-6.94
0.06
9.37
21.13
33.24
42.08
44.56
40.28
32.01
24.25
20.60
21.65
24.85
26.16
22.41
12.68
-1.13
-15.09
-24.50
-25.35
-15.86
2.13
22.46
36.22
35.31
16.83
-14.58
-48.06
-71.44
-77.17
-65.70
-44.29
-22.37
-6.41
2.80
8.54
14.45
21.56
27.86
30.73
29.61
27.08
27.32
33.08
43.38
53.61
58.34
54.49
43.60
31.11
23.41
24.05
31.81
41.52
47.21
45.65
37.90
28.30
21.56
19.76
21.30
22.07
17.98
7.46
-7.81
-24.14
-37.81
-46.98
-52.20
-55.59
-59.37
-64.66
-70.91
-76.48
-79.60
-78.96
-74.22
-65.78
-54.38
-40.76
-25.19
-7.50
12.59
34.69
57.14
77.00
91.18
97.84
97.49
92.76
86.82
81.53
76.57
70.35
61.80
51.82
43.09
38.07
36.91
36.55
32.01
18.96
-4.01
-35.02
-69.86
-103.71
-132.34
-152.41
-161.78
-159.85
-147.94
-129.62
-110.06
-94.48
-86.30
-86.00
-91.23
-98.12
-102.76
-102.21
-94.86
-80.33
-59.68
-35.73
-13.29
1.58
3.66
-8.80
-32.18
-57.94
-75.68
-77.54
-61.70
-33.10
-1.00
25.04
38.71
38.22
25.42
4.25
-20.83
-45.41
-65.56
-78.50
-83.21
-80.80
-73.74
-64.32
-53.44
-40.38
-24.01
-4.11
17.82
39.35
58.54
75.20
90.97
108.07
127.64
148.61
167.88
181.52
186.59
182.43
170.95
155.56
139.46
124.18
109.29
93.33
75.39
56.26
38.36
24.70
17.53
17.51
23.85
35.03
49.50
65.75
81.83
94.79
100.69
95.60
77.20
46.31
7.69
-30.75
-60.33
-74.68
-72.45
-58.08
-40.00
-26.75
-23.03
-27.65
-34.49
-36.02
-27.38
-8.73
15.23
38.02
55.00
65.54
72.69
80.43
90.18
98.81
99.72
86.82
58.80
21.50
-13.84
-35.72
-38.15
-23.68
-2.00
15.07
19.64
10.89
-5.68
-21.82
-30.71
-29.33
-18.49
-1.51
17.31
33.35
41.90
38.78
21.44
-9.45
-49.29
-90.26
-123.61
-142.64
-145.02
-133.21
-112.99
-90.65
-70.47
-53.35
-37.25
-18.78
5.04
36.06
75.15
122.82
179.03
242.19
308.24
370.38
420.33
450.99
458.93
445.47
415.96
377.18
335.24
294.51
258.16
229.30
211.47
207.83
219.34
243.06
271.99
296.72
308.34
301.12
273.67
228.62
170.86
105.48
36.32
-34.20
-104.22
-171.36
-232.05
-282.19
-318.34
-339.11
-345.77
-341.52
-330.01
-313.58
-292.63
-266.28
-234.15
-197.15
-157.49
-117.81
-80.30
-46.44
-17.26
5.85
21.02
25.00
15.99
-4.63
-32.01
-59.42
-80.97
-93.25
-95.69
-89.67
-80.44
-73.22
-71.72
-77.88
-92.59
-116.20
-147.74
-183.67
-218.01
-248.97
-276.42
-301.37
-325.19
-349.68
-376.90
-408.30
-443.41
-479.84
-520.51
-568.30
-623.35
-681.97
-738.45
-788.00
-828.08
-857.86
-837.53
-742.09
-570.90
-351.75
-125.28
75.98
236.38
353.73
432.56
477.85
492.82
478.39
438.21
381.68
321.51
268.17
225.77
191.50
159.88
120.73
68.38
6.80
-51.56
-92.54
-108.26
-100.52
-78.31
-51.88
-30.52
-17.42
-9.26
0.59
17.63
43.21
74.54
106.56
134.09
152.30
159.31
157.80
154.33
157.39
174.13
207.82
256.54
313.31
366.86
404.72
417.05
400.04
357.91
301.94
246.83
205.46
184.09
180.80
187.80
196.68
203.02
207.70
214.25
224.44
235.07
238.61
226.91
195.62
146.30
85.47
21.40
-38.85
-90.42
-130.15
-155.60
-164.66
-156.16
-130.62
-90.60
-40.91
11.93
60.15
95.91
112.81
108.13
83.45
43.87
-4.05
-54.33
-102.12
-142.81
-170.93
-180.40
-166.83
-130.90
-80.14
-27.59
12.80
31.92
29.11
11.76
-8.80
-22.38
-23.91
-13.90
3.59
24.55
47.35
72.46
100.48
130.24
158.30
180.47
194.09
198.93
196.55
188.91
177.51
163.84
150.25
140.16
136.44
139.28
144.84
146.44
137.74
116.02
83.49
45.58
7.69
-27.53
-60.49
-92.87
-125.11
-155.31
-179.99
-195.85
-202.02
-200.79
-196.88
-195.83
-202.27
-218.63
-244.62
-277.28
-311.23
-339.95
-357.54
-360.74
-350.21
-330.39
-307.54
-287.37
-273.05
-264.60
-260.00
-256.98
-254.01
-250.43
-245.07
-234.81
-215.18
-181.49
-130.37
-61.03
24.34
120.66
220.76
316.51
400.86
467.97
514.33
539.46
545.97
538.59
522.22
500.70
476.42
452.27
430.72
414.38
405.86
406.69
415.83
428.44
436.55
431.15
407.04
362.67
301.13
228.85
153.78
83.12
21.66
-28.10
-75.86
-123.47
-167.15
-200.18
-218.06
-221.24
-214.30
-203.45
-193.64
-187.47
-183.30
-178.46
-170.80
-160.00
-147.19
-133.71
-122.84
-117.22
-118.09
-123.72
-131.52
-138.98
-145.04
-149.59
-153.53
-158.62
-166.70
-179.63
-198.25
-223.93
-254.26
-287.09
-318.74
-344.08
-358.08
-357.56
-343.01
-318.22
-289.24
-261.73
-239.18
-221.54
-206.18
-190.37
-172.94
-155.08
-139.34
-128.23
-123.00
-123.65
-129.02
-137.67
-148.59
-161.25
-175.42
-190.38
-204.64
-216.02
-222.46
-222.33
-214.71
-199.57
-177.42
-148.99
-114.90
-75.65
-31.69
16.32
67.55
120.95
175.23
229.02
280.92
329.56
373.90
413.16
446.92
475.23
498.57
517.91
534.96
552.23
572.58
598.01
628.09
658.89
683.62
694.68
686.83
659.62
617.96
570.45
526.02
490.85
466.62
450.74
437.96
422.46
399.25
364.92
318.13
259.70
192.59
121.27
50.59
-15.51
-74.88
-127.41
-174.62
-218.77
-261.81
-304.44
-345.66
-382.77
-412.41
-432.07
-441.68
-444.33
-444.98
-447.60
-452.30
-454.14
-444.90
-417.33
-369.32
-305.74
-236.80
-173.65
-124.11
-90.64
-71.02
-61.25
-57.82
-58.71
-62.52
-67.36
-70.64
-69.97
-64.65
-56.17
-47.73
-42.88
-43.92
-51.09
-62.80
-76.50
-90.24
-103.92
-119.61
-140.72
-169.78
-205.78
-243.03
-272.39
-284.97
-276.53
-250.05
-214.53
-180.59
-155.40
-139.45
-127.46
-111.89
-87.30
-53.14
-13.82
23.40
51.35
65.27
63.93
49.34
26.13
0.06
-23.65
-41.50
-51.55
-52.42
-42.41
-19.74
15.72
60.96
109.24
151.75
180.91
194.13
194.64
189.34
186.00
188.88
197.16
206.68
214.87
220.70
225.03
229.51
235.37
243.14
251.19
258.71
265.74
272.79
279.56
284.45
284.29
275.14
253.62
218.13
170.31
114.88
58.74
8.85
-29.68
-54.77
-67.39
-70.66
-68.47
-64.23
-60.57
-59.68
-63.74
-74.62
-93.24
-118.68
-148.03
-177.02
-201.25
-217.74
-225.74
-227.04
-225.39
-225.70
-232.62
-248.83
-273.61
-302.17
-326.69
-338.85
-332.67
-306.45
-263.01
-208.48
-150.34
-95.52
-49.23
-14.21
9.73
25.70
39.04
55.56
79.20
109.95
143.29
171.44
186.28
182.71
161.03
127.74
94.13
73.03
74.79
103.79
156.70
223.33
289.90
343.16
373.70
377.60
355.87
312.99
255.36
190.62
127.33
74.43
39.47
26.37
33.53
53.60
75.60
88.69
85.73
65.29
31.24
-9.64
-50.71
-87.61
-118.92
-145.32
-167.92
-187.30
-203.30
-215.82
-225.36
-233.07
-240.04
-246.32
-250.09
-247.68
-234.88
-209.17
-171.80
-128.64
-88.84
-61.72
-53.01
-62.18
-82.32
-102.78
-113.67
-109.92
-93.43
-72.02
-55.80
-52.57
-64.28
-86.23
-109.32
-124.28
-126.08
-116.11
-101.12
-89.50
-86.63
-92.70
-103.63
-114.41
-122.52
-129.00
-136.66
-147.15
-159.03
-168.49
-172.06
-169.16
-162.58
-156.71
-154.63
-156.38
-159.21
-159.45
-154.61
-144.35
-130.10
-114.08
-98.39
-84.78
-74.53
-68.35
-66.08
-66.16
-65.94
-62.05
-51.27
-31.35
-1.93
34.80
73.95
108.78
132.90
142.61
138.60
125.90
111.72
102.04
98.65
98.23
94.19
80.06
53.08
15.93
-24.15
-58.36
-79.69
-85.00
-75.22
-53.91
-25.31
7.38
42.80
81.11
122.81
167.74
214.63
261.50
306.90
350.72
394.46
440.28
489.37
540.22
588.21
626.79
649.97
655.01
643.75
621.73
595.58
570.24
547.41
525.75
502.46
474.77
440.68
398.68
347.46
286.40
217.05
144.13
75.00
16.96
-26.62
-58.75
-88.23
-125.51
-177.42
-243.48
-315.81
-382.55
-432.64
-459.41
-461.79
-443.18
-409.57
-367.83
-324.63
-285.49
-253.68
-229.47
-210.50
-193.20
-174.76
-154.90
-135.91
-121.39
-114.51
-116.59
-126.94
-143.43
-163.32
-183.79
-202.12
-215.78
-222.94
-223.09
-217.48
-208.97
-200.71
-194.67
-190.34
-185.06
-175.78
-161.50
-145.00
-132.28
-129.63
-139.89
-159.81
-180.54
-191.03
-182.92
-154.17
-109.66
-58.55
-10.40
27.95
53.50
65.91
65.87
53.77
29.97
-4.34
-46.25
-91.43
-135.33
-174.68
-208.09
-235.41
-256.46
-269.92
-273.53
-265.40
-245.77
-217.86
-186.91
-158.25
-135.19
-118.20
-105.60
-95.36
-86.31
-78.36
-71.53
-64.60
-54.56
-37.12
-8.71
31.68
81.33
134.19
183.17
222.83
251.70
272.38
290.16
310.09
334.72
362.86
390.63
413.63
429.30
438.02
442.66
446.96
453.66
463.31
474.45
484.47
491.06
492.96
490.21
483.62
474.70
465.69
459.58
459.05
464.73
473.45
477.79
468.10
436.08
378.47
298.59
204.85
107.35
14.26
-69.78
-143.29
-205.67
-255.89
-292.52
-315.03
-325.32
-328.39
-331.37
-341.07
-361.14
-389.98
-420.77
-443.65
-449.26
-432.08
-392.27
-335.36
-270.35
-206.95
-153.37
-115.23
-95.19
-92.98
-105.60
-127.48
-151.30
-169.43
-175.85
-167.86
-146.76
-117.28
-85.81
-58.51
-39.33
-29.08
-25.90
-26.35
-27.07
-25.95
-22.45
-16.80
-8.91
2.44
19.23
42.83
72.66
105.13
134.10
152.54
154.68
137.57
101.79
51.13
-7.96
-66.70
-114.95
-142.83
-143.40
-115.31
-64.34
-2.34
56.23
98.79
119.37
120.04
109.06
96.39
88.88
87.27
86.30
77.56
53.71
13.70
-35.68
-82.23
-113.56
-122.58
-110.20
-84.42
-56.70
-38.03
-33.68
-42.72
-60.61
-82.90
-107.47
-134.61
-165.60
-200.92
-239.91
-278.00
-307.95
-322.73
-318.73
-297.63
-265.90
-232.41
-197.89
-166.98
-144.49
-132.16
-127.59
-127.35
-130.12
-138.17
-152.12
-170.26
-189.61
-205.25
-212.48
-208.90
-195.46
-176.17
-155.57
-136.58
-119.75
-104.36
-87.92
-67.68
-42.55
-14.03
14.25
38.22
55.11
64.12
66.26
64.54
62.78
63.87
68.67
76.20
84.73
93.52
103.24
115.84
134.09
160.16
194.48
235.50
280.64
327.31
373.07
414.96
449.04
471.42
480.42
478.75
474.12
476.82
495.27
531.72
580.66
631.11
671.49
694.19
697.61
684.73
660.17
627.26
587.33
540.87
488.88
433.33
376.12
317.71
255.97
186.82
106.28
13.76
-85.73
-181.33
-258.77
-304.96
-312.96
-285.30
-234.05
-177.71
-135.14
-119.30
-133.04
-169.03
-214.08
-254.71
-282.43
-295.45
-298.42
-298.14
-299.18
-301.54
-301.77
-296.85
-286.44
-273.05
-259.03
-246.40
-234.61
-220.90
-201.76
-175.73
-145.57
-116.42
-92.89
-75.44
-63.96
-58.12
-58.05
-63.85
-75.93
-95.76
-124.27
-159.93
-196.11
-227.18
-249.77
-263.89
-271.11
-262.65
-230.36
-169.77
-94.05
-6.84
86.76
178.81
253.55
296.31
299.34
263.34
195.17
103.95
7.77
-75.62
-132.98
-157.98
-149.14
-117.47
-70.65
-18.39
28.13
60.84
73.74
66.73
44.94
19.94
4.91
8.89
30.89
60.82
85.56
92.89
77.76
44.32
3.73
-32.82
-59.56
-79.33
-99.28
-123.64
-150.36
-170.47
-172.33
-148.00
-98.89
-35.99
24.00
66.72
86.63
87.52
78.70
68.75
61.22
53.56
40.39
17.18
-16.43
-56.02
-94.42
-124.20
-139.45
-136.18
-112.30
-67.65
-5.17
68.11
141.13
200.74
235.67
240.92
220.44
186.02
152.46
131.27
125.79
130.50
134.57
127.68
104.31
65.32
15.69
-39.02
-95.31
-152.35
-210.67
-270.38
-329.82
-385.41
-432.22
-464.69
-477.71
-467.97
-435.32
-383.26
-318.42
-248.67
-180.97
-119.89
-67.66
-25.37
5.89
24.77
30.82
25.77
14.29
3.40
0.77
12.76
42.73
89.92
148.93
210.66
264.14
299.58
311.27
298.99
267.24
222.76
171.76
118.59
65.93
16.22
-27.19
-60.27
-79.65
-84.04
-74.83
-55.24
-28.96
0.88
31.92
62.08
89.14
111.00
126.20
134.47
136.87
135.38
132.06
128.29
124.16
118.26
108.47
93.33
73.50
52.52
35.83
28.52
32.66
45.94
62.23
74.23
76.59
68.05
51.62
32.62
16.17
5.29
0.33
-0.26
1.41
3.80
6.44
9.78
14.42
20.50
27.36
33.83
38.93
42.60
45.79
49.91
55.77
62.69
68.45
70.11
65.26
53.27
35.69
16.01
-1.20
-11.60
-12.33
-3.14
13.16
31.23
44.69
48.16
38.94
17.57
-12.91
-48.49
-85.54
-121.36
-154.09
-182.41
-205.71
-224.65
-241.24
-258.18
-277.38
-298.26
-317.24
-328.67
-326.97
-309.02
-275.58
-231.01
-181.73
-134.12
-92.77
-59.78
-35.06
-17.23
-4.47
4.75
11.65
17.20
22.39
28.28
35.90
46.01
59.12
75.60
95.72
119.45
145.96
173.26
198.21
217.14
226.91
225.97
215.01
196.69
174.66
152.05
130.34
108.95
85.93
59.31
28.56
-4.39
-35.33
-58.88
-70.26
-67.10
-50.20
-23.31
8.30
39.26
65.09
82.57
89.62
85.39
70.71
48.51
23.63
1.81
-12.36
-17.23
-14.82
-9.80
-7.15
-10.00
-18.67
-31.35
-45.55
-59.22
-71.05
-79.92
-84.23
-82.04
-71.84
-53.40
-28.22
0.79
30.29
57.45
80.60
99.34
114.26
126.39
136.72
145.74
153.26
158.57
160.96
160.61
158.80
157.67
159.14
163.70
169.83
174.36
173.84
165.93
150.41
129.03
104.32
78.42
52.20
25.66
-1.09
-26.86
-49.19
-65.47
-74.61
-78.31
-80.98
-88.13
-103.89
-128.90
-159.74
-190.23
-213.99
-226.83
-228.11
-220.10
-206.31
-189.65
-171.19
-150.03
-124.22
-92.25
-54.23
-12.83
27.17
60.29
82.16
91.21
89.10
79.70
67.14
54.30
42.37
31.84
23.95
21.22
26.50
41.02
63.08
88.76
114.08
137.28
159.22
181.56
203.77
221.54
227.66
215.31
181.78
129.86
66.40
-1.18
-67.56
-129.99
-186.54
-234.55
-270.90
-293.88
-305.34
-310.61
-315.64
-323.45
-332.07
-335.52
-327.32
-303.80
-265.46
-216.19
-161.38
-106.96
-59.41
-25.67
-11.35
-17.74
-39.19
-64.04
-79.28
-76.35
-54.69
-21.21
14.46
45.60
71.15
94.66
119.75
145.95
168.27
180.62
179.09
163.93
138.58
106.60
71.16
34.48
-1.19
-31.86
-51.42
-55.48
-44.67
-25.64
-9.57
-4.08
-10.39
-23.25
-33.54
-31.28
-11.34
24.50
68.37
108.00
135.15
146.39
142.73
129.82
118.09
117.96
135.91
171.89
217.64
265.66
310.35
348.77
364.41
346.29
293.17
215.23
143.74
83.51
32.31
-10.39
-47.68
-76.28
-89.98
-85.34
-64.38
-35.21
-10.87
0.17
-4.84
-23.39
-47.95
-67.77
-73.95
-62.23
-34.60
1.92
37.69
64.23
75.70
72.26
59.60
43.54
31.25
19.76
4.91
-12.34
-26.44
-31.07
-22.70
-1.29
28.19
57.58
77.96
83.50
73.10
49.73
18.10
-16.78
-50.86
-81.79
-108.51
-131.31
-150.22
-164.92
-174.63
-178.75
-177.12
-171.10
-163.68
-158.67
-159.31
-165.87
-175.59
-183.55
-185.07
-177.77
-162.81
-144.24
-126.83
-113.83
-105.25
-98.32
-88.62
-72.07
-46.16
-10.84
31.37
76.11
118.15
152.83
176.83
188.76
189.06
179.59
163.18
143.04
122.53
104.85
92.53
86.90
88.06
95.34
107.84
124.54
143.79
162.73
177.54
184.85
183.40
175.14
164.85
158.28
159.73
170.25
187.33
206.35
222.59
232.57
234.44
227.55
212.07
188.91
159.69
126.24
90.68
55.05
21.09
-10.10
-38.25
-63.64
-86.74
-108.40
-130.74
-155.33
-182.34
-210.24
-236.89
-260.94
-282.50
-302.29
-321.00
-340.11
-358.13
-369.96
-368.60
-348.80
-310.61
-259.95
-206.05
-160.01
-134.88
-138.67
-171.38
-224.63
-285.03
-338.90
-375.58
-388.29
-377.45
-354.34
-333.30
-327.05
-342.84
-381.64
-439.85
-509.46
-578.11
-599.28
-541.72
-402.38
-211.36
-13.50
155.13
276.49
341.07
364.43
362.58
344.41
317.22
287.44
260.11
240.55
226.42
210.83
189.31
160.46
124.19
84.10
45.14
12.14
-12.11
-26.48
-30.74
-23.72
-6.09
17.57
41.76
61.55
74.72
81.03
83.10
84.13
87.62
95.96
110.51
133.41
167.37
214.27
273.03
342.12
412.01
468.40
498.64
499.04
477.20
445.62
422.93
407.84
393.93
374.63
345.24
305.35
252.83
190.88
124.23
54.67
-19.96
-98.97
-176.29
-245.26
-300.54
-340.32
-375.60
-408.32
-436.89
-459.22
-471.82
-463.45
-431.90
-381.92
-323.49
-267.68
-221.66
-188.57
-167.05
-151.58
-136.61
-120.93
-105.33
-90.29
-73.48
-48.97
-11.71
39.64
101.93
167.66
226.14
268.76
291.51
295.35
284.79
264.26
236.78
204.39
169.67
135.51
106.06
85.34
75.68
76.86
84.74
92.55
92.28
77.73
44.95
-6.57
-73.89
-150.45
-226.29
-290.25
-332.14
-345.87
-329.48
-286.42
-224.42
-153.56
-83.24
-19.73
34.36
80.39
121.63
163.73
207.96
251.05
285.24
302.50
299.95
280.79
259.16
239.02
219.79
198.50
172.56
141.79
106.76
72.05
41.80
17.47
-3.97
-26.69
-55.31
-93.57
-143.73
-205.76
-276.04
-347.47
-409.87
-452.99
-468.23
-452.85
-411.64
-355.45
-296.82
-245.27
-205.24
-176.40
-156.50
-142.62
-132.76
-125.33
-118.10
-107.84
-91.23
-67.33
-38.48
-9.43
15.88
36.72
56.11
78.68
107.47
141.88
177.40
208.11
229.80
241.96
247.17
248.69
248.27
245.33
238.26
226.13
209.91
192.33
176.74
165.75
160.65
161.13
165.64
171.77
176.51
176.70
169.53
153.04
126.59
91.03
48.45
1.77
-45.51
-89.52
-126.02
-151.19
-162.95
-162.34
-153.83
-143.92
-138.67
-141.03
-149.75
-160.18
-166.36
-163.13
-147.32
-117.72
-75.04
-22.34
34.55
86.67
123.35
134.85
115.78
67.56
-1.19
-76.87
-144.69
-192.65
-214.60
-211.27
-189.02
-157.10
-124.25
-96.22
-74.76
-58.42
-44.37
-30.28
-15.21
0.71
16.89
33.09
49.69
67.40
86.33
105.64
123.15
136.31
143.54
145.22
143.25
139.49
134.19
125.70
112.29
94.70
77.36
66.71
66.99
76.24
86.00
85.39
67.99
36.96
4.53
-14.47
-11.45
10.30
36.19
47.45
30.45
-17.15
-86.18
-161.40
-228.61
-279.29
-311.05
-324.08
-317.80
-290.45
-242.05
-177.95
-109.82
-52.37
-17.04
-6.25
-12.10
-20.18
-16.92
3.92
39.27
79.32
113.31
134.93
144.25
146.09
146.28
148.04
150.90
152.67
152.49
153.05
160.16
178.99
209.72
246.00
277.49
295.66
298.69
292.20
284.70
280.82
277.19
264.54
235.08
189.53
138.82
98.74
80.11
81.67
90.00
87.05
60.89
12.37
-46.35
-99.50
-136.64
-156.98
-167.30
-175.97
-187.63
-201.60
-214.65
-224.73
-232.61
-240.38
-248.61
-254.39
-252.38
-237.78
-209.59
-171.72
-130.92
-93.76
-63.79
-40.74
-21.28
-1.07
23.28
52.73
85.43
117.22
142.37
154.67
148.82
122.34
77.47
21.97
-32.27
-72.86
-91.51
-87.37
-67.30
-42.64
-23.94
-16.70
-20.02
-28.57
-36.25
-39.25
-37.42
-33.30
-30.39
-31.55
-37.58
-47.10
-56.70
-62.00
-59.51
-48.39
-31.44
-14.46
-3.96
-4.38
-16.46
-37.41
-62.72
-88.19
-110.68
-127.48
-135.41
-130.82
-111.42
-78.32
-37.19
2.96
33.08
47.78
47.36
37.03
23.82
13.11
6.30
1.12
-6.11
-17.39
-31.06
-41.89
-43.27
-30.52
-3.80
31.10
64.68
87.88
96.35
92.52
84.08
79.52
83.35
93.81
104.37
108.08
101.85
88.19
73.26
62.98
59.42
60.06
59.86
54.77
43.98
29.77
15.45
3.09
-7.20
-16.38
-25.15
-33.15
-39.48
-43.83
-47.03
-50.65
-55.70
-61.65
-66.34
-67.21
-62.67
-52.90
-39.67
-25.26
-11.50
0.59
10.58
18.29
23.70
27.06
28.92
30.09
31.38
33.26
35.74
38.47
41.11
43.79
47.36
53.34
63.60
79.84
102.59
130.00
157.39
178.09
186.21
179.32
160.63
138.36
122.55
120.21
131.60
149.98
164.93
168.43
158.03
137.38
113.08
90.73
71.88
54.10
33.17
6.77
-21.90
-46.82
-61.97
-64.64
-55.94
-39.71
-20.33
-1.04
16.40
33.80
52.34
71.38
88.04
100.05
107.67
114.12
124.28
141.92
170.98
210.74
255.90
297.86
329.50
347.24
351.45
345.61
313.62
249.11
157.69
58.14
-27.40
-83.50
-107.88
-109.59
-102.26
-98.27
-101.95
-113.23
-125.96
-141.77
-162.36
-187.35
-214.08
-237.72
-253.73
-256.84
-245.14
-221.45
-192.46
-164.33
-140.79
-124.36
-115.00
-110.96
-107.27
-98.75
-83.25
-62.32
-39.17
-18.07
-3.54
1.88
-2.45
-14.21
-30.34
-50.47
-76.26
-108.14
-143.75
-177.70
-201.60
-208.88
-197.59
-163.34
-113.38
-63.55
-27.82
-9.42
-6.09
-6.16
-2.85
3.01
5.49
0.99
-12.05
-29.75
-45.32
-53.42
-52.37
-45.71
-39.61
-39.99
-51.72
-76.83
-113.49
-157.41
-203.68
-247.39
-285.35
-315.89
-338.93
-356.65
-372.21
-387.88
-404.60
-421.31
-434.69
-440.16
-432.57
-408.08
-366.20
-310.32
-246.41
-181.32
-121.00
-69.22
-27.65
3.81
26.01
40.03
47.12
49.54
50.67
54.36
63.80
80.19
102.37
127.07
150.02
167.74
179.13
185.95
192.12
202.34
220.72
250.28
291.54
342.15
396.86
448.61
490.17
516.11
524.60
517.67
501.15
480.40
457.55
430.76
396.39
352.06
299.34
244.03
194.09
158.10
139.66
135.87
138.92
140.42
134.74
121.24
103.89
88.94
84.93
96.99
124.41
160.72
196.92
224.41
238.11
237.90
213.04
162.60
94.27
20.18
-50.77
-115.92
-177.00
-235.31
-289.46
-336.14
-369.21
-384.17
-379.84
-362.16
-335.68
-305.03
-274.68
-248.14
-227.42
-210.45
-194.33
-177.15
-158.89
-140.28
-122.27
-105.13
-87.08
-67.88
-47.62
-28.20
-12.98
-5.29
-6.19
-14.31
-26.03
-36.80
-43.11
-42.83
-36.42
-26.55
-16.89
-10.28
-8.26
-10.97
-17.50
-26.73
-37.26
-47.85
-57.54
-65.71
-71.94
-76.21
-78.64
-79.19
-77.71
-74.21
-69.34
-64.67
-62.32
-63.92
-69.65
-77.82
-85.25
-88.42
-84.58
-72.59
-53.07
-28.17
-0.99
25.01
46.48
60.92
67.13
65.59
58.31
48.24
38.36
30.92
27.12
27.12
30.54
36.99
46.30
58.38
72.82
88.53
103.79
116.72
126.16
132.17
135.92
138.88
142.12
145.82
149.26
151.11
149.84
144.12
133.09
116.75
96.15
73.57
52.40
36.39
28.25
28.16
33.00
37.00
33.97
20.14
-3.80
-32.74
-59.45
-78.04
-86.71
-88.25
-88.32
-92.22
-102.66
-119.36
-140.38
-163.66
-187.54
-210.30
-229.30
-241.25
-243.45
-235.27
-218.58
-196.97
-173.92
-151.34
-129.45
-107.85
-86.86
-68.02
-53.46
-44.35
-40.02
-38.15
-35.74
-30.49
-21.53
-9.30
4.97
19.86
34.31
47.13
56.93
62.62
64.41
64.47
66.74
75.73
94.68
124.73
163.31
204.49
240.71
264.92
272.72
263.40
239.40
205.28
167.13
130.81
101.10
81.26
72.64
74.30
83.21
94.99
100.35
93.34
73.84
48.22
25.30
10.95
5.44
5.35
6.90
7.64
7.48
9.08
11.71
13.69
14.26
14.31
16.19
22.46
34.01
50.37
65.70
75.37
75.63
63.81
37.58
-3.48
-56.07
-112.83
-163.08
-196.97
-209.63
-206.67
-196.09
-186.85
-185.04
-191.76
-204.20
-217.48
-227.79
-233.50
-234.39
-229.68
-218.04
-197.19
-163.22
-117.67
-67.27
-22.47
6.21
12.85
-0.96
-27.22
-53.12
-65.90
-58.65
-32.11
6.34
46.46
80.30
104.17
117.87
125.79
135.08
152.12
180.78
220.65
266.85
312.45
350.01
372.85
379.61
373.83
359.92
340.49
315.09
274.58
215.22
148.90
83.86
23.83
-27.72
-70.83
-108.82
-146.26
-186.21
-227.38
-265.50
-296.39
-315.43
-319.53
-309.36
-289.02
-264.30
-240.61
-220.39
-203.69
-189.79
-176.05
-158.79
-135.08
-103.32
-63.63
-17.93
30.93
79.28
122.92
159.33
187.92
208.93
222.58
228.51
225.89
214.24
193.80
165.61
132.06
96.68
63.39
35.97
17.34
8.80
9.74
17.38
27.54
35.96
39.49
36.51
26.85
11.41
-8.31
-30.51
-53.43
-75.53
-95.72
-113.25
-127.32
-136.75
-139.98
-135.67
-123.53
-104.79
-81.93
-57.87
-35.11
-15.33
0.31
10.87
15.71
15.08
10.70
5.49
2.37
2.76
5.81
8.96
9.30
5.02
-4.04
-16.86
-32.15
-48.73
-65.40
-80.51
-92.06
-98.16
-97.90
-91.71
-81.08
-67.77
-53.14
-38.08
-23.32
-9.88
1.17
9.05
13.75
16.12
17.47
18.91
20.90
23.22
25.21
26.20
25.71
23.64
20.23
16.08
12.13
9.42
8.84
10.58
13.89
17.16
18.54
16.78
12.02
5.91
1.11
0.13
4.32
13.23
24.68
35.52
42.62
43.79
38.39
27.58
14.22
2.18
-4.73
-4.03
4.28
17.57
31.46
41.45
44.71
40.99
32.37
22.12
13.18
7.18
4.25
3.57
3.96
4.37
4.03
2.47
-0.46
-4.53
-9.20
-13.77
-17.74
-21.02
-23.84
-26.49
-29.07
-31.31
-32.64
-32.48
-30.49
-26.72
-21.73
-16.57
-12.72
-11.83
-15.12
-22.48
-32.03
-40.34
-43.69
-39.79
-29.08
-14.76
-1.41
7.05
9.07
5.76
-0.14
-5.95
-10.31
-13.43
-16.16
-18.96
-21.30
-22.00
-20.17
-16.09
-11.27
-7.85
-7.46
-10.26
-14.67
-17.89
-17.09
-10.61
1.17
15.93
30.15
40.37
44.43
42.11
35.07
26.13
18.34
14.02
14.33
19.09
27.06
36.17
43.85
47.39
44.58
34.37
17.44
-3.67
-25.20
-43.28
-55.25
-60.50
-60.51
-58.01
-55.78
-55.45
-56.97
-58.94
-59.48
-57.29
-52.31
-45.81
-39.64
-35.43
-33.84
-34.36
-35.58
-35.99
-34.55
-31.14
-26.41
-21.30
-16.59
-12.57
-9.16
-6.10
-3.17
-0.05
3.81
9.18
16.59
25.68
34.78
41.38
43.35
40.31
34.25
28.75
27.04
30.04
35.56
39.39
37.43
27.80
11.63
-7.77
-26.59
-42.18
-53.67
-61.53
-66.61
-69.45
-70.03
-68.14
-63.85
-57.67
-50.34
-42.42
-34.08
-25.42
-16.99
-10.07
-6.42
-7.35
-12.84
-21.20
-29.76
-36.28
-40.13
-42.51
-45.44
-50.14
-55.92
-60.19
-59.91
-53.32
-40.81
-24.31
-5.78
14.17
36.13
60.46
85.75
108.41
123.99
129.54
125.31
114.40
100.82
87.16
73.99
60.94
48.67
39.26
34.59
33.70
31.97
23.51
5.28
-19.82
-43.81
-58.15
-58.79
-48.18
-33.18
-20.35
-11.84
-4.67
6.73
26.47
54.34
85.76
114.10
133.49
140.95
137.06
125.39
111.12
99.26
92.95
92.60
96.12
100.53
103.53
104.10
102.15
97.71
90.56
81.24
72.11
67.37
71.57
86.84
110.86
136.77
155.71
160.46
148.35
121.84
86.83
49.87
16.11
-11.37
-31.07
-42.37
-45.52
-42.23
-35.94
-31.08
-31.33
-37.71
-47.94
-57.48
-61.96
-59.44
-51.34
-41.68
-35.16
-34.89
-41.11
-51.31
-61.60
-68.44
-69.80
-65.50
-56.70
-45.15
-32.55
-20.34
-9.73
-1.65
3.34
5.19
4.41
1.85
-1.55
-5.12
-8.53
-11.89
-15.61
-20.22
-26.12
-33.28
-41.08
-48.40
-53.97
-56.85
-56.85
-54.48
-50.67
-46.30
-41.98
-37.98
-34.50
-31.76
-29.97
-29.14
-28.94
-28.86
-28.43
-27.61
-26.83
-26.82
-28.27
-31.37
-35.83
-40.91
-45.86
-50.12
-53.50
-56.16
-58.49
-61.06
-64.67
-70.27
-78.61
-89.69
-102.31
-113.97
-121.57
-122.56
-115.91
-102.45
-84.20
-63.13
-40.03
-14.38
14.75
47.29
81.30
113.15
138.89
155.98
164.38
166.48
166.02
166.51
170.04
176.97
186.40
197.20
208.76
221.20
235.00
250.31
266.27
280.99
291.92
296.72
293.99
283.57
266.20
242.83
214.12
180.30
141.48
98.14
51.36
2.72
-46.06
-93.45
-138.02
-178.15
-211.68
-236.01
-248.71
-248.52
-236.04
-213.77
-185.48
-155.00
-125.29
-97.86
-72.95
-50.06
-28.70
-8.74
9.35
24.68
36.29
43.58
46.52
45.83
42.73
38.47
33.83
28.84
22.97
15.66
6.89
-2.74
-12.29
-21.22
-29.85
-39.21
-50.40
-63.83
-78.66
-93.19
-105.52
-114.45
-119.93
-122.86
-124.53
-125.87
-127.20
-128.31
-128.86
-128.70
-127.91
-126.53
-124.26
-120.43
-114.35
-105.82
-95.48
-84.63
-74.56
-65.77
-57.70
-49.08
-38.65
-25.90
-11.08
5.20
22.64
41.50
62.22
84.64
107.45
128.29
144.50
154.23
157.03
153.90
146.53
136.54
125.01
112.39
98.97
85.23
71.84
59.63
49.20
40.79
34.21
28.98
24.55
20.40
16.20
11.75
6.93
1.65
-4.24
-10.90
-18.46
-27.03
-36.64
-47.28
-58.96
-71.53
-84.61
-97.46
-109.14
-118.67
-125.41
-129.16
-130.18
-128.93
-125.93
-121.69
-116.79
-111.80
-107.33
-103.75
-101.12
-99.08
-97.00
-94.11
-89.61
-82.86
-73.46
-61.63
-48.33
-35.30
-24.47
-17.22
-13.65
-12.39
-11.08
-7.39
-0.14
10.19
21.68
31.87
38.80
41.78
41.42
39.16
36.64
35.18
35.61
38.18
42.63
48.07
53.13
56.06
55.29
49.92
40.09
26.99
12.29
-2.46
-16.51
-30.05
-43.89
-58.80
-74.67
-90.15
-103.17
-111.97
-116.29
-117.76
-119.07
-122.40
-127.93
-133.53
-135.89
-132.61
-123.83
-112.33
-101.95
-95.38
-92.67
-91.63
-89.47
-84.48
-76.50
-66.12
-53.65
-38.64
-20.60
-0.04
21.07
40.03
55.02
66.40
76.75
89.35
106.17
126.47
146.85
162.91
171.42
171.69
165.67
156.60
147.19
138.29
128.63
115.97
98.83
77.87
55.92
36.83
23.67
17.45
16.92
19.65
23.37
26.94
30.40
34.38
39.49
45.73
52.74
60.07
67.46
75.09
83.29
92.19
100.99
108.00
111.35
110.25
105.81
100.55
96.65
94.13
90.25
80.99
63.65
39.21
12.53
-9.69
-22.18
-23.52
-16.39
-5.63
4.52
12.22
18.26
24.76
33.53
45.27
59.80
76.42
94.73
114.56
135.65
157.08
176.94
192.43
200.67
199.60
188.50
167.81
138.57
102.07
60.02
15.18
-28.27
-65.30
-91.50
-104.86
-106.53
-100.29
-90.77
-81.49
-73.94
-67.86
-62.40
-57.35
-53.41
-51.72
-52.96
-56.87
-62.31
-67.97
-72.92
-76.90
-80.18
-83.20
-86.02
-88.19
-88.70
-86.28
-79.89
-69.15
-54.69
-38.17
-21.87
-7.94
2.33
8.99
13.22
16.70
20.76
25.84
31.52
37.09
42.10
46.68
51.22
55.84
59.91
62.05
60.68
54.71
44.04
29.62
12.93
-4.53
-21.62
-37.55
-51.67
-63.28
-71.72
-76.61
-78.09
-76.87
-74.00
-70.41
-66.65
-62.78
-58.49
-53.35
-47.14
-39.87
-31.83
-23.48
-15.37
-8.08
-2.07
2.30
4.93
5.89
5.44
3.88
1.48
-1.47
-4.67
-7.81
-10.63
-13.09
-15.42
-18.04
-21.26
-25.07
-28.99
-32.26
-34.30
-35.03
-35.09
-35.57
-37.51
-41.45
-47.12
-53.74
-60.32
-66.10
-70.69
-74.00
-76.08
-77.06
-77.19
-76.97
-77.09
-78.28
-80.93
-84.77
-88.76
-91.16
-89.92
-83.06
-68.98
-46.72
-16.13
22.00
65.96
113.12
160.19
203.69
240.39
267.72
284.19
289.65
285.36
273.71
257.72
240.32
223.66
208.78
195.70
183.95
173.13
163.24
154.69
147.93
143.01
139.48
136.51
133.14
128.49
121.63
111.42
96.48
75.39
47.14
11.72
-29.65
-74.42
-118.99
-159.24
-191.12
-211.32
-218.01
-211.34
-193.58
-168.58
-140.82
-114.18
-91.13
-72.50
-57.79
-45.90
-35.67
-26.15
-16.58
-6.38
4.82
17.03
29.62
41.35
50.48
55.17
53.98
46.23
32.31
13.56
-7.97
-30.01
-50.64
-68.62
-83.50
-95.40
-104.82
-112.37
-118.71
-124.48
-130.08
-135.48
-139.88
-141.79
-139.37
-131.18
-117.01
-98.33
-78.09
-59.87
-46.66
-39.76
-38.39
-39.97
-41.06
-38.54
-30.74
-18.09
-3.05
10.83
20.16
22.88
18.85
9.56
-2.60
-15.28
-26.71
-35.74
-41.66
-44.01
-42.57
-37.62
-30.03
-21.19
-12.67
-5.81
-1.59
-0.60
-3.07
-8.70
-16.49
-24.67
-31.04
-33.68
-31.69
-25.64
-17.48
-9.86
-5.32
-5.62
-11.37
-22.20
-37.07
-54.48
-72.58
-89.00
-100.97
-106.02
-103.04
-93.32
-80.71
-70.58
-67.71
-74.02
-87.34
-101.84
-109.99
-105.09
-83.12
-43.56
10.88
75.15
142.75
206.80
261.27
302.29
329.12
344.15
351.61
355.83
359.63
364.04
369.22
375.48
383.45
392.97
401.42
403.13
390.67
357.63
301.58
225.34
135.93
41.92
-49.36
-133.17
-206.85
-268.51
-315.98
-347.09
-360.88
-358.89
-345.34
-325.90
-305.80
-288.02
-272.73
-257.98
-241.37
-221.57
-199.01
-175.60
-153.67
-134.88
-119.59
-106.96
-95.49
-83.67
-70.53
-55.81
-39.91
-23.72
-8.31
5.31
16.38
24.50
29.59
31.82
31.59
29.62
26.98
24.97
24.84
27.41
32.64
39.46
45.95
49.87
49.40
43.75
33.49
20.35
6.68
-5.29
-13.91
-18.17
-17.57
-12.07
-2.40
9.54
20.63
27.24
26.51
17.53
1.79
-17.83
-38.67
-59.76
-81.92
-106.65
-134.27
-162.91
-188.74
-207.56
-216.66
-215.88
-207.44
-194.82
-181.41
-169.59
-160.45
-153.87
-148.67
-142.90
-134.12
-119.91
-98.49
-69.17
-32.35
10.74
58.19
107.35
154.78
196.49
228.83
249.50
258.42
257.73
251.02
242.11
234.08
228.91
227.59
230.43
237.12
246.69
257.45
267.29
274.28
277.08
275.11
268.38
257.13
241.63
222.22
199.31
173.23
144.26
112.51
78.24
42.14
5.60
-29.46
-61.04
-87.71
-109.11
-126.09
-140.36
-153.89
-168.21
-183.86
-200.27
-216.03
-229.38
-239.00
-244.40
-246.06
-245.11
-242.81
-240.23
-237.95
-235.93
-233.62
-229.78
-222.48
-209.44
-188.45
-158.16
-118.64
-71.40
-18.89
36.29
92.01
146.74
199.18
247.81
290.79
326.36
353.49
372.41
384.52
391.77
395.84
397.44
396.20
391.00
380.58
363.92
340.60
310.61
274.31
232.28
185.36
134.74
82.25
30.47
-17.57
-59.06
-92.31
-117.28
-135.49
-149.18
-160.20
-169.21
-175.77
-179.01
-178.40
-174.05
-166.10
-153.98
-136.06
-110.34
-75.94
-34.32
10.27
51.85
84.60
104.80
111.78
107.47
95.21
78.18
58.48
37.07
14.27
-9.41
-32.95
-54.89
-73.89
-89.26
-101.36
-111.35
-120.74
-130.68
-141.50
-152.60
-162.74
-170.55
-175.09
-176.29
-175.02
-172.77
-171.04
-170.81
-172.16
-174.28
-175.87
-175.74
-173.41
-169.27
-164.35
-159.80
-156.31
-153.68
-150.86
-146.33
-138.59
-126.53
-109.47
-87.08
-59.13
-25.90
11.64
51.58
91.31
128.61
162.70
194.75
227.17
261.80
298.27
333.28
361.58
378.14
380.31
368.86
347.36
320.31
291.32
261.90
231.66
199.16
163.06
122.99
79.86
35.80
-6.29
-43.34
-72.79
-93.21
-104.67
-108.79
-108.25
-106.52
-106.98
-112.16
-122.96
-138.17
-154.43
-167.11
-171.79
-166.10
-151.02
-130.88
-112.00
-100.28
-98.85
-106.92
-120.20
-132.79
-139.44
-137.38
-126.89
-110.64
-92.16
-74.21
-58.14
-43.86
-30.87
-19.01
-8.77
-1.07
3.50
5.27
5.56
6.14
8.40
12.76
18.60
24.41
28.32
28.75
25.07
18.07
9.65
2.13
-2.65
-3.88
-1.74
2.70
8.26
14.33
21.27
29.63
39.52
50.13
59.99
68.03
73.40
76.22
77.82
81.16
89.44
105.15
129.33
161.40
199.68
240.33
277.54
304.52
315.91
309.02
285.26
250.23
209.15
170.83
143.43
131.64
131.90
138.26
145.49
149.91
148.91
140.23
122.24
93.30
52.57
0.71
-59.25
-122.87
-185.51
-243.44
-294.61
-338.83
-378.52
-417.69
-459.80
-504.65
-547.44
-579.82
-593.00
-581.47
-545.03
-488.84
-420.59
-347.31
-273.51
-202.45
-138.45
-87.60
-55.82
-44.88
-50.14
-61.55
-68.14
-63.02
-46.03
-21.97
4.01
30.49
60.37
97.73
143.29
191.87
233.57
258.09
259.35
237.86
199.78
153.86
108.13
68.27
37.72
18.88
13.96
24.94
52.41
94.06
143.98
193.34
232.61
254.27
255.04
236.68
204.91
167.12
129.77
96.58
68.23
43.34
20.02
-3.05
-26.51
-50.82
-76.76
-105.13
-135.66
-165.95
-191.41
-206.61
-207.60
-193.73
-168.12
-136.45
-104.65
-76.98
-55.24
-39.36
-28.35
-21.21
-17.01
-14.76
-13.57
-13.33
-15.49
-22.89
-38.49
-63.32
-95.31
-129.52
-160.07
-182.71
-196.41
-203.07
-205.63
-205.71
-202.36
-192.56
-173.05
-142.45
-102.40
-57.44
-13.76
22.51
47.03
58.41
58.56
52.24
45.30
42.55
46.09
54.86
65.61
74.98
81.20
84.64
87.05
90.01
93.72
96.82
97.33
93.97
87.16
79.15
73.17
72.03
76.93
86.87
98.97
109.51
115.28
114.69
108.29
98.34
87.65
78.25
70.51
63.05
53.66
40.79
24.76
8.13
-5.13
-11.41
-9.29
-0.49
10.76
19.43
21.86
17.14
7.15
-4.52
-14.19
-19.29
-18.92
-13.63
-4.99
4.77
13.07
17.38
16.07
9.11
-1.58
-12.75
-21.18
-24.88
-23.82
-19.71
-15.17
-12.70
-13.88
-18.64
-24.93
-29.03
-26.54
-13.94
9.69
41.80
76.93
108.86
133.59
151.22
165.66
182.13
203.76
229.26
253.33
269.34
273.01
264.92
250.26
236.36
228.96
229.64
235.45
240.84
240.52
231.96
216.06
196.20
176.46
159.80
146.83
135.57
122.33
103.07
75.07
38.02
-5.97
-53.57
-101.75
-149.09
-195.61
-241.58
-286.52
-329.05
-367.99
-403.72
-438.23
-473.39
-508.42
-538.30
-554.98
-551.01
-523.48
-476.02
-417.39
-357.62
-303.99
-259.22
-222.28
-190.86
-163.41
-139.35
-118.01
-97.70
-75.73
-50.18
-21.71
5.95
27.45
38.51
38.81
32.87
28.66
34.61
56.16
93.75
142.68
194.50
239.23
267.72
273.79
255.95
218.22
169.39
120.47
81.04
55.94
44.23
40.69
39.35
36.79
33.42
31.81
33.98
39.13
43.72
43.88
38.17
28.94
21.33
20.46
28.54
43.78
61.42
76.18
84.97
87.93
87.76
87.79
89.98
93.94
97.49
98.07
94.23
86.44
76.69
67.47
60.56
56.26
53.53
50.70
46.46
40.48
33.56
27.00
22.00
19.07
18.03
18.23
19.00
19.95
21.01
22.26
23.51
24.20
23.27
19.46
11.79
0.15
-14.28
-29.02
-40.80
-46.53
-44.32
-34.17
-18.04
0.76
18.52
32.18
39.98
41.78
38.82
33.18
27.12
22.28
19.37
18.06
17.32
15.93
12.96
7.97
0.98
-7.67
-17.48
-27.84
-38.01
-47.16
-54.64
-60.12
-63.79
-66.19
-67.91
-69.25
-70.06
-69.83
-67.98
-64.18
-58.44
-51.27
-43.56
-36.46
-31.10
-28.21
-27.84
-29.20
-30.90
-31.48
-30.04
-26.62
-22.15
-17.93
-14.97
-13.52
-13.10
-12.90
-12.25
-10.93
-9.13
-7.13
-5.14
-3.06
-0.65
2.37
6.07
10.27
14.60
18.66
22.20
25.17
27.78
30.32
33.04
35.89
38.52
40.27
40.40
38.36
33.98
27.47
19.44
10.62
1.74
-6.66
-14.33
-21.25
-27.50
-33.15
-38.17
-42.40
-45.78
-48.37
-50.42
-52.22
-53.90
-55.25
-55.79
-55.01
-52.59
-48.76
-44.13
-39.55
-35.71
-32.93
-31.12
-29.89
-28.78
-27.37
-25.46
-23.02
-20.19
-17.26
-14.64
-12.73
-11.90
-12.29
-13.72
-15.68
-17.44
-18.29
-17.78
-15.84
-12.74
-9.02
-5.22
-1.73
1.22
3.64
5.64
7.31
8.75
9.96
10.97
11.81
12.55
13.30
14.12
14.99
15.80
16.38
16.53
16.17
15.35
14.21
12.93
11.63
10.35
9.01
7.56
5.95
4.22
2.47
0.83
-0.62
-1.80
-2.74
-3.46
-4.00
-4.42
-4.71
-4.92
-5.08
-5.21
-5.36
-5.60
-5.90
-6.15
-6.08
-5.40
-3.88
-1.55
1.24
3.90
5.88
6.87
6.95
6.52
6.04
5.85
5.91
5.95
5.49
4.15
1.82
-1.27
-4.64
-7.71
-9.99
-11.23
-11.46
-10.98
-10.44
-10.77
-13.00
-18.03
-26.14
-36.76
-48.48
-59.44
-68.01
-73.48
-76.28
-77.70
-78.97
-80.35
-80.72
-77.95
-69.98
-56.08
-37.47
-16.87
2.76
19.45
32.85
43.76
53.22
61.78
69.59
77.35
87.00
101.66
124.44
156.74
196.83
239.65
277.91
304.05
312.29
300.29
270.05
227.49
180.91
138.59
106.81
88.64
83.97
90.20
103.00
117.13
127.35
130.05
124.51
113.93
104.64
103.16
112.51
129.95
147.99
158.14
155.38
139.86
116.03
89.30
62.77
36.06
6.54
-27.81
-66.33
-105.48
-141.41
-172.22
-198.82
-224.32
-252.15
-284.25
-319.68
-354.92
-379.72
-383.86
-361.61
-314.88
-252.72
-186.71
-126.73
-78.52
-44.36
-24.25
-14.75
-11.63
-9.96
-4.74
8.03
29.73
58.84
90.55
116.76
129.65
125.41
105.87
76.68
45.36
15.28
-11.60
-33.98
-50.67
-60.77
-64.42
-61.35
-53.16
-42.35
-32.10
-24.91
-22.30
-24.22
-28.64
-32.28
-31.72
-25.21
-13.45
0.30
11.80
17.09
13.95
3.01
-12.43
-27.30
-36.78
-37.97
-31.20
-19.67
-8.23
-1.31
-1.15
-7.44
-18.15
-31.09
-44.75
-58.23
-70.54
-80.12
-85.06
-83.68
-75.65
-62.31
-46.34
-30.63
-17.26
-6.97
0.62
6.46
11.45
15.97
19.81
22.08
21.66
17.55
9.43
-2.10
-15.53
-28.78
-39.92
-47.68
-51.82
-52.92
-52.02
-50.12
-47.92
-45.74
-43.62
-41.42
-38.78
-35.03
-29.26
-20.57
-8.55
6.35
22.71
38.35
50.96
58.75
61.03
58.38
52.40
45.05
37.99
32.03
27.04
22.29
17.13
11.53
6.31
2.79
2.14
4.81
10.24
17.01
23.36
27.83
29.64
28.76
25.70
21.19
15.89
10.31
4.78
-0.59
-5.99
-11.99
-19.15
-27.51
-36.07
-42.58
-44.18
-38.50
-24.74
-4.06
20.91
47.10
72.09
94.49
113.63
128.79
138.83
142.43
138.82
128.54
113.66
97.15
81.87
69.69
61.10
55.50
51.86
49.40
47.99
48.05
50.07
54.17
59.73
65.46
69.72
71.14
68.92
62.91
53.46
40.96
25.58
7.22
-14.16
-38.08
-63.10
-86.84
-106.41
-118.99
-122.57
-116.29
-100.65
-77.39
-49.24
-19.47
8.62
32.37
50.25
62.12
68.99
72.42
73.89
74.30
73.85
72.28
69.34
65.11
60.19
55.56
52.32
51.32
52.78
56.15
60.27
63.80
65.74
65.83
64.58
63.03
62.33
63.24
65.94
69.84
73.58
75.16
72.21
62.57
45.02
19.84
-11.03
-44.38
-76.69
-105.07
-127.82
-144.43
-155.16
-160.62
-161.61
-159.24
-154.94
-150.48
-147.57
-147.29
-149.78
-154.16
-159.08
-163.27
-166.16
-168.05
-169.95
-172.97
-177.55
-182.83
-186.55
-185.70
-177.98
-163.21
-144.02
-125.16
-111.55
-105.95
-107.54
-112.04
-113.40
-106.21
-87.65
-58.26
-21.41
18.10
55.32
86.27
108.47
121.08
124.71
120.96
111.79
99.03
84.31
69.33
56.06
46.65
42.62
44.12
49.62
56.12
59.91
57.44
46.23
25.88
-1.24
-29.96
-53.44
-65.27
-61.83
-43.72
-15.36
17.22
48.90
77.15
101.63
122.46
138.69
148.14
148.93
141.53
129.47
118.16
112.89
116.51
128.67
146.11
163.62
175.20
174.98
158.68
125.50
79.84
31.22
-8.47
-29.75
-29.99
-14.67
5.40
19.74
23.27
17.89
9.70
4.09
1.85
-1.02
-10.14
-28.53
-54.17
-80.77
-101.14
-110.64
-108.84
-99.02
-86.15
-74.74
-67.47
-64.71
-64.99
-65.90
-65.09
-61.29
-54.79
-47.23
-40.64
-36.42
-34.59
-33.90
-32.69
-29.96
-25.91
-21.74
-18.83
-17.86
-18.47
-19.58
-20.07
-19.53
-18.54
-18.30
-19.93
-23.82
-29.30
-34.93
-39.21
-41.25
-41.23
-40.15
-39.31
-39.61
-41.23
-43.77
-46.71
-49.74
-52.75
-55.47
-57.07
-56.18
-51.34
-41.59
-26.90
-8.10
13.35
35.71
57.01
75.08
87.83
93.78
92.70
85.87
75.78
65.20
56.27
49.98
46.06
43.40
41.01
38.87
38.49
42.52
53.53
72.17
95.71
117.88
130.55
126.80
104.09
65.78
19.99
-23.68
-58.05
-80.78
-93.78
-100.39
-102.32
-98.62
-86.96
-66.21
-38.44
-8.63
17.31
35.10
43.25
42.28
32.92
15.36
-10.03
-40.79
-71.20
-93.14
-99.10
-85.64
-55.29
-15.63
23.79
55.30
75.48
85.52
89.56
92.44
97.58
106.10
117.51
130.19
141.90
149.71
150.30
140.99
121.58
95.86
71.34
56.40
56.20
69.81
90.54
109.56
120.69
123.02
119.98
115.55
110.25
99.72
77.01
37.25
-18.18
-80.18
-134.18
-165.14
-163.24
-127.93
-69.09
-4.21
47.23
70.54
61.33
27.23
-15.25
-47.63
-57.33
-42.81
-13.57
14.62
27.18
16.59
-15.63
-61.41
-111.08
-157.65
-198.43
-234.18
-266.99
-298.66
-330.54
-363.92
-400.02
-438.95
-478.45
-513.32
-536.42
-540.81
-521.89
-478.66
-413.77
-332.54
-241.79
-148.82
-60.17
19.73
89.44
150.17
203.93
251.39
290.76
318.47
331.53
329.64
315.64
293.91
267.65
237.85
204.23
167.79
132.71
105.70
92.75
95.34
108.52
122.42
126.57
114.36
85.33
44.16
-2.27
-47.97
-89.58
-126.17
-157.73
-183.53
-201.44
-208.65
-203.23
-185.81
-160.23
-132.76
-109.89
-95.91
-91.08
-91.74
-92.10
-86.79
-73.02
-51.18
-23.96
5.52
35.28
64.91
94.73
124.68
153.52
179.06
199.19
212.91
221.02
225.78
229.87
235.21
242.41
250.91
259.55
267.39
274.03
279.52
284.09
287.71
289.98
290.16
287.42
281.26
271.69
259.37
245.38
230.92
216.90
203.68
191.14
178.89
166.50
153.72
140.46
126.72
112.44
97.56
82.02
65.86
49.24
32.39
15.52
-1.18
-17.63
-33.78
-49.69
-65.47
-81.15
-96.43
-110.47
-121.75
-128.38
-128.62
-121.59
-107.90
-89.70
-70.28
-53.25
-41.47
-36.27
-37.07
-41.53
-46.31
-48.17
-44.92
-36.20
-23.45
-9.32
3.16
11.33
13.42
8.74
-2.16
-17.53
-34.71
-50.78
-63.35
-71.26
-74.95
-75.81
-75.13
-72.97
-68.05
-58.64
-44.27
-27.03
-11.65
-4.08
-8.96
-27.46
-56.49
-89.62
-119.45
-140.05
-148.61
-145.64
-133.86
-116.76
-97.47
-78.32
-60.93
-46.45
-35.69
-28.99
-26.09
-26.08
-27.45
-28.56
-28.01
-25.02
-19.65
-12.78
-5.78
-0.03
3.63
5.22
5.44
5.30
5.57
6.35
7.13
7.01
5.25
1.62
-3.45
-9.09
-14.37
-18.59
-21.54
-23.41
-24.59
-25.45
-26.19
-26.85
-27.47
-28.08
-28.83
-29.85
-31.24
-32.96
-34.87
-36.77
-38.46
-39.87
-40.92
-41.62
-41.95
-41.81
-41.12
-39.74
-37.60
-34.65
-30.96
-26.71
-22.10
-17.36
-12.64
-7.93
-3.14
1.92
7.39
13.33
19.72
26.39
33.05
39.28
44.53
48.23
50.00
49.87
48.31
46.10
44.07
42.76
42.31
42.55
43.14
43.83
44.45
44.99
45.46
45.97
46.71
48.02
50.30
53.83
58.64
64.45
70.72
76.95
82.75
88.04
92.95
97.81
102.95
108.63
114.93
121.57
127.80
132.30
133.25
128.55
116.43
96.00
67.78
33.88
-2.41
-37.43
-68.10
-92.67
-110.88
-123.58
-132.15
-137.83
-141.44
-143.58
-144.83
-146.08
-148.31
-152.32
-158.27
-165.54
-172.91
-179.05
-183.04
-184.71
-184.56
-183.45
-182.06
-180.72
-179.29
-177.42
-174.81
-171.31
-166.96
-161.80
-155.69
-148.30
-139.24
-128.20
-115.21
-100.62
-85.09
-69.42
-54.31
-40.28
-27.57
-16.23
-6.15
2.75
10.57
17.32
22.96
27.46
30.85
33.28
34.97
36.29
37.55
38.94
40.49
42.04
43.34
44.22
44.69
44.98
45.38
46.13
47.16
48.22
48.90
48.87
48.03
46.51
44.68
42.91
41.52
40.72
40.56
40.98
41.89
43.11
44.48
45.86
47.10
48.10
48.77
49.01
48.77
48.15
47.37
46.74
46.60
47.14
48.37
50.11
52.08
53.98
55.61
56.84
57.63
57.94
57.77
57.14
56.06
54.63
52.91
50.98
48.90
46.69
44.35
41.81
38.98
35.85
32.50
29.18
26.21
23.91
22.49
21.97
22.24
23.11
24.39
25.89
27.39
28.58
29.05
28.46
26.66
23.77
20.14
16.15
12.09
7.99
3.73
-0.91
-6.01
-11.49
-17.13
-22.67
-27.94
-32.85
-37.44
-41.80
-46.04
-50.31
-54.78
-59.55
-64.70
-70.18
-75.88
-81.56
-86.97
-91.71
-95.34
-97.43
-97.64
-95.80
-91.86
-85.88
-77.84
-67.67
-55.41
-41.30
-26.01
-10.54
4.03
16.89
27.82
37.12
45.39
53.10
60.35
66.84
72.04
75.61
77.50
78.03
77.60
76.40
74.28
70.84
65.60
58.39
49.44
39.35
28.87
18.66
9.12
0.38
-7.63
-15.04
-21.88
-28.11
-33.64
-38.40
-42.41
-45.84
-48.92
-51.79
-54.50
-56.82
-58.38
-58.78
-57.73
-55.16
-51.28
-46.43
-41.05
-35.48
-29.93
-24.51
-19.22
-14.06
-9.07
-4.32
0.05
3.94
7.23
9.91
11.98
13.46
14.37
14.72
14.56
14.00
13.25
12.51
11.91
11.38
10.73
9.65
7.93
5.52
2.57
-0.63
-3.80
-6.76
-9.45
-11.91
-14.24
-16.52
-18.82
-21.16
-23.52
-25.80
-27.85
-29.42
-30.26
-30.22
-29.16
-27.11
-24.20
-20.58
-16.47
-12.06
-7.58
-3.22
0.81
4.38
7.42
9.97
12.10
13.94
15.56
16.93
18.01
18.76
19.20
19.44
19.59
19.71
19.76
19.59
19.02
17.96
16.48
14.74
12.94
11.23
9.61
8.00
6.16
3.95
1.31
-1.69
-4.79
-7.68
-10.08
-11.81
-12.85
-13.20
-12.95
-12.17
-10.88
-9.10
-6.85
-4.15
-1.02
2.44
6.15
9.96
13.64
17.00
19.83
22.05
23.66
24.69
25.21
25.23
24.76
23.84
22.56
21.06
19.53
18.11
16.89
15.84
14.84
13.73
12.40
10.79
8.91
6.79
4.47
2.00
-0.59
-3.26
-5.98
-8.73
-11.47
-14.17
-16.77
-19.18
-21.30
-22.99
-24.14
-24.64
-24.35
-23.17
-21.00
-17.91
-14.07
-9.80
-5.48
-1.42
2.19
5.31
7.94
10.17
12.00
13.45
14.52
15.26
15.72
15.93
15.90
15.59
14.98
14.12
13.12
12.08
11.10
10.16
9.16
8.01
6.65
5.14
3.61
2.16
0.83
-0.42
-1.70
-3.13
-4.74
-6.46
-8.18
-9.75
-11.03
-11.93
-12.40
-12.42
-12.03
-11.24
-10.05
-8.42
-6.24
-3.45
-0.06
3.78
7.79
11.59
14.81
17.15
18.44
18.68
18.02
16.75
15.23
13.76
12.56
11.68
11.06
10.53
9.91
9.07
7.95
6.60
5.11
3.63
2.26
1.05
-0.03
-1.06
-2.15
-3.40
-4.87
-6.55
-8.47
-10.60
-12.90
-15.29
-17.65
-19.81
-21.61
-22.90
-23.63
-23.73
-23.17
-21.94
-20.08
-17.65
-14.78
-11.65
-8.47
-5.43
-2.61
-0.02
2.45
4.94
7.51
10.12
12.58
14.68
16.21
17.11
17.47
17.44
17.21
16.91
16.64
16.47
16.47
16.67
17.00
17.31
17.42
17.14
16.41
15.25
13.79
12.09
10.22
8.14
5.83
3.28
0.53
-2.35
-5.25
-8.02
-10.49
-12.44
-13.71
-14.18
-13.90
-12.99
-11.61
-9.92
-7.98
-5.80
-3.29
-0.45
2.66
5.88
8.98
11.80
14.22
16.18
17.68
18.71
19.26
19.36
19.13
18.77
18.50
18.47
18.71
19.11
19.50
19.75
19.76
19.47
18.82
17.73
16.14
14.07
11.68
9.19
6.82
4.68
2.76
0.98
-0.80
-2.68
-4.70
-6.84
-9.02
-11.15
-13.07
-14.65
-15.74
-16.19
-15.91
-14.89
-13.22
-11.04
-8.59
-6.07
-3.64
-1.32
0.95
3.26
5.65
8.10
10.49
12.68
14.56
16.04
17.06
17.59
17.60
17.13
16.26
15.08
13.68
12.11
10.43
8.70
7.00
5.38
3.89
2.51
1.16
-0.16
-1.45
-2.70
-3.91
-5.17
-6.65
-8.48
-10.70
-13.18
-15.63
-17.68
-19.01
-19.47
-19.05
-17.90
-16.22
-14.21
-12.03
-9.72
-7.32
-4.86
-2.38
0.02
2.25
4.25
5.93
7.30
8.36
9.14
9.71
10.13
10.50
10.90
11.40
12.00
12.68
13.39
14.07
14.67
15.11
15.35
15.32
14.99
14.36
13.47
12.38
11.13
9.73
8.25
6.71
5.13
3.51
1.77
-0.15
-2.29
-4.54
-6.71
-8.53
-9.80
-10.46
-10.59
-10.29
-9.66
-8.70
-7.38
-5.71
-3.79
-1.80
0.10
1.82
3.34
4.73
6.06
7.31
8.37
9.12
9.46
9.43
9.18
8.91
8.81
8.93
9.21
9.51
9.66
9.59
9.29
8.86
8.39
7.93
7.52
7.11
6.68
6.15
5.44
4.46
3.17
1.61
-0.15
-2.01
-3.88
-5.71
-7.43
-8.98
-10.21
-11.01
-11.34
-11.24
-10.88
-10.40
-9.89
-9.36
-8.72
-7.86
-6.75
-5.38
-3.84
-2.24
-0.69
0.75
2.06
3.27
4.43
5.54
6.62
7.60
8.42
8.97
9.24
9.22
9.00
8.65
8.26
7.85
7.44
6.97
6.41
5.78
5.13
4.49
3.84
3.10
2.21
1.11
-0.21
-1.65
-3.14
-4.60
-6.01
-7.35
-8.61
-9.78
-10.82
-11.65
-12.20
-12.43
-12.30
-11.83
-11.00
-9.85
-8.41
-6.73
-4.87
-2.95
-1.13
0.46
1.73
2.72
3.58
4.48
5.54
6.76
8.05
9.28
10.34
11.20
11.86
12.35
12.66
12.70
12.42
11.77
10.83
9.75
8.69
7.81
7.09
6.36
5.37
3.89
1.81
-0.80
-3.64
-6.39
-8.74
-10.53
-11.74
-12.45
-12.80
-12.89
-12.77
-12.46
-11.92
-11.12
-10.00
-8.52
-6.64
-4.36
-1.78
0.93
3.54
5.80
7.56
8.73
9.37
9.66
9.78
9.90
10.16
10.61
11.26
12.03
12.81
13.46
13.83
13.83
13.48
12.85
12.08
11.27
10.46
9.62
8.68
7.60
6.41
5.18
3.98
2.85
1.71
0.47
-0.97
-2.59
-4.33
-6.06
-7.70
-9.21
-10.51
-11.50
-12.01
-11.87
-11.04
-9.66
-8.04
-6.50
-5.29
-4.42
-3.75
-3.04
-2.10
-0.91
0.41
1.65
2.60
3.19
3.46
3.60
3.76
4.03
4.36
4.62
4.67
4.48
4.12
3.70
3.30
2.90
2.45
1.89
1.21
0.43
-0.46
-1.54
-2.94
-4.72
-6.86
-9.19
-11.47
-13.53
-15.30
-16.82
-18.15
-19.31
-20.25
-20.86
-21.05
-20.78
-20.02
-18.74
-16.93
-14.61
-11.85
-8.79
-5.59
-2.40
0.69
3.62
6.29
8.57
10.36
11.63
12.48
13.06
13.54
14.00
14.40
14.64
14.69
14.59
14.43
14.28
14.11
13.81
13.30
12.63
11.98
11.58
11.58
11.92
12.40
12.75
12.78
12.48
11.93
11.19
10.24
8.93
7.09
4.65
1.67
-1.68
-5.23
-8.85
-12.42
-15.76
-18.52
-20.23
-20.51
-19.19
-16.46
-12.86
-9.03
-5.50
-2.61
-0.35
1.43
2.97
4.43
5.86
7.20
8.31
9.06
9.36
9.23
8.75
8.09
7.32
6.53
5.75
5.06
4.53
4.22
4.05
3.83
3.32
2.50
1.56
0.88
0.64
0.62
0.14
-1.59
-4.96
-9.63
-14.59
-18.62
-20.91
-21.35
-20.48
-19.09
-17.69
-16.37
-14.97
-13.30
-11.43
-9.70
-8.44
-7.77
-7.50
-7.22
-6.59
-5.49
-4.11
-2.82
-1.94
-1.59
-1.59
-1.57
-1.16
-0.10
1.63
3.83
6.14
8.11
9.33
9.54
8.67
6.92
4.75
2.69
1.21
0.52
0.61
1.23
2.12
3.12
4.20
5.41
6.75
8.06
8.95
8.97
7.78
5.27
1.73
-2.32
-6.23
-9.48
-11.77
-13.15
-13.80
-13.94
-13.67
-12.92
-11.55
-9.51
-6.93
-4.13
-1.51
0.62
2.09
2.92
3.25
3.29
3.21
3.17
3.27
3.55
3.99
4.53
5.06
5.48
5.71
5.68
5.39
4.86
4.16
3.41
2.71
2.11
1.57
0.96
0.18
-0.80
-1.87
-2.92
-3.82
-4.59
-5.32
-6.14
-7.09
-8.06
-8.93
-9.58
-9.96
-10.13
-10.16
-10.10
-9.94
-9.65
-9.25
-8.81
-8.38
-7.98
-7.49
-6.76
-5.67
-4.24
-2.64
-1.11
0.14
1.09
1.84
2.56
3.37
4.24
5.08
5.79
6.37
6.86
7.32
7.70
7.85
7.61
6.87
5.69
4.27
2.86
1.61
0.56
-0.45
-1.59
-3.02
-4.81
-6.92
-9.24
-11.63
-13.94
-16.04
-17.81
-19.20
-20.21
-20.92
-21.42
-21.79
-22.05
-22.18
-22.07
-21.63
-20.84
-19.72
-18.38
-16.99
-15.66
-14.46
-13.31
-12.02
-10.42
-8.38
-5.90
-3.12
-0.33
2.19
4.17
5.42
5.92
5.70
4.90
3.64
2.04
0.18
-1.92
-4.31
-6.98
-9.90
-12.99
-16.19
-19.44
-22.80
-26.34
-30.19
-34.43
-39.05
-43.89
-48.75
-53.33
-57.45
-61.05
-64.28
-67.36
-70.53
-73.85
-77.11
-79.90
-81.66
-81.76
-79.49
-73.93
-63.98
-48.44
-26.22
3.28
39.96
82.81
129.90
178.51
225.30
266.58
298.61
318.13
323.00
312.90
289.77
257.61
221.57
186.68
156.56
132.65
114.34
99.61
86.03
71.61
55.19
36.44
15.66
-6.32
-28.31
-48.86
-66.57
-80.42
-90.04
-95.78
-98.54
-99.42
-99.36
-98.96
-98.34
-97.28
-95.33
-92.06
-87.19
-80.74
-72.96
-64.33
-55.48
-47.06
-39.67
-33.75
-29.43
-26.58
-24.78
-23.47
-22.08
-20.17
-17.55
-14.27
-10.62
-6.98
-3.79
-1.36
0.14
0.67
0.37
-0.59
-1.99
-3.64
-5.37
-7.04
-8.56
-9.87
-11.00
-12.03
-13.05
-14.16
-15.37
-16.60
-17.70
-18.48
-18.79
-18.54
-17.77
-16.58
-15.18
-13.73
-12.41
-11.25
-10.23
-9.25
-8.19
-6.94
-5.51
-3.97
-2.45
-1.08
0.09
1.04
1.79
2.36
2.75
2.90
2.78
2.29
1.39
0.05
-1.69
-3.69
-5.71
-7.43
-8.52
-8.76
-8.13
-6.88
-5.38
-4.05
-3.18
-2.90
-3.14
-3.72
-4.40
-4.95
-5.27
-5.37
-5.38
-5.54
-6.04
-7.00
-8.26
-9.46
-10.16
-10.00
-8.86
-6.92
-4.58
-2.24
-0.23
1.32
2.38
2.97
3.10
2.86
2.37
1.87
1.62
1.82
2.48
3.48
4.57
5.56
6.33
6.93
7.43
7.90
8.31
8.60
8.72
8.67
8.58
8.54
8.63
8.80
8.95
8.93
8.67
8.21
7.64
7.07
6.51
5.90
5.14
4.15
2.96
1.68
0.51
-0.40
-0.99
-1.25
-1.23
-0.90
-0.25
0.82
2.32
4.12
5.99
7.69
9.02
9.94
10.50
10.66
10.37
9.51
8.08
6.26
4.44
3.03
2.31
2.35
2.98
3.98
5.26
6.87
8.89
11.27
13.70
15.71
16.75
16.39
14.55
11.37
7.30
2.84
-1.48
-5.24
-8.23
-10.40
-11.90
-12.95
-13.75
-14.43
-15.04
-15.60
-16.11
-16.60
-17.02
-17.24
-17.04
-16.15
-14.46
-12.07
-9.30
-6.57
-4.20
-2.26
-0.61
1.02
2.78
4.62
6.33
7.54
8.06
7.84
7.10
6.13
5.18
4.35
3.54
2.59
1.33
-0.29
-2.22
-4.37
-6.69
-9.15
-11.65
-14.03
-16.05
-17.47
-18.21
-18.45
-18.50
-18.73
-19.37
-20.38
-21.55
-22.53
-22.97
-22.65
-21.47
-19.55
-17.15
-14.69
-12.56
-11.06
-10.20
-9.70
-9.10
-8.00
-6.16
-3.68
-0.90
1.73
3.83
5.19
5.81
5.83
5.52
5.13
4.87
4.78
4.76
4.54
3.86
2.56
0.66
-1.63
-4.02
-6.32
-8.46
-10.51
-12.45
-14.12
-15.23
-15.48
-14.78
-13.33
-11.49
-9.61
-7.92
-6.42
-5.11
-4.04
-3.31
-2.91
-2.56
-1.73
0.12
3.15
6.98
10.76
13.62
15.09
15.34
15.05
14.96
15.52
16.67
18.04
19.17
19.88
20.20
20.30
20.36
20.39
20.32
20.05
19.59
19.00
18.44
18.05
17.87
17.85
17.87
17.74
17.26
16.29
14.75
12.72
10.34
7.82
5.34
3.01
0.88
-1.04
-2.70
-4.08
-5.09
-5.68
-5.80
-5.46
-4.72
-3.58
-2.06
-0.16
2.09
4.66
7.44
10.26
12.87
14.94
16.17
16.34
15.45
13.67
11.32
8.77
6.37
4.34
2.82
1.84
1.37
1.28
1.39
1.56
1.62
1.54
1.31
0.99
0.60
0.10
-0.61
-1.62
-2.95
-4.55
-6.27
-7.93
-9.43
-10.73
-11.90
-13.08
-14.37
-15.82
-17.33
-18.77
-19.96
-20.79
-21.19
-21.10
-20.53
-19.49
-18.04
-16.26
-14.27
-12.19
-10.09
-7.98
-5.81
-3.55
-1.22
1.08
3.18
4.93
6.22
7.10
7.69
8.12
8.47
8.74
8.85
8.72
8.32
7.68
6.87
5.93
4.89
3.74
2.52
1.34
0.36
-0.30
-0.59
-0.57
-0.46
-0.56
-1.13
-2.36
-4.21
-6.46
-8.78
-10.83
-12.34
-13.21
-13.48
-13.28
-12.75
-12.04
-11.24
-10.41
-9.61
-8.86
-8.16
-7.51
-6.83
-6.07
-5.13
-3.95
-2.49
-0.85
0.84
2.33
3.37
3.76
3.38
2.30
0.78
-0.73
-1.71
-1.71
-0.58
1.51
4.05
6.42
8.12
8.86
8.65
7.70
6.34
4.91
3.68
2.75
2.10
1.52
0.73
-0.54
-2.33
-4.49
-6.72
-8.73
-10.36
-11.53
-12.21
-12.11
-10.68
-7.09
-0.50
9.66
23.42
40.11
58.50
77.07
94.32
109.04
120.46
128.26
132.50
133.57
132.10
128.91
124.97
121.22
118.45
117.09
117.00
117.45
117.15
114.45
107.56
95.03
76.18
51.47
22.66
-7.57
-36.19
-60.69
-79.62
-92.81
-101.11
-105.81
-108.05
-108.58
-107.78
-105.98
-103.61
-101.29
-99.53
-98.44
-97.66
-96.48
-94.19
-90.43
-85.32
-79.45
-73.57
-68.35
-64.16
-61.02
-58.68
-56.79
-54.96
-52.89
-50.37
-47.30
-43.71
-39.76
-35.67
-31.75
-28.24
-25.33
-23.09
-21.45
-20.19
-18.97
-17.38
-15.05
-11.67
-7.11
-1.41
5.18
12.22
19.20
25.61
31.09
35.43
38.61
40.66
41.58
41.34
39.85
37.14
33.34
28.85
24.17
19.86
16.40
14.09
13.04
13.14
14.18
15.85
17.81
19.73
21.32
22.33
22.56
21.91
20.42
18.34
16.09
14.14
12.87
12.45
12.74
13.39
13.96
14.14
13.77
12.94
11.79
10.56
9.41
8.45
7.75
7.32
7.13
7.12
7.24
7.42
7.58
7.58
7.21
6.24
4.52
2.05
-0.89
-3.81
-6.15
-7.48
-7.66
-6.94
-5.84
-4.93
-4.50
-4.38
-3.91
-2.22
1.43
7.12
14.19
21.34
27.16
30.77
32.30
32.87
34.16
37.51
43.08
49.44
53.93
53.44
45.53
29.26
5.30
-24.38
-57.08
-89.93
-120.13
-145.36
-164.13
-176.31
-183.14
-186.47
-187.31
-184.47
-174.27
-151.95
-114.35
-62.29
-1.26
60.17
113.60
153.81
179.93
194.57
201.47
203.31
201.03
194.53
184.07
171.36
159.39
151.33
149.19
153.01
160.97
170.37
178.76
184.66
187.77
188.41
186.87
182.93
175.94
165.23
150.71
133.08
113.53
93.23
72.75
51.80
29.39
4.20
-25.07
-59.36
-98.81
-142.15
-186.30
-226.57
-257.73
-275.77
-279.44
-270.89
-254.76
-236.23
-219.07
-204.56
-192.00
-179.89
-167.37
-154.68
-142.78
-132.43
-123.55
-115.23
-106.30
-96.04
-84.55
-72.66
-61.40
-51.55
-43.26
-36.12
-29.45
-22.76
-15.89
-9.17
-3.18
1.57
4.92
7.08
8.57
9.91
11.44
13.22
15.03
16.50
17.26
17.08
15.90
13.85
11.25
8.46
5.80
3.45
1.42
-0.44
-2.33
-4.39
-6.67
-9.23
-12.17
-15.63
-19.73
-24.48
-29.65
-34.83
-39.47
-43.02
-45.07
-45.38
-43.95
-41.02
-37.05
-32.61
-28.25
-24.27
-20.66
-17.08
-13.05
-8.19
-2.36
4.14
10.76
16.80
21.65
24.92
26.56
26.87
26.31
25.51
24.98
25.05
25.73
26.78
27.77
28.26
27.92
26.61
24.40
21.53
18.30
15.06
12.05
9.45
7.32
5.57
3.95
2.16
-0.09
-2.96
-6.44
-10.29
-14.15
-17.59
-20.26
-21.96
-22.62
-22.38
-21.56
-20.52
-19.66
-19.18
-19.00
-18.73
-17.84
-15.90
-12.82
-8.95
-4.98
-1.64
0.59
1.63
1.81
1.55
1.24
0.96
0.63
0.07
-0.76
-1.75
-2.65
-3.33
-3.89
-4.72
-6.27
-8.73
-11.70
-14.13
-14.69
-12.53
-8.02
-2.80
0.98
2.06
1.37
2.14
8.51
23.28
46.14
73.14
98.27
115.79
122.53
118.66
106.83
90.63
73.65
59.48
52.28
56.59
75.86
109.98
153.64
197.14
229.75
244.43
241.24
227.38
213.56
208.50
214.57
226.99
236.77
235.54
219.50
190.40
153.43
113.92
74.69
35.65
-4.61
-46.76
-89.48
-129.88
-165.16
-194.32
-218.93
-242.67
-270.01
-304.54
-347.45
-396.59
-446.24
-488.12
-513.49
-515.74
-492.47
-446.23
-383.38
-311.80
-238.55
-168.61
-104.81
-48.76
-1.69
35.38
62.19
79.98
91.69
101.18
111.87
125.51
141.50
157.36
169.78
176.02
174.89
166.86
153.48
136.53
117.13
95.63
72.10
46.98
21.53
-2.37
-22.99
-39.71
-53.44
-66.26
-80.54
-97.62
-117.00
-136.46
-152.92
-163.86
-168.48
-167.97
-164.89
-161.97
-160.76
-161.11
-161.32
-159.13
-152.79
-141.78
-126.55
-107.79
-85.79
-60.48
-32.25
-2.87
24.36
45.88
59.95
68.25
75.67
87.89
108.11
134.81
162.20
183.10
192.64
190.50
180.41
167.45
154.91
142.89
129.04
111.13
89.33
66.85
48.65
38.82
38.51
45.30
54.43
60.96
61.95
57.49
50.31
44.13
41.78
43.88
48.70
53.20
54.66
51.97
46.08
39.30
33.92
31.03
30.16
29.76
28.37
25.49
21.81
18.64
17.04
17.16
18.28
19.36
19.70
19.40
19.18
19.92
22.13
25.61
29.52
32.71
34.13
33.17
29.84
24.73
18.81
13.18
8.73
5.90
4.65
4.54
4.97
5.48
5.77
5.76
5.46
4.82
3.71
1.92
-0.69
-4.09
-8.07
-12.21
-16.08
-19.34
-21.85
-23.66
-24.90
-25.72
-26.16
-26.19
-25.74
-24.76
-23.30
-21.56
-19.77
-18.17
-16.97
-16.30
-16.15
-16.42
-16.87
-17.18
-17.05
-16.37
-15.26
-14.08
-13.31
-13.27
-14.01
-15.23
-16.40
-16.99
-16.72
-15.58
-13.83
-11.79
-9.63
-7.44
-5.36
-3.72
-3.06
-3.82
-5.98
-8.83
-11.07
-11.32
-8.78
-3.54
3.49
10.94
17.60
22.67
25.82
26.99
26.17
23.38
18.73
12.56
5.54
-1.44
-7.42
-11.63
-13.66
-13.67
-12.30
-10.47
-8.85
-7.62
-6.33
-4.26
-0.87
3.88
9.50
15.42
21.18
26.55
31.25
34.87
37.07
37.92
38.19
39.03
41.19
44.29
46.78
46.52
42.08
33.54
22.50
11.26
1.65
-5.62
-10.83
-14.54
-16.98
-17.90
-17.05
-14.61
-11.40
-8.52
-6.78
-6.32
-6.61
-6.86
-6.53
-5.65
-4.81
-4.81
-6.23
-9.13
-13.02
-17.10
-20.57
-22.90
-24.00
-24.15
-23.82
-23.51
-23.57
-24.13
-24.92
-25.39
-24.66
-21.90
-16.64
-9.07
-0.12
8.89
16.79
23.11
28.23
33.09
38.55
44.72
50.77
55.22
56.70
54.69
49.86
43.74
38.07
33.92
31.33
29.32
26.55
21.87
14.78
5.36
-5.95
-18.63
-32.11
-45.63
-58.02
-67.80
-73.63
-74.89
-72.04
-66.59
-60.47
-55.31
-51.83
-49.82
-48.40
-46.64
-43.81
-39.55
-33.79
-26.62
-18.40
-9.84
-1.92
4.39
8.53
10.64
11.43
11.76
12.22
12.94
13.87
15.17
17.36
21.03
26.24
32.08
36.78
38.54
36.50
31.31
24.97
19.73
17.01
16.61
16.96
15.98
12.20
5.43
-3.31
-12.42
-20.50
-26.84
-31.38
-34.37
-36.06
-36.46
-35.53
-33.33
-30.22
-26.74
-23.47
-20.74
-18.58
-16.76
-14.95
-12.86
-10.42
-7.78
-5.38
-3.76
-3.38
-4.49
-6.83
-9.75
-12.25
-13.37
-12.43
-9.30
-4.54
0.85
5.64
8.85
10.08
9.70
8.64
8.02
8.69
10.89
14.26
18.17
22.00
25.38
28.16
30.28
31.68
32.27
32.08
31.32
30.38
29.70
29.52
29.84
30.31
30.39
29.46
26.93
22.45
16.03
8.15
-0.26
-7.97
-13.80
-16.94
-17.27
-15.33
-12.08
-8.47
-5.12
-2.14
0.74
3.97
7.83
12.35
17.21
21.88
25.77
28.45
29.79
30.05
29.59
28.69
27.20
24.58
20.19
13.78
5.92
-2.12
-8.82
-13.13
-15.03
-15.46
-15.80
-17.22
-20.21
-24.45
-29.26
-33.97
-38.29
-42.26
-46.08
-49.81
-53.23
-55.87
-57.18
-56.83
-54.76
-51.16
-46.26
-40.12
-32.64
-23.75
-13.67
-3.07
7.04
15.66
22.20
26.68
29.65
31.86
33.91
36.05
38.23
40.17
41.56
42.17
41.92
40.91
39.53
38.35
37.89
38.45
39.89
41.76
43.59
45.19
46.86
49.25
53.01
58.45
65.32
72.95
80.53
87.47
93.55
98.96
104.22
110.20
118.03
129.01
144.15
163.45
185.39
206.85
223.97
233.58
234.73
229.23
221.09
214.76
213.30
216.99
223.23
227.36
223.96
208.28
177.19
129.99
68.74
-1.94
-75.74
-146.20
-208.29
-259.54
-299.97
-331.06
-354.35
-370.59
-379.75
-381.85
-377.69
-369.15
-358.87
-349.58
-343.37
-341.23
-342.71
-345.98
-347.97
-345.17
-334.70
-315.57
-289.57
-261.30
-237.25
-223.76
-224.57
-238.96
-261.27
-282.55
-293.86
-290.30
-273.44
-250.90
-232.68
-225.92
-230.91
-240.55
-243.76
-230.71
-196.88
-143.88
-77.44
-4.32
69.43
138.35
196.61
237.81
256.58
251.10
225.02
187.10
148.30
118.05
101.27
97.76
103.54
113.22
122.19
127.71
129.03
126.92
123.11
119.36
116.94
116.22
116.63
116.87
115.36
110.74
102.34
90.41
76.04
60.87
46.59
34.56
25.47
19.39
15.92
14.46
14.41
15.37
17.09
19.50
22.65
26.63
31.50
37.16
43.27
49.29
54.54
58.43
60.67
61.30
60.71
59.41
57.91
56.50
55.27
54.11
52.84
51.35
49.58
47.51
45.12
42.35
39.15
35.49
31.47
27.24
22.98
18.78
14.67
10.58
6.41
2.10
-2.37
-6.95
-11.62
-16.42
-21.36
-26.40
-31.42
-36.08
-39.92
-42.47
-43.28
-42.16
-39.13
-34.45
-28.49
-21.61
-14.11
-6.17
2.04
10.33
18.43
25.98
32.64
38.15
42.45
45.66
47.98
49.61
50.65
51.13
51.00
50.25
48.98
47.35
45.57
43.78
42.00
40.19
38.30
36.30
34.18
31.92
29.43
26.59
23.29
19.49
15.30
10.93
6.63
2.56
-1.24
-4.91
-8.69
-12.84
-17.49
-22.55
-27.65
-32.22
-35.58
-37.14
-36.59
-33.93
-29.45
-23.62
-16.89
-9.70
-2.39
4.79
11.64
18.02
23.89
29.25
34.10
38.37
41.93
44.64
46.40
47.24
47.33
46.90
46.14
45.15
43.94
42.45
40.69
38.70
36.55
34.32
31.99
29.52
26.82
23.87
20.69
17.33
13.85
10.25
6.52
2.68
-1.20
-5.06
-8.86
-12.68
-16.61
-20.71
-24.82
-28.55
-31.30
-32.43
-31.50
-28.40
-23.42
-17.15
-10.27
-3.39
3.11
9.09
14.64
19.90
25.02
29.98
34.66
38.83
42.24
44.73
46.20
46.65
46.15
44.84
42.86
40.36
37.56
34.63
31.72
28.90
26.11
23.21
20.09
16.68
13.08
9.48
6.10
3.14
0.60
-1.69
-3.93
-6.30
-8.85
-11.51
-14.21
-16.97
-19.89
-23.09
-26.59
-30.20
-33.56
-36.20
-37.68
-37.70
-36.10
-32.87
-28.09
-21.95
-14.69
-6.63
1.87
10.52
19.13
27.48
35.37
42.52
48.59
53.31
56.57
58.47
59.29
59.39
59.04
58.39
57.46
56.21
54.60
52.62
50.31
47.67
44.74
41.55
38.16
34.71
31.32
28.08
25.02
22.04
19.00
15.77
12.27
8.53
4.61
0.60
-3.46
-7.59
-11.85
-16.26
-20.81
-25.37
-29.75
-33.68
-36.81
-38.76
-39.16
-37.66
-34.15
-28.70
-21.67
-13.55
-4.86
3.94
12.54
20.64
27.98
34.21
39.01
42.21
43.89
44.38
44.09
43.39
42.41
41.09
39.19
36.51
33.05
29.03
24.81
20.80
17.29
14.38
11.97
9.82
7.65
5.22
2.34
-1.00
-4.76
-8.74
-12.79
-16.75
-20.54
-24.19
-27.81
-31.55
-35.50
-39.68
-43.91
-47.91
-51.23
-53.42
-54.09
-52.93
-49.85
-44.98
-38.60
-31.15
-23.08
-14.77
-6.56
1.30
8.62
15.23
20.95
25.60
29.05
31.26
32.26
32.23
31.38
29.99
28.22
26.19
23.87
21.20
18.17
14.91
11.63
8.58
5.92
3.63
1.54
-0.61
-3.07
-5.94
-9.13
-12.44
-15.64
-18.58
-21.26
-23.86
-26.59
-29.59
-32.92
-36.47
-40.01
-43.22
-45.69
-47.04
-46.90
-45.04
-41.43
-36.27
-29.97
-23.04
-15.95
-9.01
-2.27
4.35
10.97
17.60
24.02
29.90
34.82
38.53
40.94
42.17
42.47
42.07
41.18
39.96
38.52
36.87
34.98
32.78
30.23
27.38
24.35
21.31
18.40
15.63
12.94
10.19
7.25
4.06
0.60
-3.11
-7.02
-11.06
-15.14
-19.23
-23.32
-27.47
-31.75
-36.18
-40.68
-45.04
-48.88
-51.79
-53.28
-52.99
-50.71
-46.50
-40.66
-33.70
-26.15
-18.43
-10.80
-3.37
3.76
10.46
16.47
21.48
25.23
27.63
28.77
28.97
28.67
28.30
28.14
28.24
28.43
28.37
27.76
26.45
24.54
22.28
19.93
17.64
15.38
13.00
10.33
7.32
4.06
0.72
-2.49
-5.44
-8.14
-10.72
-13.38
-16.30
-19.59
-23.25
-27.12
-30.95
-34.41
-37.15
-38.80
-39.07
-37.73
-34.73
-30.18
-24.43
-17.91
-11.07
-4.22
2.45
8.86
14.89
20.34
24.93
28.41
30.70
31.86
32.11
31.66
30.66
29.15
27.15
24.72
22.02
19.26
16.57
13.98
11.41
8.71
5.82
2.77
-0.34
-3.39
-6.33
-9.22
-12.21
-15.43
-18.93
-22.60
-26.28
-29.79
-33.09
-36.22
-39.27
-42.31
-45.23
-47.76
-49.51
-50.07
-49.15
-46.67
-42.69
-37.45
-31.25
-24.38
-17.12
-9.72
-2.47
4.38
10.53
15.72
19.80
22.72
24.57
25.59
26.05
26.17
26.07
25.74
25.12
24.14
22.80
21.18
19.36
17.39
15.23
12.86
10.36
7.90
5.74
4.04
2.77
1.72
0.54
-0.99
-2.92
-5.13
-7.45
-9.73
-11.97
-14.23
-16.62
-19.21
-22.01
-24.96
-27.86
-30.44
-32.30
-33.08
-32.50
-30.49
-27.17
-22.81
-17.68
-12.03
-6.06
0.08
6.20
12.12
17.65
22.59
26.74
29.96
32.12
33.20
33.30
32.66
31.58
30.37
29.25
28.36
27.74
27.28
26.80
26.02
24.65
22.50
19.60
16.18
12.64
9.39
6.64
4.33
2.21
-0.05
-2.64
-5.53
-8.54
-11.47
-14.30
-17.17
-20.35
-24.01
-28.08
-32.23
-35.92
-38.60
-39.86
-39.56
-37.75
-34.64
-30.39
-25.17
-19.16
-12.58
-5.77
0.82
6.77
11.80
15.78
18.77
20.92
22.39
23.35
23.93
24.20
24.21
23.98
23.43
22.49
21.07
19.22
17.05
14.75
12.49
10.37
8.36
6.35
4.19
1.79
-0.81
-3.49
-6.10
-8.58
-10.99
-13.46
-16.16
-19.20
-22.54
-26.11
-29.81
-33.57
-37.28
-40.74
-43.62
-45.49
-45.95
-44.73
-41.87
-37.58
-32.24
-26.25
-19.93
-13.55
-7.32
-1.46
3.79
8.24
11.76
14.40
16.31
17.74
18.89
19.87
20.68
21.19
21.30
20.92
20.07
18.82
17.30
15.63
13.96
12.37
10.92
9.64
8.48
7.34
6.10
4.66
2.98
1.09
-0.91
-2.99
-5.09
-7.22
-9.36
-11.48
-13.60
-15.77
-18.10
-20.72
-23.66
-26.76
-29.63
-31.74
-32.58
-31.82
-29.46
-25.71
-20.98
-15.67
-10.08
-4.46
1.03
6.26
11.04
15.22
18.70
21.46
23.59
25.21
26.37
27.10
27.35
27.11
26.43
25.45
24.31
23.11
21.88
20.56
19.11
17.57
16.01
14.57
13.31
12.18
11.03
9.67
7.97
5.95
3.70
1.43
-0.69
-2.58
-4.24
-5.78
-7.34
-9.06
-11.02
-13.25
-15.66
-18.09
-20.28
-21.86
-22.43
-21.60
-19.18
-15.23
-10.10
-4.42
1.13
5.99
9.97
13.19
16.03
18.82
21.63
24.24
26.23
27.20
27.01
25.81
23.95
21.79
19.57
17.34
15.12
12.90
10.74
8.71
6.80
4.91
2.88
0.62
-1.87
-4.52
-7.16
-9.72
-12.15
-14.43
-16.56
-18.57
-20.50
-22.45
-24.60
-27.11
-30.04
-33.38
-36.92
-40.31
-43.15
-45.03
-45.65
-44.87
-42.66
-39.17
-34.56
-29.09
-23.01
-16.56
-10.02
-3.66
2.33
7.75
12.44
16.22
18.93
20.51
21.11
21.01
20.64
20.34
20.23
20.14
19.75
18.75
17.03
14.76
12.26
9.88
7.82
6.01
4.23
2.15
-0.49
-3.78
-7.61
-11.72
-15.78
-19.54
-22.85
-25.64
-27.91
-29.73
-31.20
-32.55
-34.05
-35.95
-38.26
-40.65
-42.50
-43.11
-41.99
-39.04
-34.58
-29.17
-23.34
-17.45
-11.64
-5.96
-0.50
4.60
9.17
13.10
16.40
19.13
21.35
23.10
24.39
25.21
25.57
25.54
25.17
24.51
23.57
22.37
20.93
19.28
17.50
15.63
13.71
11.77
9.79
7.74
5.62
3.44
1.20
-1.08
-3.41
-5.84
-8.43
-11.22
-14.22
-17.40
-20.68
-23.97
-27.16
-30.09
-32.49
-34.02
-34.40
-33.42
-31.07
-27.53
-23.06
-17.95
-12.41
-6.61
-0.74
4.98
10.31
15.04
19.07
22.36
24.99
27.03
28.57
29.72
30.57
31.20
31.66
31.96
32.04
31.89
31.48
30.84
29.99
28.92
27.60
25.99
24.05
21.78
19.21
16.38
13.34
10.10
6.64
2.89
-1.23
-5.80
-10.80
-16.11
-21.49
-26.65
-31.31
-35.30
-38.48
-40.78
-42.11
-42.33
-41.33
-39.02
-35.38
-30.43
-24.30
-17.19
-9.43
-1.45
6.21
13.09
18.87
23.46
26.98
29.61
31.52
32.75
33.27
33.00
31.97
30.24
27.98
25.33
22.42
19.34
16.17
12.99
9.88
6.94
4.21
1.67
-0.81
-3.41
-6.27
-9.49
-13.00
-16.61
-20.07
-23.22
-26.05
-28.73
-31.55
-34.71
-38.22
-41.83
-45.08
-47.43
-48.43
-47.80
-45.47
-41.57
-36.34
-30.09
-23.20
-16.05
-9.00
-2.33
3.85
9.48
14.57
19.13
23.09
26.38
28.94
30.73
31.80
32.23
32.13
31.57
30.72
29.71
28.68
27.77
26.93
26.07
25.00
23.60
21.78
19.62
17.18
14.60
11.96
9.25
6.45
3.46
0.24
-3.25
-6.95
-10.82
-14.79
-18.84
-23.03
-27.38
-31.84
-36.16
-39.93
-42.64
-43.85
-43.32
-41.02
-37.17
-32.10
-26.20
-19.86
-13.36
-6.92
-0.66
5.33
11.03
16.31
21.02
24.94
27.83
29.57
30.14
29.73
28.65
27.29
25.94
24.74
23.57
22.12
20.05
17.18
13.65
9.89
6.47
3.75
1.84
0.52
-0.52
-1.46
-2.30
-2.90
-3.19
-3.24
-3.30
-3.62
-4.30
-5.33
-6.60
-8.09
-9.81
-11.76
-13.74
-15.35
-16.06
-15.44
-13.33
-9.88
-5.46
-0.46
4.79
10.11
15.46
20.84
26.15
31.13
35.36
38.40
40.01
40.24
39.47
38.17
36.69
35.09
33.19
30.80
27.89
24.70
21.61
18.92
16.65
14.55
12.29
9.65
6.59
3.24
-0.25
-3.81
-7.47
-11.28
-15.25
-19.26
-23.16
-26.83
-30.28
-33.63
-37.09
-40.78
-44.62
-48.25
-51.13
-52.66
-52.45
-50.38
-46.63
-41.61
-35.74
-29.41
-22.89
-16.42
-10.20
-4.42
0.85
5.57
9.78
13.47
16.58
18.95
20.41
20.91
20.56
19.64
18.51
17.42
16.49
15.69
14.90
14.02
13.05
12.00
10.91
9.76
8.45
6.88
5.01
2.88
0.65
-1.51
-3.47
-5.25
-6.92
-8.70
-10.77
-13.27
-16.23
-19.51
-22.87
-26.01
-28.64
-30.52
-31.43
-31.23
-29.78
-27.09
-23.25
-18.46
-13.05
-7.32
-1.52
4.20
9.72
14.97
19.82
24.10
27.67
30.38
32.16
32.96
32.79
31.73
29.94
27.74
25.51
23.58
22.15
21.14
20.27
19.19
17.66
15.61
13.21
10.69
8.29
6.09
4.05
2.01
-0.20
-2.66
-5.40
-8.26
-11.10
-13.74
-16.18
-18.48
-20.79
-23.14
-25.42
-27.39
-28.70
-29.08
-28.42
-26.73
-24.08
-20.51
-16.05
-10.76
-4.84
1.35
7.33
12.67
17.05
20.39
22.79
24.41
25.41
25.85
25.73
24.98
23.64
21.73
19.39
16.76
13.99
11.16
8.33
5.50
2.66
-0.21
-3.09
-5.97
-8.80
-11.60
-14.36
-17.13
-19.93
-22.79
-25.71
-28.67
-31.68
-34.71
-37.75
-40.73
-43.56
-46.06
-48.01
-49.13
-49.14
-47.78
-44.89
-40.53
-34.93
-28.52
-21.80
-15.23
-9.10
-3.52
1.58
6.34
10.88
15.17
19.07
22.32
24.71
26.14
26.73
26.74
26.47
26.14
25.81
25.41
24.79
23.90
22.75
21.45
20.11
18.77
17.39
15.91
14.27
12.48
10.61
8.73
6.89
5.08
3.26
1.35
-0.72
-3.03
-5.65
-8.64
-12.05
-15.82
-19.76
-23.51
-26.59
-28.51
-28.90
-27.65
-24.93
-21.05
-16.36
-11.13
-5.51
0.32
6.11
11.56
16.34
20.27
23.38
25.82
27.76
29.28
30.32
30.76
30.50
29.57
28.07
26.13
23.86
21.35
18.72
16.09
13.59
11.25
9.04
6.85
4.55
2.11
-0.44
-3.02
-5.53
-7.93
-10.24
-12.50
-14.76
-17.11
-19.60
-22.34
-25.39
-28.80
-32.51
-36.23
-39.50
-41.71
-42.29
-40.88
-37.50
-32.50
-26.43
-19.83
-13.03
-6.18
0.69
7.48
13.97
19.83
24.74
28.50
31.10
32.72
33.54
33.72
33.36
32.50
31.19
29.57
27.79
25.98
24.17
22.25
20.08
17.54
14.65
11.49
8.20
4.86
1.48
-2.00
-5.57
-9.18
-12.72
-16.12
-19.36
-22.51
-25.64
-28.73
-31.74
-34.52
-36.94
-38.87
-40.14
-40.55
-39.81
-37.67
-34.00
-28.92
-22.80
-16.13
-9.41
-2.97
3.02
8.59
13.75
18.45
22.55
25.89
28.37
30.01
30.89
31.13
30.84
30.08
28.89
27.37
25.62
23.73
21.74
19.63
17.43
15.20
13.10
11.25
9.60
7.97
6.11
3.83
1.16
-1.66
-4.33
-6.69
-8.86
-11.15
-13.92
-17.35
-21.37
-25.68
-29.85
-33.56
-36.48
-38.37
-38.99
-38.18
-35.87
-32.14
-27.26
-21.53
-15.28
-8.78
-2.23
4.22
10.40
16.21
21.54
26.29
30.32
33.45
35.49
36.37
36.18
35.18
33.78
32.34
31.04
29.87
28.65
27.22
25.46
23.40
21.10
18.63
16.01
13.23
10.31
7.30
4.35
1.57
-0.98
-3.38
-5.75
-8.24
-10.91
-13.77
-16.76
-19.86
-23.05
-26.34
-29.63
-32.69
-35.13
-36.50
-36.37
-34.55
-31.06
-26.21
-20.38
-14.02
-7.43
-0.80
5.75
12.16
18.27
23.87
28.65
32.31
34.70
35.79
35.80
35.05
33.86
32.46
30.92
29.16
27.10
24.67
21.93
19.03
16.13
13.34
10.69
8.10
5.40
2.45
-0.86
-4.59
-8.68
-13.00
-17.37
-21.56
-25.35
-28.58
-31.17
-33.20
-34.85
-36.38
-37.92
-39.47
-40.84
-41.71
-41.70
-40.45
-37.74
-33.47
-27.72
-20.79
-13.10
-5.16
2.52
9.57
15.75
20.92
25.03
28.07
30.06
31.12
31.44
31.23
30.70
29.91
28.87
27.51
25.83
23.90
21.86
19.86
17.97
16.22
14.58
12.95
11.25
9.37
7.21
4.68
1.73
-1.58
-5.11
-8.68
-12.10
-15.29
-18.31
-21.30
-24.45
-27.86
-31.55
-35.36
-39.02
-42.14
-44.34
-45.27
-44.63
-42.33
-38.41
-33.13
-26.92
-20.23
-13.48
-6.93
-0.71
5.17
10.65
15.64
20.04
23.72
26.67
28.91
30.52
31.56
32.04
32.05
31.70
31.21
30.75
30.44
30.23
29.90
29.25
28.09
26.39
24.21
21.71
18.97
16.05
12.89
9.46
5.76
1.86
-2.14
-6.14
-10.08
-14.00
-17.95
-22.00
-26.18
-30.41
-34.45
-37.94
-40.41
-41.42
-40.71
-38.26
-34.33
-29.38
-23.90
-18.28
-12.78
-7.56
-2.73
1.60
5.42
8.79
11.91
14.95
17.95
20.74
23.01
24.43
24.88
24.45
23.50
22.44
21.58
21.05
20.80
20.64
20.41
19.97
19.28
18.37
17.32
16.20
15.01
13.73
12.23
10.44
8.38
6.20
4.23
2.78
1.99
1.66
1.33
0.37
-1.58
-4.33
-7.08
-8.55
-7.56
-3.49
3.41
12.02
20.87
28.73
35.11
40.30
45.15
50.50
56.82
63.98
71.36
77.90
82.15
82.22
76.06
62.08
40.04
11.76
-18.96
-47.50
-70.03
-84.92
-93.13
-97.31
-100.16
-103.07
-105.55
-105.97
-102.77
-95.52
-85.07
-72.91
-60.18
-47.04
-32.91
-17.18
-0.15
16.66
31.00
40.78
45.16
44.88
41.91
38.52
36.37
36.09
37.25
38.74
39.16
37.13
31.72
22.71
10.86
-2.15
-14.26
-23.81
-30.18
-33.96
-36.54
-39.28
-42.85
-47.03
-50.99
-53.89
-55.31
-55.29
-54.09
-51.83
-48.41
-43.59
-37.33
-29.99
-22.42
-15.69
-10.74
-8.09
-7.58
-8.59
-10.25
-11.81
-12.86
-13.32
-13.37
-13.25
-13.14
-13.10
-13.16
-13.33
-13.69
-14.33
-15.34
-16.69
-18.23
-19.66
-20.58
-20.61
-19.37
-16.68
-12.55
-7.27
-1.30
4.86
10.83
16.41
21.62
26.55
31.25
35.60
39.34
42.14
43.80
44.32
43.93
42.97
41.83
40.71
39.68
38.64
37.47
36.05
34.36
32.41
30.27
27.96
25.46
22.70
19.60
16.14
12.36
8.40
4.45
0.70
-2.75
-5.90
-8.93
-12.05
-15.48
-19.27
-23.32
-27.36
-30.96
-33.73
-35.29
-35.45
-34.17
-31.55
-27.76
-23.10
-17.88
-12.49
-7.24
-2.36
2.01
5.80
9.03
11.75
14.07
16.09
17.82
19.23
20.12
20.29
19.59
18.03
15.80
13.21
10.60
8.22
6.27
4.87
4.05
3.75
3.75
3.72
3.29
2.23
0.44
-1.96
-4.70
-7.53
-10.21
-12.65
-14.84
-16.84
-18.77
-20.72
-22.75
-24.85
-26.88
-28.60
-29.75
-30.03
-29.22
-27.19
-23.93
-19.53
-14.25
-8.40
-2.33
3.62
9.21
14.29
18.74
22.51
25.55
27.78
29.16
29.71
29.50
28.71
27.55
26.27
25.01
23.87
22.85
21.90
20.95
19.94
18.85
17.73
16.64
15.66
14.77
13.89
12.88
11.59
9.96
8.02
5.87
3.63
1.37
-0.96
-3.47
-6.23
-9.28
-12.52
-15.75
-18.71
-21.14
-22.84
-23.62
-23.39
-22.06
-19.59
-15.96
-11.31
-5.87
-0.04
5.73
11.09
15.77
19.74
23.00
25.58
27.45
28.54
28.84
28.43
27.53
26.35
25.08
23.75
22.34
20.81
19.15
17.37
15.50
13.58
11.62
9.69
7.87
6.17
4.55
2.83
0.88
-1.37
-3.78
-6.16
-8.31
-10.18
-11.94
-13.79
-15.95
-18.44
-21.12
-23.72
-25.99
-27.63
-28.42
-28.19
-26.86
-24.47
-21.16
-17.22
-12.91
-8.48
-4.04
0.33
4.52
8.34
11.55
13.97
15.52
16.31
16.54
16.40
16.01
15.42
14.62
13.62
12.47
11.21
9.80
8.17
6.24
3.97
1.43
-1.21
-3.83
-6.35
-8.78
-11.16
-13.48
-15.69
-17.74
-19.58
-21.24
-22.80
-24.29
-25.75
-27.15
-28.47
-29.74
-31.00
-32.25
-33.31
-33.87
-33.51
-31.89
-28.93
-24.77
-19.83
-14.54
-9.23
-4.09
0.83
5.50
9.86
13.77
17.08
19.69
21.61
22.91
23.69
24.00
23.90
23.42
22.63
21.64
20.58
19.54
18.57
17.67
16.84
16.06
15.35
14.70
14.08
13.41
12.62
11.63
10.44
9.06
7.59
6.08
4.54
2.89
1.02
-1.18
-3.73
-6.53
-9.38
-12.04
-14.29
-15.96
-16.91
-17.05
-16.24
-14.42
-11.64
-8.09
-4.10
0.01
3.97
7.71
11.26
14.68
17.95
20.88
23.22
24.70
25.19
24.79
23.75
22.38
20.93
19.52
18.12
16.65
15.09
13.48
11.93
10.51
9.22
7.96
6.62
5.09
3.38
1.55
-0.31
-2.18
-4.11
-6.21
-8.55
-11.16
-13.93
-16.68
-19.27
-21.59
-23.68
-25.57
-27.28
-28.66
-29.45
-29.39
-28.28
-26.12
-23.11
-19.49
-15.49
-11.20
-6.62
-1.78
3.17
7.99
12.32
15.91
18.60
20.43
21.53
22.04
22.05
21.54
20.51
18.99
17.11
15.09
13.15
11.38
9.74
8.12
6.37
4.45
2.42
0.37
-1.65
-3.72
-5.97
-8.51
-11.33
-14.30
-17.18
-19.78
-22.04
-24.05
-25.99
-28.00
-30.12
-32.26
-34.26
-35.95
-37.16
-37.72
-37.48
-36.30
-34.07
-30.80
-26.63
-21.79
-16.59
-11.32
-6.25
-1.59
2.50
5.95
8.69
10.71
12.09
12.96
13.48
13.84
14.14
14.39
14.51
14.37
13.89
13.11
12.20
11.36
10.74
10.31
9.91
9.34
8.43
7.14
5.44
3.39
1.04
-1.50
-4.03
-6.29
-8.08
-9.34
-10.23
-11.09
-12.28
-13.98
-16.08
-18.26
-20.10
-21.24
-21.49
-20.78
-19.14
-16.59
-13.22
-9.17
-4.67
-0.01
4.52
8.72
12.49
15.82
18.73
21.23
23.28
24.80
25.77
26.21
26.22
25.97
25.67
25.50
25.55
25.80
26.07
26.12
25.78
24.98
23.80
22.35
20.74
19.00
17.13
15.11
12.99
10.85
8.78
6.83
4.99
3.22
1.48
-0.29
-2.14
-4.18
-6.49
-9.15
-12.08
-15.08
-17.85
-20.09
-21.58
-22.20
-21.86
-20.50
-18.07
-14.58
-10.18
-5.20
-0.05
4.87
9.31
13.20
16.55
19.38
21.62
23.13
23.84
23.74
23.02
21.95
20.77
19.61
18.46
17.24
15.89
14.42
12.89
11.33
9.74
8.03
6.10
3.93
1.56
-0.96
-3.52
-6.09
-8.65
-11.21
-13.75
-16.25
-18.72
-21.20
-23.78
-26.51
-29.39
-32.27
-34.95
-37.16
-38.64
-39.14
-38.53
-36.77
-33.97
-30.33
-26.10
-21.52
-16.77
-11.97
-7.18
-2.48
2.03
6.17
9.73
12.51
14.39
15.37
15.61
15.38
14.96
14.54
14.15
13.70
13.03
12.05
10.77
9.28
7.77
6.33
5.01
3.78
2.56
1.30
-0.05
-1.51
-3.07
-4.72
-6.44
-8.22
-10.02
-11.82
-13.63
-15.45
-17.29
-19.18
-21.13
-23.10
-24.94
-26.38
-27.09
-26.74
-25.14
-22.26
-18.30
-13.56
-8.39
-3.11
2.06
6.92
11.39
15.43
19.06
22.28
25.06
27.34
29.02
30.03
30.39
30.21
29.68
28.93
28.05
27.05
25.89
24.58
23.21
21.83
20.46
18.97
17.21
15.08
12.63
10.07
7.69
5.70
4.14
2.85
1.61
0.16
-1.61
-3.77
-6.29
-9.17
-12.40
-15.87
-19.39
-22.59
-25.04
-26.34
-26.27
-24.87
-22.38
-19.17
-15.55
-11.66
-7.52
-3.07
1.65
6.46
11.08
15.21
18.60
21.15
22.85
23.76
23.99
23.70
23.03
22.13
21.10
19.94
18.62
17.06
15.22
13.16
10.98
8.80
6.68
4.60
2.48
0.26
-2.15
-4.70
-7.34
-9.96
-12.45
-14.77
-16.95
-19.11
-21.34
-23.75
-26.37
-29.12
-31.85
-34.35
-36.36
-37.64
-37.99
-37.20
-35.21
-32.04
-27.85
-22.90
-17.52
-12.05
-6.81
-2.03
2.17
5.74
8.74
11.22
13.20
14.61
15.38
15.48
14.93
13.93
12.67
11.34
10.01
8.63
7.09
5.34
3.40
1.35
-0.69
-2.68
-4.61
-6.56
-8.56
-10.55
-12.46
-14.23
-15.86
-17.48
-19.28
-21.41
-23.94
-26.78
-29.73
-32.61
-35.32
-37.95
-40.63
-43.41
-46.10
-48.27
-49.34
-48.87
-46.86
-43.75
-40.35
-37.49
-35.69
-35.03
-35.21
-35.80
-36.51
-37.38
-38.68
-40.68
-43.50
-47.10
-51.43
-56.81
-63.75
-72.51
-82.42
-91.58
-97.23
-96.75
-88.73
-73.34
-51.88
-25.69
4.61
39.17
78.10
120.42
163.66
204.34
239.19
266.21
285.04
296.53
301.91
302.09
297.57
288.68
276.05
260.69
243.97
227.30
211.78
197.95
185.75
174.56
163.51
151.81
139.03
125.34
111.40
98.36
87.58
80.44
78.05
80.98
88.95
100.73
114.20
126.49
134.22
133.98
122.98
99.86
65.21
21.69
-26.63
-75.46
-121.50
-163.12
-200.21
-233.38
-263.02
-288.88
-310.28
-326.77
-338.70
-347.23
-353.86
-359.68
-364.96
-369.12
-371.11
-369.90
-364.75
-355.45
-342.31
-326.21
-308.61
-291.24
-275.54
-261.83
-248.84
-233.93
-214.00
-186.73
-151.50
-109.63
-63.67
-16.52
29.37
72.02
109.74
140.73
163.41
177.00
182.20
181.35
177.78
174.73
174.17
176.34
179.90
182.73
182.84
178.97
170.75
158.50
142.97
125.04
105.78
86.46
68.50
53.28
41.81
34.42
30.70
29.63
29.95
30.58
30.93
30.89
30.77
31.07
32.25
34.60
38.11
42.53
47.28
51.55
54.45
55.34
54.06
51.15
47.66
44.77
43.29
43.32
44.20
44.86
44.25
41.83
37.68
32.39
26.72
21.30
16.40
12.00
7.92
4.09
0.62
-2.22
-4.16
-5.13
-5.36
-5.35
-5.64
-6.58
-8.19
-10.17
-12.04
-13.47
-14.46
-15.32
-16.58
-18.68
-21.73
-25.60
-29.88
-34.16
-38.06
-41.23
-43.34
-44.01
-42.87
-39.74
-34.69
-28.13
-20.68
-13.03
-5.76
0.80
6.60
11.76
16.50
20.85
24.60
27.20
27.97
26.33
22.19
15.97
8.61
1.24
-5.03
-9.45
-11.65
-11.66
-9.78
-6.57
-2.66
1.36
4.99
7.95
10.13
11.56
12.26
12.22
11.30
9.31
6.00
1.19
-5.12
-12.66
-20.84
-28.85
-35.82
-41.10
-44.31
-45.39
-44.43
-41.57
-36.93
-30.69
-23.19
-14.92
-6.54
1.35
8.30
14.12
18.89
22.73
25.77
28.08
29.67
30.53
30.72
30.34
29.50
28.35
26.95
25.37
23.60
21.62
19.45
17.15
14.81
12.55
10.47
8.54
6.66
4.67
2.43
-0.09
-2.81
-5.58
-8.24
-10.70
-12.97
-15.12
-17.31
-19.69
-22.43
-25.62
-29.24
-33.06
-36.71
-39.63
-41.26
-41.09
-38.88
-34.70
-28.92
-22.10
-14.87
-7.74
-1.06
5.01
10.40
15.08
18.99
22.00
24.01
24.97
25.00
24.30
23.20
21.96
20.76
19.61
18.39
16.95
15.18
13.10
10.83
8.50
6.16
3.73
1.11
-1.76
-4.86
-8.09
-11.28
-14.35
-17.23
-19.94
-22.53
-25.03
-27.50
-30.04
-32.74
-35.67
-38.82
-41.99
-44.87
-47.04
-48.04
-47.53
-45.35
-41.55
-36.39
-30.33
-23.80
-17.14
-10.63
-4.39
1.43
6.69
11.19
14.76
17.30
18.86
19.61
19.76
19.50
18.93
18.13
17.15
16.08
15.05
14.16
13.50
13.05
12.77
12.57
12.41
12.24
11.99
11.54
10.71
9.32
7.34
4.84
2.04
-0.77
-3.36
-5.68
-7.82
-10.00
-12.46
-15.32
-18.54
-21.90
-25.04
-27.52
-28.98
-29.16
-27.94
-25.36
-21.56
-16.74
-11.20
-5.25
0.74
6.45
11.59
16.02
19.73
22.81
25.36
27.43
28.99
29.97
30.28
29.94
29.07
27.83
26.41
24.92
23.38
21.77
20.04
18.20
16.33
14.55
12.90
11.34
9.68
7.70
5.28
2.47
-0.50
-3.36
-5.93
-8.25
-10.58
-13.21
-16.34
-19.96
-23.90
-27.89
-31.66
-35.01
-37.73
-39.54
-40.16
-39.40
-37.30
-34.12
-30.34
-26.39
-22.52
-18.67
-14.59
-9.96
-4.65
1.15
7.01
12.31
16.51
19.30
20.71
21.01
20.64
19.99
19.34
18.80
18.34
17.90
17.33
16.51
15.30
13.60
11.37
8.62
5.48
2.15
-1.15
-4.26
-7.04
-9.50
-11.75
-13.95
-16.26
-18.79
-21.58
-24.64
-27.93
-31.41
-35.02
-38.57
-41.75
-44.10
-45.14
-44.45
-41.83
-37.34
-31.32
-24.24
-16.63
-8.95
-1.54
5.42
11.82
17.60
22.70
27.02
30.43
32.85
34.29
34.89
34.87
34.51
34.01
33.48
32.90
32.21
31.33
30.28
29.06
27.72
26.27
24.67
22.85
20.80
18.61
16.43
14.45
12.82
11.62
10.77
10.15
9.57
8.88
8.04
6.98
5.75
4.37
2.93
1.60
0.67
0.53
1.65
4.46
9.21
15.90
24.33
34.07
44.69
55.74
66.84
77.71
88.08
97.77
106.65
114.68
121.95
128.60
134.83
140.75
146.28
151.13
154.82
156.87
156.96
155.05
151.42
146.45
140.46
133.47
125.22
115.15
102.68
87.33
68.95
47.81
24.63
0.50
-23.29
-45.44
-64.91
-81.05
-93.80
-103.54
-111.05
-117.25
-122.98
-128.77
-134.77
-140.78
-146.40
-151.26
-155.09
-157.76
-159.21
-159.30
-157.83
-154.59
-149.55
-142.97
-135.39
-127.54
-120.05
-113.34
-107.40
-101.91
-96.35
-90.19
-83.14
-75.21
-66.73
-58.21
-50.20
-43.08
-37.00
-31.91
-27.62
-23.92
-20.71
-18.00
-15.86
-14.38
-13.59
-13.47
-13.94
-15.00
-16.60
-18.78
-21.56
-24.93
-28.81
-33.10
-37.63
-42.22
-46.63
-50.60
-53.83
-55.93
-56.51
-55.23
-51.91
-46.60
-39.65
-31.57
-22.98
-14.43
-6.29
1.19
7.85
13.58
18.32
22.04
24.81
26.76
28.08
28.92
29.42
29.66
29.73
29.70
29.62
29.50
29.34
29.09
28.71
28.06
27.05
25.55
23.50
20.96
18.08
15.07
12.14
9.41
6.88
4.46
2.05
-0.48
-3.23
-6.25
-9.55
-13.10
-16.71
-20.10
-22.87
-24.60
-24.95
-23.73
-21.00
-17.01
-12.16
-6.87
-1.58
3.37
7.74
11.37
14.22
16.42
18.21
19.93
21.83
24.02
26.37
28.59
30.36
31.44
31.76
31.34
30.27
28.67
26.63
24.32
21.87
19.40
16.82
13.85
10.04
5.05
-1.17
-8.25
-15.44
-21.90
-26.93
-30.21
-31.83
-32.14
-31.64
-30.77
-29.89
-29.14
-28.51
-27.83
-26.82
-25.21
-22.84
-19.76
-16.19
-12.46
-8.91
-5.74
-2.97
-0.45
2.11
5.00
8.47
12.61
17.32
22.38
27.49
32.43
37.08
41.43
45.53
49.31
52.55
54.89
55.85
55.10
52.44
47.96
41.90
34.62
26.52
17.97
9.37
1.13
-6.42
-13.04
-18.61
-23.10
-26.49
-28.75
-29.89
-30.00
-29.42
-28.66
-28.24
-28.64
-29.99
-32.15
-34.69
-37.10
-38.85
-39.53
-38.90
-36.80
-33.27
-28.41
-22.46
-15.66
-8.23
-0.35
7.84
16.29
24.91
33.52
41.85
49.51
56.08
61.21
64.64
66.25
66.05
64.11
60.57
55.65
49.71
43.22
36.72
30.70
25.47
21.14
17.57
14.50
11.63
8.73
5.68
2.48
-0.77
-3.98
-7.12
-10.25
-13.56
-17.31
-21.62
-26.46
-31.45
-35.96
-39.29
-40.88
-40.44
-38.02
-33.92
-28.54
-22.28
-15.40
-8.20
-0.92
6.12
12.62
18.30
23.01
26.68
29.34
31.04
31.85
31.90
31.34
30.35
29.08
27.63
26.00
24.13
21.98
19.55
16.93
14.22
11.52
8.85
6.15
3.29
0.16
-3.28
-6.98
-10.79
-14.54
-18.08
-21.39
-24.52
-27.64
-30.92
-34.44
-38.23
-42.18
-46.16
-50.00
-53.46
-56.17
-57.65
-57.35
-54.75
-49.69
-42.44
-33.84
-25.03
-17.19
-11.14
-7.10
-4.65
-3.04
-1.51
0.27
2.10
3.28
3.00
0.76
-3.46
-9.09
-15.25
-21.16
-26.39
-30.95
-35.20
-39.64
-44.71
-50.80
-58.27
-67.37
-77.87
-88.52
-96.93
-100.08
-95.38
-81.80
-60.51
-34.56
-7.66
17.11
38.10
55.10
68.59
78.96
86.14
89.86
90.18
87.89
84.45
81.47
80.17
80.97
83.56
87.36
92.26
99.20
110.31
127.99
153.43
185.14
218.55
247.00
264.22
266.82
255.72
235.67
213.04
193.37
179.64
172.12
169.31
169.19
169.70
168.70
163.64
151.85
131.38
102.16
66.65
29.25
-4.90
-31.71
-49.21
-57.81
-59.49
-56.63
-50.83
-42.49
-31.13
-16.25
1.56
19.95
34.89
41.56
36.03
16.84
-13.92
-50.88
-86.82
-114.88
-130.66
-133.21
-124.85
-109.99
-93.54
-79.73
-71.33
-69.51
-73.80
-82.50
-93.13
-103.25
-111.09
-116.18
-119.19
-121.45
-124.12
-127.53
-131.10
-133.57
-133.51
-129.63
-120.96
-106.94
-87.43
-63.01
-34.92
-5.21
23.47
48.03
65.29
72.27
66.88
48.62
19.30
-16.85
-53.84
-85.22
-105.69
-112.27
-104.56
-84.23
-54.13
-17.62
21.61
59.28
90.42
109.82
113.44
100.08
72.64
37.81
4.00
-21.56
-35.48
-38.99
-36.54
-33.00
-30.88
-29.24
-24.62
-13.37
6.24
33.28
65.01
98.25
130.61
160.29
185.23
202.48
208.27
199.09
173.16
131.64
79.05
22.47
-30.20
-72.48
-101.16
-117.12
-124.52
-129.01
-135.22
-145.17
-157.86
-170.32
-179.30
-182.85
-180.85
-174.56
-165.64
-155.31
-144.11
-132.19
-119.71
-107.12
-95.01
-84.05
-74.54
-66.21
-58.33
-49.90
-40.05
-28.41
-15.32
-1.73
11.11
22.05
30.51
36.63
41.13
44.99
49.14
54.01
59.53
65.18
70.28
74.34
77.23
79.28
81.11
83.44
86.78
91.18
96.32
101.59
106.43
110.40
113.31
115.12
115.80
115.44
114.29
112.74
111.09
109.11
105.79
99.71
89.75
76.10
60.67
46.67
37.40
34.71
38.18
45.16
51.86
54.83
52.03
43.27
30.00
14.58
-0.48
-13.18
-22.42
-28.26
-31.63
-33.92
-36.41
-39.92
-44.75
-50.90
-58.39
-67.36
-77.89
-89.64
-101.68
-112.57
-120.91
-125.84
-127.41
-126.50
-124.33
-121.95
-119.84
-117.93
-115.92
-113.62
-111.23
-109.27
-108.34
-108.76
-110.39
-112.62
-114.64
-115.68
-115.25
-113.19
-109.60
-104.72
-98.77
-91.94
-84.37
-76.14
-67.30
-57.86
-47.91
-37.57
-27.18
-17.21
-8.20
-0.62
5.27
9.46
12.16
13.69
14.38
14.46
14.13
13.49
12.63
11.66
10.70
9.88
9.29
8.92
8.66
8.35
7.84
7.07
6.14
5.17
4.30
3.55
2.78
1.74
0.14
-2.21
-5.37
-9.27
-13.76
-18.59
-23.49
-28.12
-32.04
-34.73
-35.74
-34.73
-31.64
-26.68
-20.24
-12.82
-4.89
3.15
11.01
18.45
25.24
31.22
36.22
40.16
43.06
45.08
46.48
47.61
48.75
50.09
51.65
53.27
54.72
55.78
56.35
56.45
56.18
55.62
54.73
53.39
51.41
48.64
45.08
40.89
36.38
31.87
27.58
23.50
19.43
15.13
10.45
5.38
0.07
-5.30
-10.58
-15.64
-20.29
-24.20
-26.91
-27.98
-27.08
-24.16
-19.41
-13.18
-5.90
1.98
10.01
17.69
24.57
30.32
34.78
37.96
40.03
41.25
41.85
42.06
42.03
41.87
41.63
41.26
40.63
39.63
38.19
36.34
34.12
31.61
28.84
25.79
22.47
18.92
15.21
11.45
7.75
4.17
0.68
-2.76
-6.20
-9.70
-13.29
-17.00
-20.90
-25.06
-29.45
-33.92
-38.02
-41.17
-42.68
-42.05
-39.09
-34.05
-27.44
-19.90
-11.96
-3.96
3.91
11.53
18.71
25.24
30.82
35.25
38.40
40.28
41.03
40.91
40.16
39.05
37.71
36.24
34.60
32.79
30.83
28.77
26.70
24.66
22.58
20.32
17.73
14.64
11.01
6.93
2.61
-1.67
-5.66
-9.25
-12.50
-15.66
-19.02
-22.83
-27.21
-32.04
-37.04
-41.77
-45.70
-48.32
-49.18
-48.01
-44.73
-39.51
-32.72
-24.91
-16.65
-8.38
-0.42
7.11
14.20
20.82
26.86
32.04
36.08
38.69
39.83
39.68
38.64
37.17
35.62
34.19
32.87
31.55
30.10
28.45
26.64
24.74
22.79
20.79
18.66
16.29
13.59
10.56
7.25
3.80
0.26
-3.26
-6.70
-10.04
-13.31
-16.61
-20.11
-24.02
-28.38
-33.10
-37.83
-42.03
-45.05
-46.29
-45.30
-41.93
-36.34
-28.99
-20.55
-11.68
-2.93
5.48
13.50
21.23
28.66
35.55
41.58
46.32
49.58
51.39
52.02
51.86
51.20
50.20
48.90
47.26
45.33
43.26
41.18
39.19
37.25
35.18
32.75
29.85
26.50
22.84
19.07
15.32
11.65
8.05
4.46
0.85
-2.80
-6.46
-10.12
-13.79
-17.56
-21.50
-25.67
-29.99
-34.14
-37.64
-39.88
-40.35
-38.77
-35.15
-29.80
-23.19
-15.82
-8.12
-0.46
6.86
13.58
19.48
24.38
28.13
30.68
31.98
32.13
31.31
29.85
28.09
26.33
24.69
23.17
21.62
19.91
18.01
16.03
14.08
12.24
10.43
8.44
6.07
3.19
-0.16
-3.78
-7.46
-11.07
-14.59
-18.14
-21.87
-25.87
-30.23
-35.01
-40.30
-46.13
-52.45
-58.94
-65.04
-70.01
-73.09
-73.74
-71.80
-67.53
-61.54
-54.59
-47.41
-40.56
-34.33
-28.85
-24.12
-20.16
-17.02
-14.77
-13.41
-12.84
-12.90
-13.39
-14.19
-15.27
-16.57
-17.96
-19.07
-19.35
-18.29
-15.65
-11.72
-7.32
-3.55
-1.39
-1.34
-3.28
-6.62
-10.56
-14.47
-18.00
-21.10
-23.87
-26.39
-28.70
-30.79
-32.67
-34.44
-36.16
-37.79
-38.96
-38.87
-36.38
-30.40
-20.26
-6.24
10.39
27.65
43.48
56.39
65.84
72.16
76.15
78.58
79.95
80.64
81.11
82.04
84.04
87.10
90.17
91.34
88.53
80.65
68.25
53.57
39.53
28.55
21.59
18.00
16.24
14.79
12.91
10.63
8.38
6.31
4.17
1.37
-2.51
-7.37
-12.57
-17.21
-20.59
-22.63
-23.97
-25.75
-29.07
-34.49
-41.71
-49.72
-57.16
-62.97
-66.78
-68.97
-70.27
-71.33
-72.31
-72.82
-72.11
-69.40
-64.18
-56.41
-46.47
-35.12
-23.37
-12.29
-2.79
4.46
9.25
11.69
12.22
11.40
9.78
7.81
5.86
4.15
2.74
1.55
0.39
-0.91
-2.44
-4.08
-5.54
-6.40
-6.26
-4.86
-2.20
1.44
5.55
9.46
12.50
14.10
13.93
12.02
8.79
5.00
1.55
-0.70
-1.20
0.19
3.26
7.56
12.64
18.22
24.23
30.75
37.82
45.31
52.78
59.62
65.12
68.73
70.22
69.66
67.39
63.79
59.23
54.01
48.37
42.58
36.97
31.86
27.47
23.84
20.78
18.01
15.26
12.36
9.34
6.35
3.56
1.08
-1.14
-3.21
-5.26
-7.37
-9.50
-11.61
-13.67
-15.70
-17.72
-19.73
-21.62
-23.14
-23.99
-23.90
-22.69
-20.39
-17.11
-13.08
-8.56
-3.79
1.05
5.78
10.24
14.29
17.82
20.73
22.98
24.57
25.57
26.07
26.18
25.96
25.50
24.82
23.93
22.88
21.72
20.47
19.18
17.81
16.28
14.47
12.25
9.54
6.33
2.69
-1.23
-5.23
-9.18
-12.95
-16.54
-19.98
-23.31
-26.52
-29.59
-32.44
-34.97
-37.02
-38.35
-38.70
-37.79
-35.46
-31.73
-26.85
-21.19
-15.17
-9.13
-3.26
2.36
7.66
12.57
16.92
20.51
23.16
24.81
25.49
25.35
24.56
23.27
21.59
19.62
17.51
15.43
13.55
11.97
10.62
9.31
7.73
5.70
3.18
0.34
-2.55
-5.21
-7.48
-9.32
-10.84
-12.17
-13.51
-15.05
-16.96
-19.36
-22.20
-25.22
-27.98
-29.90
-30.54
-29.61
-27.10
-23.25
-18.37
-12.87
-7.07
-1.29
4.27
9.44
14.12
18.31
21.97
25.12
27.70
29.66
30.94
31.56
31.56
31.07
30.23
29.18
28.04
26.91
25.79
24.62
23.32
21.80
20.05
18.09
16.04
14.02
12.10
10.33
8.72
7.26
5.83
4.24
2.18
-0.66
-4.47
-9.14
-14.26
-19.18
-23.20
-25.74
-26.55
-25.67
-23.42
-20.20
-16.39
-12.25
-7.95
-3.55
0.87
5.21
9.31
12.94
15.90
18.03
19.31
19.79
19.64
19.01
18.01
16.76
15.31
13.76
12.14
10.52
8.94
7.41
