1532551055.00
64.000000
-0.00
-0.00
-0.00
-0.00
-0.00
-0.00
-0.00
-0.00
-0.00
-0.00
0.00
0.01
0.01
-0.00
-0.03
-0.05
-0.05
0.00
0.13
0.36
0.66
1.01
1.37
1.72
2.06
2.40
2.79
3.24
3.80
4.43
5.08
5.70
6.27
6.80
7.36
8.01
8.81
9.86
11.08
12.38
13.63
14.77
15.84
16.98
18.40
20.24
22.74
25.70
28.87
31.96
34.78
37.42
40.19
43.54
47.80
53.37
59.92
66.93
73.83
80.28
86.36
92.56
99.58
107.95
118.21
129.88
142.23
154.42
165.92
176.75
187.48
199.38
211.12
225.01
241.72
261.47
283.14
303.84
319.15
324.30
315.81
292.73
257.50
214.05
166.86
119.28
72.93
28.02
-15.80
-58.54
-99.73
-138.22
-173.35
-205.07
-233.45
-258.61
-280.45
-298.84
-313.80
-326.30
-337.59
-349.25
-361.89
-374.49
-384.82
-390.07
-388.85
-381.70
-370.57
-357.22
-342.06
-323.79
-300.44
-271.36
-238.06
-203.88
-172.41
-145.68
-123.31
-103.65
-85.67
-69.83
-57.75
-50.14
-45.28
-39.36
-28.54
-12.12
6.14
19.73
23.46
16.88
5.67
-1.77
1.06
14.94
34.31
50.91
58.61
56.61
48.79
40.88
36.95
37.74
41.61
46.06
49.29
50.33
48.75
44.43
38.24
32.07
28.30
28.62
32.46
37.37
40.41
39.91
36.65
33.25
31.79
32.01
31.27
26.52
17.34
6.79
-0.13
0.19
7.11
15.91
20.89
19.49
14.00
10.13
12.97
23.24
36.53
45.78
45.77
36.20
21.61
8.25
0.83
0.63
5.98
14.42
23.77
32.25
37.87
38.13
31.23
17.83
1.39
-12.76
-19.97
-18.71
-10.96
-0.97
7.17
11.32
11.75
9.64
6.10
1.77
-2.51
-5.02
-3.66
2.54
11.70
19.03
19.10
9.36
-7.47
-24.54
-34.22
-32.54
-21.58
-7.95
0.94
1.25
-5.32
-13.43
-17.81
-16.39
-11.00
-5.23
-1.47
0.57
3.09
7.49
12.50
14.57
10.57
0.15
-13.16
-23.62
-26.45
-20.61
-9.19
2.28
8.90
8.75
3.08
-4.85
-11.61
-15.03
-14.49
-10.52
-4.74
0.55
2.66
-0.38
-8.31
-18.39
-26.37
-28.71
-24.53
-16.25
-8.14
-3.70
-3.60
-5.30
-5.23
-1.27
5.78
12.61
16.00
15.09
11.87
9.56
10.26
13.63
17.67
20.73
22.73
25.20
29.75
36.48
43.36
47.34
46.11
39.80
30.78
22.56
18.03
18.38
22.93
29.97
37.71
44.25
47.79
46.79
40.86
31.95
23.92
21.10
25.83
36.48
47.96
54.41
52.53
43.75
33.46
27.30
27.77
32.74
36.95
35.83
28.60
18.36
9.33
3.90
1.11
-1.68
-6.17
-11.29
-14.14
-12.51
-7.32
-2.72
-3.47
-11.85
-25.37
-38.08
-43.69
-38.95
-25.43
-8.19
7.21
17.36
21.49
20.92
17.55
13.21
9.99
9.96
14.59
23.42
33.42
39.81
38.58
29.00
14.27
0.06
-8.74
-10.47
-7.18
-2.66
0.34
1.86
3.67
6.72
9.32
7.61
-1.24
-16.33
-32.18
-41.39
-39.34
-27.43
-12.65
-3.27
-4.02
-12.76
-22.41
-25.31
-18.05
-3.49
11.45
20.18
20.18
13.39
4.44
-2.33
-4.71
-2.63
2.58
9.10
14.79
17.45
15.45
8.86
-0.22
-8.33
-12.44
-11.77
-8.06
-4.24
-2.35
-2.00
-0.80
3.15
9.10
13.44
11.79
2.78
-10.36
-21.10
-23.45
-15.96
-2.73
9.33
15.08
14.22
11.24
11.81
18.61
29.36
37.97
38.64
29.62
13.99
-2.45
-14.59
-20.31
-20.47
-17.30
-12.74
-8.22
-5.19
-5.58
-10.97
-20.91
-32.34
-40.36
-40.74
-32.48
-18.48
-4.06
5.98
9.68
8.27
4.24
-0.32
-4.43
-7.39
-7.64
-3.21
6.56
19.19
28.94
29.54
18.30
-1.58
-22.04
-34.36
-34.02
-22.96
-8.27
2.16
4.04
-1.42
-9.25
-14.32
-14.13
-9.41
-2.58
4.48
11.42
18.73
25.99
31.03
31.01
24.66
13.49
1.70
-5.98
-6.83
-1.32
7.25
14.80
18.52
17.75
13.24
6.51
-0.78
-6.76
-9.28
-6.65
1.16
11.49
19.33
19.74
10.93
-4.26
-19.44
-28.05
-27.03
-18.40
-7.76
-0.86
-0.15
-3.54
-6.75
-6.34
-2.11
3.00
5.47
3.90
-0.29
-4.09
-5.55
-5.12
-4.93
-6.71
-10.38
-13.92
-14.89
-12.23
-7.11
-2.16
0.13
-1.06
-4.74
-8.90
-11.59
-11.62
-8.50
-2.15
6.96
17.17
25.52
28.51
24.13
13.70
1.76
-5.87
-5.20
3.39
15.34
24.48
26.58
21.79
14.19
8.62
7.64
9.97
11.74
9.50
2.90
-5.48
-12.16
-15.38
-16.18
-16.84
-18.84
-21.48
-22.58
-20.33
-15.12
-9.58
-7.03
-9.17
-14.73
-20.45
-22.78
-19.84
-12.28
-2.40
7.36
15.33
20.47
22.19
20.21
15.35
10.15
8.21
12.31
22.37
34.45
42.36
41.14
29.87
12.83
-2.84
-11.28
-10.85
-4.70
1.85
4.97
4.66
3.58
4.04
5.36
3.95
-3.57
-17.12
-31.85
-40.51
-38.06
-25.34
-8.89
2.86
4.54
-2.70
-12.45
-17.08
-12.44
-0.16
13.78
23.11
24.67
19.17
10.10
1.16
-5.05
-7.38
-5.71
-0.71
6.05
11.95
14.07
10.92
3.31
-5.44
-11.35
-12.05
-7.97
-1.90
3.07
5.75
7.44
9.98
13.70
16.37
14.48
6.47
-5.59
-16.56
-21.36
-18.39
-10.78
-4.26
-3.24
-8.11
-14.79
-18.05
-14.80
-6.29
2.67
6.87
4.06
-4.16
-13.74
-20.58
-22.60
-19.82
-13.45
-5.05
3.71
10.79
13.82
11.20
3.71
-5.42
-11.46
-10.71
-2.79
9.12
19.91
25.48
24.76
19.70
13.04
6.77
1.41
-2.93
-5.14
-3.40
3.22
12.80
20.33
19.98
9.04
-9.84
-29.46
-41.69
-42.05
-31.93
-17.61
-6.45
-2.84
-6.19
-12.49
-17.07
-17.20
-12.97
-5.92
2.28
10.68
18.56
24.67
27.34
25.65
20.73
15.42
13.05
15.33
21.13
27.34
30.60
29.38
24.57
18.27
12.02
6.05
-0.06
-5.85
-9.17
-7.33
0.64
11.89
20.11
18.68
4.99
-17.47
-40.13
-53.60
-52.86
-39.71
-21.55
-6.96
-0.94
-2.58
-6.92
-8.61
-5.42
0.70
5.79
6.92
3.85
-1.14
-5.45
-7.85
-8.61
-8.77
-9.03
-9.29
-9.05
-8.09
-6.83
-5.92
-5.79
-6.22
-6.82
-7.34
-7.74
-7.93
-7.18
-4.20
1.93
10.31
18.15
21.79
19.20
11.91
4.41
1.88
7.01
18.06
29.67
35.87
33.49
24.02
12.35
3.80
1.04
2.90
5.73
6.13
3.19
-1.44
-5.12
-6.17
-5.07
-3.63
-3.78
-6.03
-9.14
-10.95
-9.82
-5.70
-0.27
3.96
5.25
3.22
-0.79
-4.52
-5.98
-4.36
-0.17
4.90
8.44
8.26
3.48
-4.63
-12.89
-17.26
-15.07
-6.89
3.29
9.85
8.80
0.23
-11.41
-19.86
-20.70
-13.92
-3.70
4.57
7.66
6.28
3.92
4.01
7.34
11.60
13.50
11.04
5.20
-0.70
-3.21
-1.01
4.29
9.31
10.86
8.04
2.41
-2.81
-4.71
-2.34
2.98
8.69
12.12
11.65
7.16
-0.01
-7.32
-11.77
-10.94
-4.43
5.13
12.73
13.27
4.63
-10.58
-25.64
-33.45
-30.39
-18.33
-3.60
7.07
10.52
8.46
5.10
3.83
4.91
5.94
4.82
1.79
-0.62
0.17
4.13
8.11
8.05
1.91
-8.48
-18.14
-22.27
-18.96
-10.37
-1.38
3.50
2.57
-2.79
-9.58
-15.04
-17.87
-17.75
-14.80
-9.15
-1.43
6.47
11.60
11.54
6.38
-0.90
-5.55
-3.79
4.68
16.43
26.17
29.96
27.24
20.64
13.47
7.74
3.48
-0.02
-2.41
-2.17
1.99
9.09
15.19
15.34
6.97
-8.03
-23.68
-33.13
-32.60
-23.33
-10.79
-1.43
0.85
-3.51
-11.01
-17.34
-19.52
-16.87
-10.21
-1.02
9.03
17.94
23.20
22.69
16.11
5.90
-3.68
-8.53
-6.96
-0.68
6.55
11.05
11.45
9.06
6.22
4.26
2.73
0.30
-3.29
-5.97
-4.47
3.31
15.63
26.66
29.42
20.18
1.11
-20.14
-34.30
-35.61
-24.93
-8.86
4.10
8.49
4.64
-2.71
-7.76
-7.35
-2.52
3.07
5.96
4.77
0.65
-4.23
-8.19
-10.42
-10.90
-9.93
-7.93
-5.56
-3.69
-3.11
-3.92
-5.42
-6.35
-6.05
-4.96
-4.22
-4.75
-6.06
-6.18
-3.06
3.45
10.96
15.51
14.42
8.56
2.14
0.41
6.23
17.86
29.73
35.61
32.29
21.52
8.87
0.15
-1.77
1.63
5.87
6.70
2.81
-3.96
-10.29
-13.88
-14.69
-14.00
-13.09
-11.93
-9.44
-4.85
1.18
6.63
9.29
8.38
5.28
2.37
1.79
4.06
8.09
12.22
15.39
17.32
17.54
14.99
8.29
-2.64
-15.21
-24.88
-27.34
-21.35
-10.29
-0.61
1.79
-5.11
-17.72
-29.13
-33.16
-27.81
-16.12
-3.98
3.88
6.56
6.48
6.86
8.57
9.57
7.13
0.40
-7.94
-12.94
-10.60
-0.74
12.66
23.79
28.15
25.31
18.34
11.79
9.02
10.50
14.33
17.89
19.27
17.45
12.38
4.61
-4.29
-11.74
-14.94
-12.30
-4.88
3.43
7.67
4.78
-4.64
-15.95
-23.30
-23.05
-15.75
-5.61
2.22
5.22
4.85
4.68
7.29
11.87
14.50
11.52
2.40
-9.31
-18.12
-20.28
-16.10
-9.51
-5.09
-5.20
-8.45
-11.35
-10.83
-6.27
0.11
5.09
6.71
5.01
1.56
-1.82
-3.84
-3.59
-0.19
6.80
16.48
25.78
30.11
25.70
12.32
-5.90
-21.85
-29.15
-25.67
-14.45
-1.83
6.55
9.04
8.09
7.41
8.83
10.90
10.39
5.71
-1.40
-6.73
-6.81
-1.97
3.45
4.22
-2.19
-13.39
-23.34
-26.29
-20.34
-8.58
2.69
7.93
5.45
-2.42
-11.27
-17.48
-19.65
-18.27
-14.41
-8.81
-1.94
4.95
9.67
10.16
6.29
0.43
-3.30
-1.52
6.18
16.81
25.67
29.19
26.90
21.08
14.59
9.04
4.44
0.35
-2.39
-1.92
3.09
11.39
18.56
19.15
10.38
-5.68
-22.65
-33.18
-33.21
-23.98
-11.22
-1.57
1.11
-2.49
-8.62
-13.06
-13.38
-9.79
-3.86
2.72
8.78
13.41
15.34
13.26
6.93
-1.78
-9.57
-13.21
-11.44
-5.91
0.10
3.53
3.40
1.07
-1.26
-2.53
-3.20
-4.41
-6.18
-6.38
-2.20
7.74
21.01
31.57
32.91
22.27
2.76
-17.56
-29.84
-29.33
-17.83
-2.34
9.03
11.77
7.04
-0.12
-4.35
-3.32
1.23
5.52
6.62
4.01
-0.46
-4.54
-7.08
-8.14
-8.41
-8.42
-8.17
-7.50
-6.54
-5.67
-5.33
-5.46
-5.53
-5.25
-4.78
-4.68
-5.26
-5.75
-4.39
0.32
7.98
15.80
19.78
17.41
9.93
1.97
-0.91
4.37
16.05
28.38
34.84
31.88
21.16
8.27
-0.77
-2.91
0.49
5.06
6.68
4.24
-0.52
-4.80
-7.46
-9.80
-13.90
-20.65
-28.19
-32.71
-30.90
-22.26
-9.66
2.29
9.81
12.13
11.05
9.60
9.93
12.29
15.48
18.14
19.35
18.40
14.60
7.36
-2.67
-12.90
-19.44
-19.13
-11.79
-1.16
6.71
6.94
-1.35
-13.98
-24.21
-26.74
-20.57
-9.41
1.00
6.71
7.79
7.17
7.89
10.20
11.42
8.71
1.62
-6.64
-11.01
-8.07
1.36
12.63
20.01
20.15
14.20
6.51
1.94
3.01
8.63
15.39
20.03
20.80
17.75
11.97
4.66
-2.67
-8.08
-9.60
-6.29
0.47
6.90
8.47
2.82
-8.57
-20.30
-26.37
-23.58
-13.43
-1.40
6.64
8.04
4.55
0.07
-2.30
-2.51
-3.01
-5.96
-11.25
-16.33
-18.25
-16.16
-12.11
-9.36
-10.06
-13.70
-17.24
-17.67
-13.72
-6.75
0.16
4.25
4.60
1.96
-2.15
-6.56
-10.67
-13.64
-14.24
-11.32
-4.89
2.96
8.76
9.85
6.56
2.34
2.06
8.79
21.49
35.18
43.67
43.17
34.46
21.96
10.67
3.51
0.34
-0.47
0.29
3.25
9.27
17.25
22.99
20.93
7.90
-14.29
-38.50
-55.51
-58.92
-48.21
-29.08
-10.11
1.73
4.24
-0.24
-6.88
-11.18
-10.86
-5.84
2.50
12.02
20.05
23.67
20.64
10.99
-2.25
-14.21
-20.29
-18.87
-12.10
-4.37
0.30
0.74
-0.98
-1.71
0.17
3.54
5.67
4.69
1.70
0.15
3.46
11.78
20.97
24.88
19.48
5.76
-10.22
-20.59
-20.29
-10.01
4.40
15.36
17.91
12.31
2.96
-4.51
-6.47
-3.09
2.84
7.94
10.09
9.05
5.72
1.28
-2.98
-5.98
-6.98
-5.86
-3.35
-0.82
0.42
-0.04
-1.37
-1.99
-0.98
1.15
2.68
1.93
-1.24
-4.89
-6.35
-4.51
-1.04
0.25
-3.88
-13.37
-24.45
-31.59
-30.78
-22.28
-10.56
-1.79
-0.17
-5.47
-13.46
-18.61
-17.32
-9.69
0.84
10.06
15.45
16.74
15.37
12.79
9.77
6.94
5.24
6.12
10.70
18.47
26.95
32.78
33.63
29.79
24.09
19.83
18.83
20.37
21.91
21.18
17.93
13.57
9.54
5.83
0.88
-6.52
-15.44
-22.49
-23.97
-18.77
-10.15
-4.42
-7.03
-19.16
-35.96
-49.33
-52.39
-43.28
-26.25
-8.76
2.94
7.00
5.67
3.16
2.60
4.82
9.25
14.99
21.68
28.99
35.64
39.25
37.63
30.15
18.57
6.40
-2.92
-7.49
-7.57
-4.62
-0.12
5.36
11.26
16.08
17.09
11.63
-0.38
-15.43
-27.21
-29.89
-21.93
-7.64
5.03
9.22
3.23
-7.96
-16.28
-15.43
-4.90
9.69
20.37
21.84
14.34
2.43
-8.18
-14.12
-15.45
-14.33
-12.97
-12.36
-12.43
-12.97
-14.12
-15.83
-17.42
-17.50
-14.86
-9.52
-2.89
2.75
5.74
5.76
3.76
0.58
-3.37
-7.83
-11.65
-12.28
-7.14
4.24
18.51
29.19
29.74
17.76
-2.81
-23.39
-35.06
-33.55
-21.35
-6.07
4.08
4.86
-2.18
-11.54
-17.60
-17.56
-12.17
-4.05
4.57
13.03
21.60
29.67
35.00
34.69
27.46
15.04
2.00
-6.47
-7.31
-1.05
8.62
17.14
21.29
20.37
15.37
8.14
0.57
-5.52
-8.12
-5.71
1.75
11.72
19.27
19.35
9.91
-6.34
-22.96
-32.95
-32.61
-23.58
-11.54
-2.82
-0.59
-3.32
-6.69
-6.79
-2.75
2.92
6.57
6.23
2.65
-1.49
-3.99
-4.57
-4.56
-5.36
-7.23
-8.99
-9.08
-6.88
-3.24
0.08
1.51
0.68
-1.73
-4.63
-7.08
-8.34
-7.75
-4.37
2.42
11.72
20.79
25.67
23.37
14.16
1.91
-7.63
-9.72
-3.56
7.30
17.09
21.20
18.83
12.97
8.14
7.16
9.43
11.63
10.28
4.36
-3.89
-10.44
-12.02
-8.20
-1.50
4.10
5.37
1.64
-4.87
-10.49
-12.14
-9.04
-3.06
2.43
4.44
2.10
-2.98
-7.68
-9.21
-6.69
-1.59
3.13
4.73
2.29
-2.78
-7.52
-9.15
-6.66
-1.41
3.66
5.75
3.87
-0.64
-4.87
-6.16
-3.63
1.26
5.65
7.04
4.74
0.31
-3.41
-4.06
-1.18
3.60
7.44
8.01
4.83
-0.39
-4.75
-5.77
-2.84
2.38
6.95
8.23
5.52
0.40
-4.13
-5.40
-2.63
2.56
7.13
8.39
5.61
0.46
-3.96
-4.96
-1.87
3.58
8.25
9.43
6.36
0.77
-4.25
-5.90
-3.42
1.59
6.06
7.16
4.02
-1.81
-7.30
-9.58
-7.64
-2.88
1.74
3.45
1.27
-3.46
-7.83
-9.17
-6.57
-1.43
3.34
5.09
2.94
-1.75
-6.16
-7.66
-5.33
-0.38
4.55
6.92
5.71
1.91
-2.09
-3.87
-2.42
1.40
5.32
6.94
5.23
1.09
-3.11
-4.92
-3.22
0.99
5.19
6.76
4.53
-0.47
-5.63
-8.26
-7.22
-3.64
-0.19
0.45
-2.71
-8.39
-13.65
-15.67
-13.33
-7.90
-2.36
0.33
-1.06
-5.37
-9.67
-11.01
-8.22
-2.56
2.95
5.32
3.36
-1.58
-6.37
-7.99
-5.21
0.52
6.03
8.19
5.78
0.17
-5.41
-7.84
-5.84
-0.69
4.44
6.42
3.93
-1.76
-7.51
-10.08
-8.09
-2.71
2.87
5.37
3.35
-1.96
-7.35
-9.46
-6.79
-0.67
5.57
8.49
6.55
1.08
-4.51
-6.77
-4.16
1.95
8.17
10.98
8.84
3.02
-3.08
-5.92
-3.86
1.96
8.18
11.19
9.19
3.27
-3.28
-6.74
-5.23
0.29
6.47
9.56
7.62
1.69
-4.84
-8.13
-6.25
-0.29
6.24
9.51
7.63
1.80
-4.44
-7.31
-5.02
1.07
7.34
10.01
7.40
0.93
-5.63
-8.45
-5.87
0.67
7.41
10.49
8.15
1.74
-5.14
-8.70
-7.15
-1.64
4.48
7.66
6.18
1.09
-4.47
-7.13
-5.26
0.09
5.83
8.64
6.85
1.45
-4.55
-7.76
-6.42
-1.38
4.42
7.62
6.42
1.57
-4.03
-7.02
-5.55
-0.37
5.61
9.00
7.95
3.22
-2.24
-5.02
-3.23
2.26
8.39
11.62
10.04
4.43
-2.12
-6.03
-5.28
-0.60
5.04
8.17
6.87
1.87
-3.86
-6.91
-5.43
-0.26
5.57
8.62
7.10
1.89
-3.97
-7.08
-5.68
-0.72
4.71
7.20
5.03
-0.83
-7.33
-11.07
-10.27
-5.78
-0.53
2.19
0.63
-4.49
-10.37
-13.80
-12.94
-8.38
-2.73
0.87
0.64
-2.92
-7.29
-9.43
-7.62
-2.45
3.46
7.00
6.39
2.29
-2.65
-5.28
-3.84
1.05
6.65
9.76
8.59
3.79
-1.90
-5.27
-4.50
-0.19
4.95
7.83
6.71
2.29
-2.78
-5.46
-4.18
0.30
5.27
7.72
6.11
1.27
-4.12
-7.02
-5.89
-1.50
3.51
6.12
4.72
0.04
-5.31
-8.24
-7.01
-2.18
3.69
7.52
7.38
3.64
-1.33
-4.49
-3.87
0.26
5.61
9.10
8.69
4.54
-1.05
-4.95
-5.00
-1.29
3.84
7.11
6.28
1.48
-4.79
-9.00
-8.74
-4.07
2.40
7.01
7.27
3.26
-2.37
-6.02
-5.31
-0.53
5.54
9.31
8.51
3.60
-2.52
-6.22
-5.25
-0.05
6.43
10.49
9.74
4.49
-2.43
-7.30
-7.57
-3.33
2.84
7.36
7.72
3.97
-1.43
-5.09
-4.74
-0.55
4.92
8.31
7.45
2.68
-3.32
-7.10
-6.36
-1.36
5.29
10.07
10.53
6.64
0.73
-3.89
-4.83
-1.91
2.69
5.89
5.41
1.22
-4.51
-8.70
-9.18
-5.99
-1.33
1.69
0.97
-3.42
-9.25
-13.35
-13.55
-9.82
-4.30
-0.02
0.89
-1.59
-5.41
-7.71
-6.57
-2.17
3.30
6.93
6.83
3.19
-1.81
-5.32
-5.45
-2.32
2.03
4.96
4.74
1.50
-2.84
-5.72
-5.41
-1.95
2.86
6.46
7.00
4.34
0.10
-3.25
-3.82
-1.34
2.61
5.54
5.53
2.34
-2.37
-6.00
-6.50
-3.59
1.04
4.68
5.21
2.28
-2.42
-6.15
-6.72
-3.78
0.96
4.74
5.38
2.63
-1.73
-4.90
-4.78
-1.23
3.77
7.29
7.19
3.43
-1.85
-5.53
-5.39
-1.40
4.20
8.21
8.33
4.48
-1.12
-5.25
-5.56
-1.90
3.52
7.46
7.52
3.56
-2.20
-6.48
-6.86
-3.17
2.39
6.48
6.63
2.62
-3.35
-7.91
-8.47
-4.69
1.25
6.01
6.95
3.67
-1.72
-5.97
-6.50
-2.93
2.65
6.94
7.35
3.56
-2.34
-6.95
-7.64
-4.03
1.82
6.58
7.61
4.46
-0.89
-5.19
-5.89
-2.61
2.61
6.52
6.63
2.67
-3.18
-7.59
-8.00
-4.14
1.83
6.53
7.32
3.81
-1.92
-6.55
-7.43
-4.06
1.55
6.15
7.11
3.99
-1.29
-5.56
-6.25
-3.00
2.28
6.42
6.94
3.49
-1.94
-6.18
-6.75
-3.24
2.30
6.67
7.27
3.65
-2.14
-6.78
-7.50
-3.74
2.45
7.57
8.76
5.39
-0.51
-5.47
-6.65
-3.48
2.03
6.52
7.31
3.92
-1.61
-6.02
-6.68
-3.19
2.43
6.91
7.59
3.97
-1.95
-6.83
-7.91
-4.57
1.20
6.00
6.94
3.40
-2.62
-7.60
-8.58
-4.89
1.40
6.69
7.96
4.54
-1.57
-6.78
-8.09
-4.78
1.18
6.33
7.76
4.78
-0.72
-5.44
-6.60
-3.60
1.70
6.07
6.82
3.40
-2.30
-7.04
-8.11
-4.88
0.84
5.82
7.25
4.35
-1.19
-6.17
-7.70
-4.89
0.66
5.77
7.51
4.90
-0.50
-5.48
-7.12
-4.40
1.12
6.26
8.04
5.45
0.02
-5.05
-6.83
-4.33
0.89
5.66
7.08
4.19
-1.40
-6.46
-8.01
-5.06
0.80
6.33
8.45
6.05
0.56
-4.83
-7.12
-5.12
-0.21
4.57
6.26
3.75
-1.56
-6.59
-8.34
-5.66
0.05
5.66
8.07
6.00
0.71
-4.70
-7.15
-5.31
-0.34
4.77
7.00
5.04
0.08
-4.93
-6.96
-4.76
0.41
5.47
7.38
4.88
-0.67
-6.12
-8.38
-6.19
-0.96
4.17
6.13
3.82
-1.32
-6.11
-7.60
-4.82
0.63
5.55
7.06
4.32
-0.99
-5.66
-6.83
-3.74
1.86
6.74
8.08
5.12
-0.39
-5.25
-6.66
-3.82
1.59
6.43
7.97
5.38
0.22
-4.49
-6.09
-3.71
1.16
5.64
7.09
4.65
-0.28
-4.90
-6.57
-4.39
0.33
4.82
6.43
4.18
-0.68
-5.34
-7.11
-4.93
-0.05
4.66
6.39
3.97
-1.32
-6.48
-8.48
-6.04
-0.45
5.14
7.53
5.34
-0.13
-5.63
-7.89
-5.53
0.05
5.52
7.58
4.94
-0.93
-6.62
-8.83
-6.29
-0.51
5.15
7.48
5.27
-0.00
-5.08
-6.89
-4.31
1.17
6.41
8.39
6.01
0.71
-4.42
-6.39
-4.08
1.20
6.37
8.43
6.11
0.65
-4.94
-7.54
-5.78
-0.77
4.43
6.65
4.46
-0.96
-6.45
-8.73
-6.34
-0.59
5.20
7.61
5.21
-0.59
-6.35
-8.64
-6.01
0.04
6.07
8.70
6.59
1.15
-4.32
-6.63
-4.51
0.68
5.79
7.74
5.31
-0.17
-5.60
-7.85
-5.57
0.06
5.94
8.78
6.99
1.59
-4.39
-7.58
-6.25
-1.32
4.14
6.80
4.99
-0.21
-5.62
-7.85
-5.33
0.64
6.64
9.17
6.68
0.54
-5.73
-8.57
-6.42
-0.66
5.31
8.02
6.00
0.52
-5.13
-7.69
-5.77
-0.61
4.67
6.91
4.77
-0.50
-5.83
-8.06
-5.76
-0.17
5.61
8.29
6.37
0.97
-4.72
-7.35
-5.32
0.27
6.18
8.94
6.85
0.96
-5.52
-9.10
-7.97
-3.10
2.49
5.47
4.18
-0.42
-5.39
-7.54
-5.38
0.02
5.61
8.16
6.15
0.73
-4.93
-7.50
-5.40
0.18
6.02
8.67
6.51
0.69
-5.55
-8.68
-7.03
-1.66
4.22
7.16
5.53
0.41
-5.03
-7.43
-5.25
0.35
6.20
8.91
6.89
1.27
-4.79
-7.89
-6.37
-1.29
4.25
6.93
5.17
0.05
-5.32
-7.67
-5.50
0.09
5.92
8.64
6.63
0.96
-5.27
-8.63
-7.41
-2.55
2.96
5.81
4.37
-0.40
-5.48
-7.62
-5.29
0.40
6.32
9.12
7.21
1.65
-4.43
-7.67
-6.38
-1.52
3.96
6.81
5.42
0.73
-4.34
-6.63
-4.65
0.51
5.84
8.17
6.05
0.66
-4.90
-7.39
-5.35
0.10
5.86
8.69
6.99
1.77
-4.02
-7.15
-5.98
-1.35
3.87
6.52
4.95
0.03
-5.33
-7.91
-6.10
-0.87
4.74
7.44
5.64
0.44
-5.07
-7.56
-5.50
-0.06
5.64
8.35
6.52
1.23
-4.51
-7.51
-6.18
-1.39
4.04
6.99
5.80
1.19
-4.19
-7.25
-6.26
-1.79
3.55
6.69
5.82
1.47
-3.76
-6.76
-5.70
-1.20
4.07
6.87
5.44
0.47
-5.20
-8.24
-6.86
-1.83
3.89
6.93
5.47
0.36
-5.40
-8.40
-6.87
-1.68
4.17
7.34
6.10
1.31
-4.08
-6.83
-5.29
-0.37
5.04
7.75
6.19
1.29
-4.07
-6.73
-5.12
-0.19
5.17
7.82
6.20
1.26
-4.11
-6.72
-5.00
0.10
5.66
8.44
6.79
1.57
-4.31
-7.61
-6.53
-1.72
4.05
7.54
6.86
2.50
-2.92
-6.22
-5.44
-1.07
4.29
7.35
6.16
1.24
-4.67
-8.17
-7.23
-2.40
3.47
6.91
5.89
1.02
-4.80
-8.08
-6.87
-1.85
4.03
7.34
6.19
1.29
-4.48
-7.77
-6.76
-2.18
3.17
6.12
4.97
0.51
-4.51
-7.01
-5.38
-0.42
5.15
8.27
7.30
2.93
-2.26
-5.27
-4.43
-0.33
4.55
7.24
6.03
1.42
-4.14
-7.64
-7.22
-3.25
1.92
5.25
4.83
0.96
-4.00
-7.02
-6.16
-1.74
3.76
7.13
6.34
1.71
-4.18
-7.99
-7.57
-3.20
2.56
6.31
5.90
1.61
-3.93
-7.37
-6.58
-1.97
3.78
7.31
6.61
2.14
-3.35
-6.59
-5.62
-1.04
4.46
7.63
6.62
2.04
-3.39
-6.55
-5.63
-1.23
4.05
7.16
6.31
2.02
-3.23
-6.45
-5.84
-1.82
3.21
6.25
5.42
1.07
-4.40
-7.84
-7.21
-2.72
3.15
7.12
6.94
2.74
-3.05
-7.07
-7.00
-2.94
2.67
6.49
6.27
2.18
-3.28
-6.80
-6.24
-1.88
3.69
7.17
6.48
2.00
-3.62
-7.09
-6.29
-1.63
4.26
8.05
7.58
3.16
-2.68
-6.64
-6.57
-2.63
2.72
6.27
5.89
1.81
-3.52
-6.88
-6.19
-1.81
3.73
7.13
6.37
1.84
-3.77
-7.11
-6.12
-1.28
4.70
8.38
7.65
2.89
-3.22
-7.29
-7.12
-3.00
2.51
6.06
5.52
1.20
-4.31
-7.70
-6.87
-2.21
3.65
7.35
6.79
2.36
-3.36
-7.06
-6.66
-2.49
2.94
6.39
5.84
1.62
-3.78
-7.12
-6.35
-1.79
4.01
7.80
7.47
3.31
-2.15
-5.69
-5.22
-1.05
4.29
7.56
6.71
2.08
-3.78
-7.59
-7.21
-2.91
2.79
6.54
6.16
1.86
-3.83
-7.52
-6.94
-2.32
3.77
7.88
7.72
3.52
-2.20
-6.01
-5.66
-1.39
4.23
7.78
6.99
2.08
-4.31
-8.66
-8.55
-4.06
2.23
6.73
6.95
2.91
-2.84
-6.76
-6.45
-2.06
3.82
7.68
7.18
2.53
-3.66
-7.91
-7.87
-3.69
2.16
6.26
6.27
2.25
-3.43
-7.44
-7.45
-3.49
2.09
5.97
5.84
1.79
-3.76
-7.46
-7.04
-2.63
3.31
7.44
7.49
3.54
-2.01
-5.92
-5.93
-2.08
3.31
7.04
6.85
2.74
-2.97
-7.04
-7.13
-3.23
2.33
6.24
6.17
2.20
-3.26
-6.83
-6.28
-1.78
4.14
8.11
7.87
3.60
-2.17
-6.15
-6.04
-1.96
3.67
7.53
7.29
2.97
-3.05
-7.41
-7.68
-3.73
2.06
6.26
6.37
2.30
-3.57
-7.70
-7.61
-3.25
2.82
7.04
6.92
2.55
-3.48
-7.59
-7.34
-2.89
3.11
7.13
6.83
2.43
-3.42
-7.26
-6.83
-2.39
3.47
7.35
7.06
2.84
-2.77
-6.48
-6.14
-1.97
3.56
7.24
6.97
2.96
-2.40
-5.94
-5.62
-1.61
3.68
7.09
6.55
2.29
-3.27
-6.89
-6.43
-2.11
3.62
7.40
7.00
2.58
-3.38
-7.48
-7.37
-3.13
2.78
6.95
7.03
3.07
-2.47
-6.25
-5.92
-1.58
4.29
8.22
7.80
3.07
-3.46
-8.25
-8.73
-4.78
1.20
5.68
6.07
2.20
-3.59
-7.87
-8.07
-4.09
1.77
6.08
6.34
2.45
-3.27
-7.43
-7.53
-3.44
2.57
7.12
7.67
4.00
-1.67
-6.02
-6.46
-2.74
2.96
7.27
7.60
3.65
-2.38
-7.07
-7.75
-4.09
1.77
6.42
7.15
3.52
-2.41
-7.27
-8.35
-5.13
0.46
5.17
6.33
3.38
-1.77
-5.98
-6.65
-3.31
2.10
6.45
7.19
3.95
-1.31
-5.38
-5.79
-2.24
3.23
7.44
7.95
4.52
-0.81
-4.92
-5.46
-2.24
2.69
6.27
6.27
2.65
-2.45
-5.95
-5.67
-1.66
3.77
7.40
6.96
2.50
-3.59
-7.94
-8.13
-4.08
1.89
6.38
6.87
3.14
-2.65
-7.17
-7.92
-4.56
0.82
5.06
5.70
2.45
-2.67
-6.54
-6.80
-3.22
2.15
6.17
6.51
2.99
-2.28
-6.16
-6.30
-2.56
2.92
6.97
7.23
3.59
-1.76
-5.63
-5.67
-1.83
3.67
7.56
7.50
3.43
-2.40
-6.68
-7.00
-3.22
2.40
6.54
6.75
2.81
-3.02
-7.40
-7.75
-3.82
2.19
6.84
7.45
3.68
-2.29
-7.03
-7.81
-4.26
1.48
6.01
6.65
3.07
-2.52
-6.75
-7.00
-3.03
2.93
7.43
7.84
3.86
-2.24
-6.98
-7.66
-3.93
2.01
6.66
7.24
3.31
-2.96
-8.05
-9.08
-5.51
0.55
5.54
6.57
3.11
-2.69
-7.27
-7.71
-3.56
2.90
8.02
8.85
4.99
-1.22
-6.05
-6.64
-2.67
3.44
8.01
8.28
4.08
-2.11
-6.62
-6.78
-2.51
3.70
8.22
8.39
4.06
-2.36
-7.31
-8.14
-4.53
1.29
5.92
6.71
3.29
-2.28
-6.68
-7.30
-3.73
1.99
6.55
7.35
3.99
-1.45
-5.70
-6.20
-2.61
2.92
7.08
7.31
3.37
-2.57
-7.08
-7.58
-3.82
2.01
6.50
7.02
3.30
-2.42
-6.74
-7.05
-3.08
2.88
7.33
7.57
3.31
-3.16
-8.28
-9.23
-5.60
0.48
5.54
6.84
3.85
-1.41
-5.68
-6.34
-2.97
2.37
6.42
6.60
2.62
-3.34
-7.85
-8.23
-4.18
2.10
7.10
8.06
4.56
-1.32
-6.15
-7.22
-4.02
1.41
5.81
6.58
3.31
-1.97
-6.05
-6.38
-2.68
3.00
7.34
7.77
3.96
-1.96
-6.63
-7.40
-3.82
1.96
6.57
7.29
3.66
-2.26
-7.09
-8.06
-4.65
1.20
6.11
7.29
4.15
-1.41
-6.05
-7.05
-3.80
1.72
6.18
6.83
3.20
-2.62
-7.20
-7.74
-3.82
2.38
7.31
8.19
4.59
-1.30
-5.99
-6.77
-3.26
2.40
6.87
7.54
4.06
-1.50
-5.87
-6.53
-3.13
2.27
6.47
6.91
3.28
-2.40
-6.82
-7.43
-3.84
1.87
6.39
7.11
3.66
-1.89
-6.25
-6.84
-3.33
2.23
6.55
7.08
3.46
-2.26
-6.81
-7.58
-4.15
1.45
5.96
6.75
3.38
-2.12
-6.47
-7.05
-3.50
2.15
6.57
7.16
3.55
-2.22
-6.80
-7.57
-4.10
1.57
6.14
6.92
3.42
-2.36
-7.12
-8.12
-4.78
0.93
5.71
6.87
3.89
-1.27
-5.38
-5.89
-2.43
2.99
7.19
7.71
4.24
-1.22
-5.55
-6.30
-3.17
1.93
5.93
6.43
3.04
-2.28
-6.43
-6.90
-3.27
2.49
7.12
7.92
4.34
-1.65
-6.67
-7.89
-4.67
1.05
5.91
7.10
4.00
-1.43
-5.86
-6.56
-3.07
2.54
6.86
7.21
3.26
-2.78
-7.42
-7.94
-4.03
2.05
6.80
7.54
3.94
-1.78
-6.21
-6.69
-2.94
2.85
7.27
7.67
3.74
-2.35
-7.15
-7.92
-4.24
1.75
6.57
7.41
3.80
-2.11
-6.82
-7.52
-3.76
2.28
7.04
7.68
3.79
-2.41
-7.35
-8.16
-4.36
1.89
6.99
8.04
4.45
-1.66
-6.80
-8.01
-4.68
1.16
6.01
6.92
3.30
-2.76
-7.73
-8.65
-4.95
1.28
6.46
7.63
4.20
-1.73
-6.64
-7.62
-4.08
1.90
6.84
7.84
4.32
-1.66
-6.60
-7.60
-4.06
1.94
6.90
7.88
4.31
-1.68
-6.53
-7.31
-3.47
2.79
7.83
8.66
4.75
-1.68
-6.95
-8.05
-4.44
1.71
6.75
7.75
4.19
-1.77
-6.58
-7.39
-3.73
2.23
6.93
7.56
3.67
-2.51
-7.42
-8.21
-4.44
1.70
6.63
7.48
3.77
-2.29
-7.12
-7.86
-4.02
2.22
7.31
8.34
4.79
-1.21
-6.16
-7.16
-3.66
2.27
7.13
8.02
4.33
-1.83
-6.95
-8.04
-4.48
1.66
6.78
7.82
4.13
-2.19
-7.52
-8.74
-5.17
1.12
6.48
7.87
4.59
-1.27
-6.15
-7.09
-3.50
2.48
7.31
8.12
4.44
-1.53
-6.26
-6.99
-3.37
2.32
6.60
6.82
2.79
-3.11
-7.39
-7.47
-3.24
2.92
7.51
7.97
4.10
-1.84
-6.48
-7.28
-3.92
1.56
5.98
6.84
3.68
-1.65
-6.09
-7.10
-4.13
1.06
5.42
6.40
3.41
-1.75
-5.97
-6.63
-3.16
2.54
7.18
8.02
4.47
-1.51
-6.54
-7.81
-4.70
0.82
5.38
6.20
2.76
-2.92
-7.48
-8.19
-4.60
1.16
5.71
6.39
2.85
-2.80
-7.22
-7.82
-4.30
1.27
5.68
6.48
3.39
-1.62
-5.48
-5.88
-2.55
2.57
6.51
6.97
3.69
-1.44
-5.44
-5.97
-2.66
2.60
6.79
7.47
4.18
-1.27
-5.80
-6.86
-3.85
1.48
6.05
7.24
4.40
-0.81
-5.33
-6.56
-3.80
1.25
5.63
6.78
4.12
-0.70
-4.73
-5.52
-2.56
2.36
6.26
6.74
3.41
-1.79
-5.77
-6.06
-2.33
3.34
7.65
8.02
4.10
-2.02
-6.93
-7.94
-4.60
1.04
5.61
6.39
2.92
-2.79
-7.40
-8.22
-4.72
1.13
6.03
7.23
4.13
-1.39
-6.10
-7.26
-4.28
1.00
5.33
6.02
2.48
-3.34
-8.16
-9.16
-5.74
0.23
5.39
6.87
3.95
-1.50
-6.17
-7.15
-3.71
2.33
7.58
9.10
6.04
0.18
-5.13
-6.90
-4.24
1.15
5.99
7.35
4.35
-1.26
-6.22
-7.60
-4.60
1.02
5.93
7.26
4.21
-1.35
-6.09
-7.12
-3.76
2.05
6.93
8.03
4.77
-0.90
-5.58
-6.50
-3.13
2.52
7.13
7.96
4.51
-1.25
-6.04
-7.17
-4.11
1.27
5.79
6.78
3.61
-1.92
-6.68
-7.92
-4.93
0.60
5.47
6.79
3.72
-2.08
-7.31
-8.95
-6.02
-0.21
5.09
6.77
3.86
-1.91
-7.04
-8.43
-5.19
0.74
5.82
7.05
3.76
-1.96
-6.51
-7.01
-3.00
3.23
8.04
8.64
4.67
-1.52
-6.29
-6.89
-2.96
3.24
8.20
9.22
5.87
0.20
-4.48
-5.55
-2.56
2.58
6.72
7.29
3.79
-1.92
-6.65
-7.79
-4.68
0.85
5.62
6.85
3.77
-1.93
-7.02
-8.63
-5.83
-0.26
4.89
6.65
4.06
-1.31
-6.24
-7.80
-5.01
0.51
5.51
7.03
4.13
-1.52
-6.59
-8.07
-5.07
0.67
5.73
7.12
3.99
-1.77
-6.68
-7.70
-4.09
2.15
7.40
8.59
5.02
-1.22
-6.50
-7.74
-4.27
1.82
6.97
8.22
4.96
-0.76
-5.51
-6.51
-3.29
2.10
6.32
6.76
3.10
-2.49
-6.66
-6.78
-2.60
3.67
8.53
9.24
5.40
-0.87
-6.09
-7.44
-4.31
1.32
6.06
7.07
3.70
-2.09
-6.91
-7.91
-4.42
1.53
6.44
7.40
3.81
-2.26
-7.19
-8.05
-4.25
2.06
7.28
8.46
4.98
-1.09
-6.26
-7.62
-4.55
1.03
5.74
6.77
3.50
-2.16
-6.86
-7.78
-4.24
1.77
6.82
7.97
4.53
-1.54
-6.70
-7.98
-4.68
1.20
6.18
7.34
4.06
-1.66
-6.37
-7.31
-3.93
1.79
6.49
7.46
4.15
-1.53
-6.33
-7.53
-4.53
0.88
5.51
6.63
3.55
-1.95
-6.66
-7.78
-4.56
1.17
6.09
7.32
4.13
-1.61
-6.44
-7.47
-3.98
2.02
7.04
8.17
4.78
-1.11
-6.02
-7.08
-3.71
2.13
7.07
8.37
5.40
0.04
-4.56
-5.71
-2.85
2.26
6.48
7.15
3.67
-2.14
-7.04
-8.23
-5.01
0.80
5.81
7.06
3.73
-2.30
-7.50
-8.82
-5.40
0.73
5.96
7.13
3.50
-2.82
-8.07
-9.07
-5.15
1.45
6.88
7.97
4.13
-2.31
-7.46
-8.22
-4.05
2.67
8.15
9.35
5.77
-0.35
-5.38
-6.45
-3.11
2.52
7.02
7.73
4.25
-1.35
-5.77
-6.47
-3.05
2.46
6.83
7.46
3.93
-1.77
-6.33
-7.12
-3.63
2.14
6.78
7.51
3.76
-2.44
-7.59
-8.76
-5.24
0.99
6.42
7.99
4.90
-0.98
-6.18
-7.67
-4.64
1.06
6.05
7.35
4.19
-1.57
-6.48
-7.63
-4.28
1.64
6.67
7.85
4.47
-1.55
-6.68
-7.93
-4.57
1.48
6.73
8.17
5.03
-0.79
-5.82
-7.04
-3.70
2.31
7.52
8.89
5.63
-0.36
-5.58
-6.98
-3.79
2.05
7.03
8.11
4.56
-1.58
-6.70
-7.73
-4.01
2.26
7.28
7.86
3.35
-3.91
-9.90
-11.22
-7.14
-0.03
6.01
7.54
3.80
-2.85
-8.39
-9.52
-5.57
1.09
6.57
7.77
4.19
-1.83
-6.59
-7.22
-3.40
2.59
7.24
7.92
4.39
-1.09
-5.18
-5.33
-1.36
4.50
8.85
9.07
4.84
-1.62
-6.85
-8.04
-4.66
1.20
6.06
7.02
3.50
-2.43
-7.22
-7.99
-4.24
1.78
6.38
6.73
2.52
-3.76
-8.33
-8.38
-3.82
2.70
7.33
7.39
2.87
-3.51
-7.99
-7.95
-3.45
2.91
7.51
7.78
3.66
-2.41
-7.01
-7.57
-3.91
1.75
6.04
6.40
2.56
-3.27
-7.70
-8.09
-4.11
1.99
6.68
7.23
3.33
-2.68
-7.18
-7.47
-3.35
2.71
7.06
7.06
2.67
-3.55
-7.92
-7.87
-3.44
2.75
7.08
7.02
2.62
-3.48
-7.73
-7.58
-3.09
3.15
7.51
7.37
2.71
-3.90
-8.71
-8.99
-4.52
2.10
7.09
7.63
3.56
-2.61
-7.05
-7.05
-2.53
3.83
8.25
8.12
3.52
-2.75
-6.90
-6.34
-1.30
5.37
9.83
9.47
4.47
-2.35
-7.14
-7.23
-2.72
3.66
8.10
8.00
3.44
-2.81
-7.02
-6.68
-1.94
4.38
8.51
7.93
2.86
-3.89
-8.51
-8.42
-3.78
2.69
7.21
7.21
2.76
-3.37
-7.48
-7.01
-2.11
4.45
8.82
8.37
3.27
-3.69
-8.58
-8.68
-4.06
2.49
7.10
7.13
2.65
-3.49
-7.53
-6.90
-1.85
4.74
9.01
8.42
3.25
-3.63
-8.33
-8.27
-3.60
2.92
7.53
7.66
3.35
-2.77
-7.11
-7.20
-3.15
2.50
6.26
5.79
1.29
-4.64
-8.57
-8.27
-3.99
1.63
5.18
4.47
-0.17
-6.07
-9.79
-9.16
-4.57
1.25
4.83
4.03
-0.70
-6.52
-9.96
-8.99
-4.28
1.23
4.07
2.38
-3.00
-9.00
-12.18
-10.74
-5.69
-0.22
2.17
-0.31
-6.49
-12.93
-15.78
-12.99
-5.56
2.86
8.00
7.37
1.71
-5.37
-9.30
-7.03
1.76
14.93
29.60
43.91
57.81
72.36
88.35
105.20
120.86
133.16
141.15
145.90
150.07
156.72
167.86
183.77
202.85
222.38
239.54
252.07
258.67
259.18
254.44
245.83
234.71
221.83
206.48
186.90
161.08
127.82
87.48
42.11
-5.16
-51.19
-94.15
-133.95
-171.79
-209.35
-247.81
-287.27
-326.69
-364.28
-396.38
-419.53
-430.22
-425.23
-402.90
-364.66
-315.99
-265.52
-222.09
-190.87
-171.24
-157.13
-140.76
-117.44
-88.46
-60.11
-39.47
-29.63
-27.54
-26.01
-18.20
-2.15
17.91
34.02
39.32
31.90
15.72
-1.75
-13.62
-16.64
-11.92
-3.37
5.01
11.18
15.60
20.20
26.88
36.07
46.63
56.43
63.34
66.05
64.46
59.52
52.73
45.39
38.11
30.89
23.74
17.47
13.96
15.57
23.60
36.85
51.19
60.98
61.76
52.84
38.26
25.14
20.22
26.54
41.98
60.68
76.36
85.66
89.41
91.47
95.83
103.92
113.74
121.21
122.79
117.63
107.91
97.26
88.63
82.51
76.99
69.09
56.73
39.85
20.47
1.42
-15.31
-29.88
-44.96
-64.71
-92.61
-129.13
-170.74
-210.44
-240.26
-254.46
-251.62
-234.56
-208.71
-179.47
-150.55
-123.57
-99.08
-77.76
-60.87
-49.58
-43.80
-41.55
-39.62
-35.31
-28.11
-20.03
-14.72
-15.06
-21.04
-29.25
-34.13
-30.89
-18.39
-0.37
15.86
22.81
16.93
0.95
-17.22
-28.24
-26.08
-11.22
9.65
27.13
33.85
27.96
13.30
-3.60
-17.38
-26.53
-33.06
-40.21
-49.32
-58.94
-65.76
-66.98
-62.02
-52.21
-39.85
-26.89
-14.72
-4.99
0.03
-1.93
-11.50
-26.06
-39.68
-45.43
-38.28
-17.53
12.82
46.06
75.66
97.39
109.79
113.66
111.01
104.56
97.11
90.72
85.60
79.52
68.69
49.92
23.36
-6.50
-31.62
-44.12
-39.99
-20.99
5.90
31.77
49.65
56.75
53.95
44.30
30.94
16.51
3.36
-6.32
-10.96
-10.36
-6.37
-2.35
-1.50
-5.38
-13.63
-24.69
-36.79
-47.94
-54.87
-52.72
-36.16
-2.21
46.90
103.24
155.89
195.76
218.97
228.57
232.02
236.63
245.63
257.09
265.84
266.92
257.94
239.76
215.23
187.41
158.36
129.01
99.78
71.16
44.13
19.86
-0.73
-17.27
-29.96
-39.45
-46.40
-51.22
-54.05
-54.88
-53.94
-51.76
-49.17
-46.80
-44.88
-43.17
-41.19
-38.67
-35.78
-33.35
-32.75
-35.88
-44.57
-60.52
-84.01
-112.86
-141.97
-164.34
-173.39
-164.86
-140.63
-107.77
-75.63
-51.85
-39.52
-36.65
-38.27
-39.60
-38.41
-35.82
-34.55
-36.85
-42.81
-50.29
-55.90
-56.86
-52.38
-44.32
-36.59
-33.36
-37.29
-48.00
-62.09
-74.53
-80.64
-78.32
-68.86
-55.90
-43.28
-33.44
-27.29
-25.24
-27.63
-34.69
-45.36
-55.84
-59.71
-50.74
-26.94
6.41
37.83
55.17
52.84
35.97
18.54
15.75
35.13
71.88
111.23
136.71
138.58
118.90
89.20
63.30
49.54
47.30
49.72
49.39
43.35
34.14
27.15
26.49
31.98
39.44
42.93
38.22
24.74
5.67
-13.57
-27.99
-34.94
-35.09
-31.51
-27.91
-26.81
-28.53
-31.34
-32.57
-30.09
-23.31
-13.46
-2.96
5.72
11.05
12.87
12.26
10.83
9.98
10.32
11.64
13.24
14.34
14.49
13.77
12.59
11.40
10.47
9.79
9.07
7.89
5.91
2.98
-0.88
-5.49
-10.58
-15.83
-20.88
-25.35
-28.89
-31.19
-32.03
-31.33
-29.15
-25.71
-21.31
-16.36
-11.25
-6.37
-2.01
1.63
4.46
6.45
7.66
8.25
8.38
8.20
7.84
7.40
6.94
6.48
6.06
5.70
5.35
5.02
4.71
4.38
4.08
3.78
3.49
3.21
2.93
2.66
2.40
2.15
1.91
1.67
1.45
1.25
1.05
0.88
0.71
0.56
0.41
0.27
0.15
0.03
-0.08
-0.18
-0.27
-0.36
-0.44
-0.50
-0.57
-0.61
-0.65
-0.69
-0.70
-0.72
-0.72
-0.71
-0.70
-0.69
-0.67
-0.66
-0.64
-0.62
-0.61
-0.59
-0.58
-0.56
-0.55
-0.54
-0.52
-0.51
-0.50
-0.50
-0.49
-0.48
-0.46
-0.42
-0.38
-0.36
-0.38
-0.47
-0.63
-0.81
-0.96
-1.04
-1.02
-0.93
-0.83
-0.82
-0.91
-1.12
-1.36
-1.52
-1.55
-1.42
-1.21
-1.06
-1.12
-1.45
-2.01
-2.63
-3.07
-3.19
-2.93
-2.48
-2.16
-2.29
-3.07
-4.41
-5.92
-7.08
-7.47
-6.98
-5.98
-5.21
-5.42
-7.04
-9.85
-13.02
-15.45
-16.27
-15.32
-13.38
-11.83
-12.08
-14.85
-19.66
-25.02
-29.00
-30.37
-28.96
-26.03
-23.57
-23.33
-26.15
-31.76
-39.17
-46.98
-53.63
-57.01
-54.72
-44.85
-27.02
-3.50
21.07
41.13
52.48
54.03
48.53
41.11
36.46
36.29
38.32
38.07
31.89
19.80
5.99
-3.33
-3.47
5.99
20.93
34.84
42.66
43.21
39.22
35.20
34.39
36.96
40.48
41.99
39.95
35.16
30.02
26.98
27.36
30.79
35.44
39.21
40.67
39.60
37.00
34.52
33.58
34.77
37.54
40.50
42.12
41.45
38.07
32.55
26.06
19.76
14.36
9.96
6.06
2.01
-2.86
-8.31
-13.78
-18.35
-21.12
-21.56
-19.72
-16.26
-12.16
-8.32
-5.28
-3.19
-1.70
-0.29
1.58
4.44
8.89
15.33
23.32
31.11
35.61
33.52
22.94
4.67
-17.82
-39.57
-56.42
-66.55
-70.91
-72.05
-72.43
-73.20
-74.13
-74.57
-74.28
-73.78
-73.75
-74.31
-74.59
-73.16
-68.70
-60.92
-50.52
-39.09
-28.19
-18.57
-9.95
-1.10
8.79
19.44
28.89
34.68
35.27
31.42
25.90
21.97
21.39
23.31
25.09
24.10
19.61
13.20
7.48
4.35
3.68
3.75
2.68
-0.04
-3.40
-5.58
-5.48
-3.41
-0.72
1.02
1.15
0.07
-1.00
-1.09
0.10
2.07
3.73
3.96
2.11
-1.77
-6.99
-12.15
-15.65
-15.98
-12.22
-4.74
4.76
13.75
19.84
21.80
20.01
15.88
11.20
7.17
3.94
0.94
-2.60
-7.14
-12.55
-18.30
-24.07
-29.95
-36.20
-43.09
-50.61
-58.48
-66.58
-75.48
-83.61
-90.17
-94.51
-95.87
-93.66
-87.39
-76.67
-61.77
-43.76
-23.89
-2.93
19.19
43.98
73.81
111.02
156.68
208.90
262.06
308.22
339.47
348.99
333.33
293.16
234.37
167.57
105.12
57.41
29.87
21.90
25.88
31.71
30.67
18.36
-1.02
-16.00
-18.27
-9.34
3.57
9.57
6.16
-4.92
-20.02
-36.90
-57.84
-84.31
-119.37
-152.89
-175.66
-184.12
-181.14
-170.49
-154.47
-135.26
-115.77
-99.16
-86.84
-79.85
-77.14
-76.38
-74.55
-69.59
-61.62
-52.52
-45.03
-40.54
-40.09
-42.91
-46.95
-49.81
-49.78
-46.95
-42.72
-39.05
-37.24
-38.69
-44.09
-53.10
-63.69
-72.22
-74.12
-65.43
-44.73
-14.35
19.59
49.65
70.19
79.49
79.72
75.11
69.51
64.76
60.69
56.18
50.69
44.94
40.34
37.89
37.45
37.82
37.47
35.18
30.87
25.43
20.22
16.46
14.65
14.42
14.77
14.58
13.08
10.16
6.47
2.88
0.20
-1.30
-1.84
-1.98
-2.39
-3.49
-5.28
-7.41
-9.37
-10.65
-10.95
-10.20
-8.51
-6.00
-2.75
1.25
6.05
11.57
17.74
24.18
30.39
35.80
39.91
42.36
42.98
41.77
38.83
34.60
29.52
24.03
18.52
13.32
8.67
4.67
1.32
-1.50
-3.88
-5.95
-7.84
-9.61
-11.29
-12.88
-14.38
-15.77
-17.03
-18.17
-19.21
-20.19
-21.17
-22.19
-23.26
-24.42
-25.70
-27.12
-28.73
-30.50
-32.43
-34.52
-36.74
-39.04
-41.43
-43.95
-46.61
-49.52
-52.66
-55.99
-59.49
-63.09
-66.58
-69.83
-72.66
-74.73
-75.75
-75.21
-72.52
-67.16
-58.80
-46.92
-31.48
-12.77
8.60
31.62
55.30
78.53
100.19
118.56
133.18
143.66
149.95
153.30
153.73
151.55
147.26
141.36
134.17
126.07
116.95
106.56
94.70
81.13
65.92
49.33
31.70
12.87
-6.02
-24.21
-41.16
-56.39
-69.58
-80.41
-88.78
-94.82
-98.91
-101.49
-103.22
-104.64
-106.03
-107.37
-108.28
-108.33
-107.19
-104.77
-101.03
-96.06
-89.89
-82.29
-72.67
-60.32
-44.73
-25.85
-4.26
18.94
42.32
64.39
83.44
98.93
111.04
120.46
128.20
135.26
142.05
147.87
150.69
148.36
138.66
121.23
98.05
72.85
49.72
31.76
20.39
15.50
15.89
19.54
23.79
25.47
21.55
10.29
-7.73
-29.47
-50.44
-66.46
-75.29
-77.10
-73.98
-68.70
-63.44
-59.39
-56.79
-55.47
-55.29
-56.28
-58.26
-60.18
-60.08
-55.68
-45.65
-31.09
-15.83
-5.18
-3.52
-11.56
-25.40
-38.25
-43.55
-38.04
-23.02
-2.81
18.14
37.54
55.49
72.87
88.46
98.66
98.96
86.72
63.35
34.58
8.22
-9.62
-16.28
-14.16
-8.32
-3.58
-2.44
-4.61
-8.01
-10.58
-11.58
-11.54
-11.62
-12.46
-13.73
-14.55
-14.00
-11.79
-8.59
-5.68
-4.19
-4.69
-6.68
-8.72
-9.17
-7.02
-2.64
2.05
4.44
2.62
-3.61
-12.32
-20.19
-23.98
-21.85
-13.61
-0.42
15.62
31.48
43.08
46.02
37.68
19.13
-3.78
-22.55
-29.88
-23.45
-6.79
13.30
30.75
42.96
49.97
52.15
47.78
33.67
8.06
-26.41
-62.45
-91.11
-105.91
-105.73
-93.90
-75.41
-53.91
-30.89
-6.87
16.72
36.34
48.69
52.38
49.44
44.39
41.99
44.84
51.70
57.84
56.83
43.77
17.93
-15.83
-48.30
-69.34
-72.30
-57.29
-30.94
-3.38
17.02
26.74
28.58
28.44
31.73
40.26
51.77
62.10
67.71
67.45
61.95
52.61
40.30
25.32
8.96
-5.99
-14.95
-14.24
-3.57
11.88
23.00
20.94
2.18
-28.61
-60.67
-82.37
-87.43
-77.66
-60.95
-45.33
-33.73
-22.83
-6.49
17.63
44.76
63.47
61.95
34.81
-13.01
-68.04
-114.75
-142.41
-149.12
-140.49
-125.30
-109.75
-95.95
-82.12
-65.11
-43.71
-19.56
3.42
21.28
31.82
35.50
34.97
33.64
34.09
37.02
41.34
44.91
45.88
43.54
38.69
33.08
28.58
26.27
26.08
27.00
27.63
26.95
24.67
21.32
17.81
15.02
13.37
12.73
12.59
12.30
11.45
9.98
8.13
6.29
4.82
3.89
3.48
3.39
3.34
3.08
2.45
1.43
0.14
-1.18
-2.27
-2.90
-3.04
-2.88
-2.78
-3.12
-4.15
-5.80
-7.69
-9.24
-9.94
-9.66
-8.76
-8.02
-8.29
-10.09
-13.26
-16.96
-19.97
-21.29
-20.66
-18.83
-17.28
-17.59
-20.60
-25.93
-32.03
-36.79
-38.78
-37.71
-34.83
-32.25
-31.93
-34.87
-40.96
-49.26
-58.41
-66.54
-71.11
-69.11
-57.95
-36.85
-7.77
24.53
54.11
76.22
88.93
93.61
93.80
92.94
92.18
89.57
81.34
64.63
40.11
12.78
-9.65
-20.34
-16.60
-1.30
18.45
35.19
44.50
46.58
44.91
43.39
43.75
45.05
45.05
42.34
37.56
32.96
30.82
32.07
35.97
40.36
42.99
42.66
39.65
35.66
33.15
34.27
39.66
47.69
54.47
55.15
45.95
26.15
-1.10
-29.79
-53.42
-67.63
-71.67
-68.16
-61.22
-54.34
-49.13
-45.44
-42.44
-39.58
-36.96
-34.83
-33.05
-30.82
-27.08
-21.17
-13.35
-4.91
2.44
7.24
8.97
8.09
5.87
3.80
2.95
3.71
5.65
7.88
9.43
9.68
8.63
6.73
4.65
2.91
1.59
0.29
-1.56
-4.30
-7.75
-11.23
-13.97
-15.47
-15.82
-15.56
-15.33
-15.39
-15.50
-15.17
-14.13
-12.59
-11.19
-10.56
-10.88
-11.69
-12.17
-11.56
-9.58
-6.55
-3.07
0.26
3.14
5.54
7.58
9.33
10.75
11.78
12.43
12.82
13.08
13.31
13.49
13.53
13.38
13.06
12.74
12.64
13.06
14.08
15.80
18.16
20.98
23.88
26.54
28.75
30.42
31.53
31.73
30.70
28.26
24.56
20.33
16.67
14.65
14.98
18.84
25.88
34.76
43.30
48.77
48.37
40.24
24.47
3.91
-16.22
-30.09
-33.10
-23.89
-5.01
17.86
37.88
49.20
48.58
35.94
13.79
-13.63
-41.65
-66.21
-84.57
-95.50
-99.03
-96.11
-88.34
-77.77
-66.65
-57.11
-50.61
-47.58
-47.23
-47.97
-48.05
-46.21
-42.02
-35.67
-27.80
-19.22
-10.88
-3.90
0.61
2.03
0.73
-1.84
-3.68
-3.34
-0.65
3.23
6.56
8.24
8.40
8.23
9.04
11.32
14.34
16.60
16.78
14.44
10.22
5.42
1.28
-1.45
-2.63
-2.64
-2.13
-1.94
-2.85
-5.33
-9.27
-13.98
-18.28
-20.93
-21.14
-18.86
-14.88
-10.46
-6.76
-4.41
-3.20
-2.33
-0.87
1.80
5.70
10.49
15.73
21.21
26.99
33.21
39.86
46.59
52.69
57.31
59.77
59.98
58.48
56.37
54.83
54.65
55.77
57.36
58.24
57.50
55.17
52.17
49.95
49.74
51.94
55.87
59.95
62.18
60.68
54.13
42.10
25.26
5.34
-15.01
-32.97
-46.19
-53.52
-55.20
-52.50
-46.99
-39.85
-31.72
-22.70
-12.92
-2.82
6.76
14.63
19.66
20.97
18.24
11.87
3.05
-6.53
-15.10
-21.37
-25.07
-26.83
-27.84
-29.25
-31.75
-35.43
-39.92
-44.51
-48.26
-50.23
-49.66
-46.47
-41.41
-35.91
-31.36
-28.52
-27.06
-25.94
-24.14
-21.33
-18.06
-15.30
-13.69
-13.06
-12.53
-11.07
-8.10
-3.84
0.95
5.46
9.25
12.46
15.55
18.97
22.86
26.94
30.68
33.63
35.66
37.06
38.30
39.81
41.66
43.55
44.99
45.65
45.57
45.20
45.13
45.77
47.12
48.72
49.90
50.00
48.57
45.33
40.20
33.24
24.75
15.32
5.75
-3.11
-10.74
-17.05
-22.44
-27.53
-32.82
-38.48
-44.32
-50.02
-55.31
-60.13
-64.57
-68.74
-72.65
-76.22
-79.35
-82.08
-84.58
-87.10
-89.77
-92.55
-95.19
-97.33
-98.66
-99.01
-98.42
-97.11
-95.33
-93.29
-91.03
-88.48
-85.53
-82.17
-78.60
-75.14
-72.11
-69.62
-67.50
-65.31
-62.60
-58.96
-54.07
-47.76
-40.26
-32.22
-24.70
-18.87
-15.57
-15.07
-16.61
-18.50
-18.63
-15.29
-7.94
2.64
14.65
26.02
34.83
40.18
42.45
43.03
43.52
45.02
47.84
51.63
55.52
57.78
57.11
53.53
48.56
44.12
41.53
41.01
42.02
43.31
42.24
37.04
28.39
19.29
13.12
11.88
16.15
26.14
41.29
58.46
74.10
86.26
95.20
102.11
108.10
114.13
121.58
129.76
132.65
122.39
93.90
47.68
-11.43
-76.97
-142.92
-203.76
-236.66
-225.23
-174.04
-105.71
-40.56
13.45
55.93
83.46
99.83
106.22
100.51
81.21
49.84
9.76
-32.34
-66.89
-88.69
-96.52
-94.27
-88.89
-85.45
-84.59
-83.68
-79.93
-73.02
-65.29
-59.08
-56.83
-60.61
-70.04
-80.91
-85.96
-78.09
-54.41
-18.01
23.96
62.51
90.17
103.96
105.91
101.13
94.67
88.99
83.76
78.05
71.60
65.37
60.88
59.05
59.36
60.13
59.32
55.51
49.14
42.06
36.67
34.66
36.13
39.41
42.32
42.89
40.51
36.09
31.59
29.26
31.01
38.13
50.30
65.69
80.71
90.51
90.53
78.52
55.99
27.85
1.88
-15.81
-22.88
-21.17
-15.17
-9.14
-5.37
-3.79
-3.37
-3.18
-3.77
-6.43
-12.09
-20.66
-30.71
-40.27
-47.56
-51.90
-53.56
-53.66
-53.33
-53.20
-53.16
-52.29
-49.51
-44.18
-36.33
-26.60
-16.08
-5.84
4.19
13.34
21.73
29.91
38.12
46.36
54.27
61.28
66.70
70.11
71.34
70.51
67.89
63.61
57.79
50.43
41.67
31.52
20.26
8.33
-3.71
-14.02
-22.28
-28.13
-32.51
-34.67
-34.56
-32.31
-28.32
-23.23
-17.50
-11.86
-7.07
-3.94
-3.01
-4.81
-9.38
-14.49
-20.16
-25.78
-30.83
-35.02
-38.49
-41.56
-44.69
-47.99
-51.12
-53.70
-54.98
-54.74
-53.41
-52.06
-51.85
-53.72
-57.78
-63.14
-68.62
-72.92
-75.35
-76.25
-76.66
-77.81
-80.78
-86.29
-94.80
-106.30
-119.38
-130.87
-136.36
-131.60
-114.55
-87.09
-54.72
-24.57
-2.48
9.48
13.37
13.49
13.94
17.06
22.84
30.30
38.60
47.77
58.43
71.08
84.98
98.51
109.90
117.74
121.90
123.33
123.52
122.83
122.41
122.06
120.68
117.92
112.03
102.32
88.95
72.63
54.34
35.02
15.16
-4.73
-24.64
-43.20
-59.12
-71.31
-78.75
-81.12
-78.40
-70.96
-59.30
-43.95
-25.66
-5.41
15.51
34.64
50.79
63.16
71.57
76.68
79.72
82.08
84.57
87.27
89.55
90.67
90.06
87.78
84.62
81.74
80.21
80.79
83.84
89.51
97.14
104.62
108.29
103.96
88.67
62.54
29.74
-3.71
-31.42
-49.40
-57.52
-58.79
-57.18
-55.57
-54.83
-54.38
-53.45
-51.92
-50.59
-50.44
-51.77
-53.84
-55.31
-54.86
-51.88
-46.86
-40.98
-35.61
-31.73
-29.47
-28.17
-26.81
-24.42
-20.59
-15.56
-10.02
-4.80
-0.45
2.94
5.83
8.70
12.02
16.03
20.57
25.32
29.87
33.97
37.67
41.30
44.96
48.84
53.08
57.70
62.64
67.84
73.28
79.07
85.49
92.24
99.23
106.38
113.66
121.03
128.45
135.92
143.48
151.27
158.72
165.49
171.36
176.07
179.29
180.42
178.43
171.45
162.36
151.75
140.01
127.49
114.53
101.39
88.26
75.12
61.85
48.37
34.00
18.48
1.95
-15.24
-32.65
-49.99
-67.14
-84.22
-101.27
-118.73
-136.54
-154.19
-170.96
-186.19
-199.47
-210.81
-220.47
-228.80
-236.54
-244.34
-252.74
-261.92
-271.29
-279.33
-283.77
-282.43
-274.21
-259.89
-241.60
-221.98
-203.16
-186.23
-171.39
-158.56
-147.78
-139.11
-132.17
-125.83
-118.41
-108.39
-95.15
-79.16
-61.45
-42.94
-24.09
-5.06
13.88
32.15
48.92
63.61
76.08
86.54
95.14
101.77
106.26
108.77
110.12
111.70
114.91
120.41
127.56
134.44
138.55
137.84
131.84
122.09
111.78
104.47
102.48
105.64
111.10
114.34
111.34
100.36
82.93
63.23
46.31
36.09
33.97
38.69
47.17
55.81
61.68
63.37
60.97
55.65
48.87
41.53
33.52
23.67
10.31
-7.78
-30.45
-55.64
-79.77
-98.71
-109.46
-111.34
-106.35
-98.36
-91.44
-88.03
-88.25
-90.19
-91.32
-89.72
-84.71
-76.61
-66.18
-54.12
-41.09
-27.93
-15.63
-5.02
3.52
10.16
15.14
18.29
18.75
15.22
6.89
-5.86
-21.12
-35.89
-47.01
-52.21
-50.96
-44.63
-36.11
-28.70
-24.91
-25.39
-28.83
-32.72
-34.50
-32.66
-27.07
-18.73
-9.16
-0.05
7.13
11.32
12.39
11.67
12.00
17.02
29.47
49.44
73.46
95.19
107.54
105.18
86.73
55.19
17.04
-19.81
-48.09
-62.94
-62.75
-49.35
-27.13
-1.86
21.28
39.02
50.65
57.21
60.29
60.84
59.12
55.47
51.03
47.62
46.59
47.55
48.07
44.81
35.63
20.84
3.47
-12.29
-23.49
-29.95
-34.22
-39.97
-49.80
-64.10
-81.19
-97.95
-110.80
-116.85
-114.85
-105.77
-92.68
-80.09
-72.52
-73.85
-85.01
-103.22
-122.71
-136.80
-140.11
-130.14
-107.63
-75.93
-41.64
-10.61
13.75
30.51
39.52
40.29
32.41
16.55
-4.89
-31.98
-62.87
-93.21
-117.79
-133.98
-143.14
-148.93
-154.77
-162.05
-176.56
-200.92
-233.03
-267.19
-298.35
-323.89
-342.26
-351.92
-352.00
-352.61
-364.49
-393.70
-438.78
-493.68
-550.35
-600.08
-635.84
-601.24
-472.53
-271.21
-52.04
136.89
276.37
370.71
433.08
475.02
503.40
513.35
502.19
473.39
440.96
418.63
414.18
428.72
457.59
492.68
518.55
523.64
505.59
471.73
432.69
394.17
359.70
329.35
300.66
266.37
221.93
168.71
113.61
64.22
25.05
-3.23
-23.71
-41.45
-63.55
-94.78
-135.57
-181.65
-226.47
-263.52
-287.92
-298.20
-296.41
-287.96
-278.76
-272.82
-270.38
-267.98
-259.13
-235.81
-191.22
-122.23
-31.39
72.91
178.19
271.48
343.11
389.55
413.90
423.58
426.96
430.36
436.45
444.49
451.61
454.06
447.80
428.90
394.26
343.08
278.44
207.67
140.79
87.04
51.34
32.33
23.37
15.65
2.18
-19.86
-49.07
-81.48
-112.93
-140.34
-162.02
-177.13
-185.20
-186.18
-180.79
-170.71
-158.25
-145.63
-134.39
-124.97
-116.91
-109.44
-102.08
-94.90
-88.50
-83.70
-81.11
-80.90
-82.53
-84.89
-86.63
-86.53
-84.03
-79.45
-73.99
-69.19
-66.38
-65.94
-67.06
-67.98
-66.74
-61.96
-53.37
-41.97
-29.51
-17.82
-8.29
-1.51
2.58
4.46
4.84
4.35
3.60
3.13
3.41
4.70
6.97
9.64
11.80
12.31
10.18
4.83
-3.59
-14.00
-24.40
-32.22
-35.10
-31.72
-22.59
-9.94
2.79
12.31
16.52
15.20
9.99
3.44
-1.89
-4.29
-3.32
0.32
5.12
9.20
10.87
9.03
3.45
-5.17
-15.49
-26.01
-35.35
-42.65
-47.61
-50.50
-51.97
-52.99
-54.45
-57.02
-60.93
-65.86
-71.16
-75.95
-79.46
-81.17
-80.97
-79.10
-76.09
-72.61
-69.21
-66.10
-63.06
-59.56
-55.00
-49.14
-42.38
-35.61
-29.95
-25.91
-23.11
-20.28
-15.84
-8.69
1.09
12.31
23.13
31.84
37.54
40.21
40.52
39.30
37.24
34.81
32.30
29.84
27.31
24.20
19.55
12.31
2.08
-10.12
-21.61
-28.66
-28.10
-18.95
-3.29
14.28
28.20
34.05
29.93
16.82
-2.00
-22.23
-39.60
-50.73
-53.60
-48.01
-35.68
-20.05
-5.32
4.76
8.12
4.66
-4.04
-15.49
-27.08
-36.54
-42.18
-43.07
-39.26
-31.74
-22.26
-12.86
-5.42
-1.69
-3.20
-11.10
-25.60
-45.13
-65.97
-82.95
-91.29
-88.70
-76.56
-59.40
-42.78
-30.80
-24.58
-22.47
-21.70
-20.16
-17.34
-13.99
-10.99
-8.47
-5.60
-1.15
5.79
15.17
26.08
37.32
48.06
58.48
69.68
83.03
99.26
117.63
135.73
150.22
158.16
158.26
151.52
140.79
129.50
120.35
114.47
111.44
109.97
108.81
107.27
105.15
102.38
98.47
92.44
83.13
69.83
52.88
33.79
14.87
-1.54
-13.96
-22.19
-27.08
-29.77
-30.94
-30.36
-27.10
-20.13
-9.17
4.87
19.94
33.41
42.85
46.81
45.30
39.83
33.08
28.31
28.47
35.21
48.15
64.58
80.04
89.54
89.20
77.70
56.78
30.95
6.11
-12.35
-21.48
-21.92
-17.90
-15.95
-22.48
-41.38
-72.61
-112.43
-154.99
-194.62
-227.51
-252.02
-267.78
-274.39
-270.86
-256.19
-230.64
-196.67
-158.78
-121.95
-89.70
-62.87
-39.71
-17.30
6.58
32.18
57.65
80.20
97.55
109.10
116.06
120.63
124.78
129.26
133.31
135.21
133.29
126.91
116.85
104.94
93.17
82.56
72.66
61.85
48.27
31.04
10.86
-10.17
-29.59
-45.79
-58.66
-69.27
-78.72
-86.93
-92.11
-91.47
-82.63
-65.18
-41.29
-14.99
9.42
28.96
42.75
51.55
56.69
59.10
59.00
56.24
50.92
43.69
35.57
27.50
20.02
13.29
7.42
2.59
-0.83
-2.54
-2.47
-0.81
2.24
6.48
11.69
17.32
22.39
25.62
25.99
23.24
18.14
12.19
6.82
2.67
-0.62
-3.96
-7.72
-10.88
-10.97
-4.99
8.88
30.02
55.15
79.51
98.78
110.69
115.33
114.20
108.75
99.89
88.64
77.30
69.82
70.33
80.67
98.36
116.86
128.51
128.44
116.98
99.02
80.59
65.00
51.10
34.73
12.26
-16.34
-46.96
-73.73
-92.49
-103.02
-108.69
-113.72
-120.13
-126.00
-126.54
-117.18
-97.00
-70.32
-45.44
-31.15
-32.68
-49.24
-74.45
-99.50
-117.34
-125.57
-126.80
-126.39
-129.05
-136.29
-146.21
-155.21
-160.65
-162.60
-163.79
-167.84
-177.04
-190.89
-206.31
-219.24
-226.73
-228.23
-225.52
-221.28
-217.24
-213.02
-206.14
-193.15
-171.15
-138.91
-97.22
-48.44
4.02
56.48
105.46
148.19
182.98
209.58
229.06
243.19
253.66
261.31
265.86
266.15
260.91
249.47
232.26
210.86
187.47
164.17
142.30
122.27
103.84
86.64
70.58
55.84
42.43
29.76
16.76
2.37
-13.58
-30.00
-44.82
-56.00
-62.67
-65.43
-65.79
-64.97
-62.94
-58.35
-49.28
-34.59
-14.78
7.87
30.29
49.78
64.98
75.99
83.85
89.63
93.81
96.22
96.40
94.20
90.19
85.58
81.87
80.34
81.75
86.11
92.78
100.63
108.21
114.03
116.77
115.55
109.97
100.03
86.01
68.33
47.49
24.22
-0.44
-25.07
-47.90
-67.02
-80.59
-87.25
-86.45
-78.86
-66.43
-52.08
-39.12
-30.38
-27.70
-31.53
-40.97
-54.04
-68.11
-80.38
-88.50
-91.00
-87.51
-78.79
-66.38
-52.07
-37.55
-24.15
-12.83
-4.20
1.62
4.99
6.73
7.87
9.17
10.85
12.47
13.23
12.38
9.63
5.40
0.70
-3.12
-4.76
-3.29
1.71
10.18
21.58
34.94
48.92
61.79
71.92
78.21
80.59
80.10
78.44
77.11
76.66
76.53
75.60
73.12
69.35
65.51
62.96
62.29
62.91
63.53
63.07
61.44
59.51
58.38
58.37
58.50
56.76
51.12
40.41
24.96
6.63
-11.68
-26.63
-35.23
-35.52
-27.28
-12.09
6.94
26.07
42.07
52.83
57.66
56.93
51.63
43.09
32.84
22.35
12.85
4.91
-1.64
-7.73
-14.58
-23.14
-33.66
-45.53
-57.62
-68.77
-78.37
-86.62
-94.18
-101.56
-108.47
-113.67
-115.53
-113.14
-107.29
-100.51
-95.95
-95.69
-99.57
-105.28
-109.88
-111.53
-110.32
-107.83
-105.69
-104.33
-102.76
-99.47
-93.59
-85.53
-76.54
-67.71
-59.19
-50.58
-41.93
-34.59
-30.91
-32.53
-38.66
-45.47
-47.52
-40.36
-22.82
2.31
29.73
53.96
71.45
81.28
84.57
83.28
79.25
73.78
67.62
61.08
54.01
46.08
37.22
28.23
20.81
17.05
18.41
24.93
35.23
47.17
59.13
70.50
81.75
93.46
105.40
116.24
124.11
128.07
128.82
129.47
133.72
144.49
161.75
182.33
201.06
213.08
216.12
210.61
200.31
189.34
181.23
177.13
176.18
176.28
174.74
169.12
156.15
134.23
102.21
61.38
15.32
-29.82
-66.38
-87.37
-87.70
-66.53
-24.17
27.47
74.74
105.01
112.13
97.97
68.16
37.89
7.85
-22.38
-52.72
-81.33
-106.26
-127.35
-143.12
-153.09
-157.83
-160.38
-162.71
-166.78
-173.25
-181.65
-190.48
-197.76
-202.41
-204.19
-204.57
-203.96
-202.96
-202.21
-203.01
-206.99
-215.15
-226.97
-239.29
-247.15
-243.85
-223.88
-184.42
-126.06
-52.33
31.17
117.24
198.04
265.76
314.64
342.06
349.41
341.42
324.47
304.59
285.95
270.60
259.13
251.03
244.86
237.84
225.94
204.73
171.05
124.68
69.03
10.74
-42.83
-85.47
-113.96
-128.98
-134.79
-137.41
-141.81
-149.49
-157.40
-160.73
-154.51
-136.66
-109.93
-81.92
-62.43
-59.27
-74.76
-104.69
-143.14
-182.01
-213.04
-229.69
-228.92
-212.23
-185.42
-157.16
-136.52
-134.92
-157.72
-201.43
-255.06
-305.49
-343.19
-365.06
-373.59
-373.47
-375.15
-385.39
-405.26
-431.32
-459.35
-486.87
-512.67
-535.32
-519.07
-445.25
-319.18
-168.77
-25.99
89.38
171.94
225.77
255.43
272.61
280.30
280.25
275.80
272.49
275.22
285.74
301.65
317.97
330.32
331.34
317.82
292.03
260.32
229.55
204.17
185.81
174.27
169.01
165.50
159.42
148.06
131.17
110.58
89.23
70.22
55.79
46.94
41.32
36.15
29.82
22.52
15.37
9.19
3.86
-1.38
-6.82
-12.56
-17.78
-21.13
-21.42
-18.28
-12.15
-4.09
4.57
12.42
18.11
20.75
20.46
18.59
17.36
18.95
24.32
32.57
41.32
47.69
49.56
46.40
39.29
30.47
22.48
17.39
16.18
18.37
22.02
24.41
22.93
16.09
3.96
-11.99
-29.56
-46.71
-61.93
-74.33
-83.22
-87.99
-88.20
-83.94
-76.16
-66.55
-57.09
-49.36
-44.19
-41.60
-41.09
-42.06
-44.05
-46.78
-49.84
-52.59
-54.09
-53.40
-49.96
-43.94
-36.13
-27.65
-19.39
-11.63
-4.14
3.48
11.25
18.66
24.73
28.58
29.81
28.54
25.32
20.84
15.95
11.99
10.95
15.07
25.69
42.02
60.56
76.01
83.54
81.05
70.44
56.73
45.70
41.19
43.55
50.12
57.05
61.46
62.42
60.70
57.77
54.76
52.22
50.33
49.17
48.94
49.74
51.19
52.45
52.18
49.02
41.99
30.86
16.44
0.44
-14.76
-27.03
-35.27
-39.89
-42.82
-46.43
-52.21
-59.67
-66.33
-68.55
-63.16
-49.02
-27.61
-2.76
20.78
39.03
49.96
53.86
52.61
48.46
43.02
36.81
29.54
20.82
10.82
0.40
-9.24
-17.18
-23.22
-27.91
-32.13
-36.50
-40.90
-44.48
-46.26
-45.85
-43.94
-42.24
-42.79
-47.12
-55.70
-67.96
-82.84
-99.25
-116.31
-132.91
-147.18
-156.23
-157.01
-147.61
-128.48
-102.61
-74.55
-48.46
-26.46
-8.15
8.61
26.02
44.92
64.32
82.06
96.12
105.63
111.19
114.23
116.07
117.18
117.11
115.02
110.28
103.00
93.99
84.25
74.39
64.23
52.94
39.67
24.08
6.60
-11.78
-30.01
-47.35
-63.43
-77.80
-89.71
-97.88
-101.04
-98.42
-90.23
-77.74
-62.85
-47.55
-33.44
-21.47
-12.04
-5.13
-0.50
2.29
3.85
4.79
5.68
6.83
8.20
9.50
10.35
10.46
9.73
8.21
5.99
3.10
-0.57
-5.15
-10.67
-16.93
-23.65
-30.52
-37.40
-44.27
-51.28
-58.58
-66.23
-74.04
-81.56
-87.99
-92.32
-93.65
-91.58
-86.56
-79.99
-73.72
-69.42
-67.88
-68.70
-70.54
-71.64
-70.32
-65.36
-56.12
-42.77
-26.48
-9.50
5.31
15.43
19.88
19.92
18.78
20.25
26.82
38.53
53.04
66.97
77.74
84.72
89.22
93.29
98.34
104.35
110.02
113.84
115.27
115.26
115.95
119.39
126.41
135.96
145.46
151.96
153.44
149.79
142.65
134.51
127.44
122.19
118.28
114.74
110.91
106.96
103.39
100.40
97.34
92.95
86.17
77.02
66.85
57.79
51.64
48.96
48.86
49.65
49.83
48.75
46.74
44.49
42.44
40.32
37.39
33.16
28.10
24.01
23.62
29.52
43.06
63.52
88.23
113.39
135.33
151.42
160.51
162.65
158.51
148.94
134.71
116.52
95.19
71.98
48.61
27.06
9.00
-4.73
-14.70
-22.74
-31.38
-42.78
-57.92
-76.05
-95.03
-112.13
-124.89
-131.67
-131.80
-125.38
-113.15
-96.57
-77.69
-59.04
-43.04
-31.08
-22.77
-16.03
-7.81
4.24
20.41
38.46
54.60
65.28
68.95
66.44
60.13
52.34
44.22
35.79
26.91
18.37
12.12
10.42
14.50
23.69
35.51
46.77
55.03
59.33
60.31
59.59
58.79
58.92
60.00
61.03
60.23
55.49
44.87
27.11
2.14
-28.71
-62.67
-95.85
-124.13
-144.11
-154.31
-155.67
-151.31
-145.41
-141.48
-141.07
-143.38
-146.19
-147.20
-145.35
-141.05
-135.62
-130.38
-126.01
-122.62
-120.23
-119.22
-120.22
-123.61
-128.93
-134.56
-138.20
-137.63
-131.57
-120.22
-105.17
-88.78
-73.37
-60.38
-49.97
-41.28
-33.03
-24.50
-15.79
-7.77
-1.44
2.81
5.54
7.94
11.17
15.92
22.24
29.84
38.36
47.37
56.29
64.16
69.84
72.34
71.33
67.44
61.98
56.57
52.51
50.39
50.02
50.64
51.27
51.12
49.85
47.59
44.76
41.85
39.16
36.79
34.79
33.18
31.97
30.90
29.14
25.43
18.58
8.15
-5.19
-19.70
-33.35
-44.70
-53.22
-58.91
-61.51
-60.09
-53.31
-40.50
-22.81
-3.88
11.18
17.87
14.40
2.31
-14.36
-30.99
-44.20
-52.69
-57.19
-59.29
-60.39
-61.07
-61.28
-61.18
-61.09
-61.33
-61.45
-61.03
-59.37
-55.74
-49.82
-42.09
-35.02
-31.41
-33.23
-39.61
-48.82
-57.95
-63.61
-62.47
-52.68
-36.48
-17.71
-0.05
16.34
30.60
42.39
51.64
59.30
66.26
69.56
66.06
53.98
36.73
15.12
-11.09
-43.00
-80.04
-120.20
-164.31
-211.84
-260.11
-301.10
-332.63
-356.57
-377.41
-397.76
-393.26
-348.52
-263.72
-181.35
-113.97
-64.63
-25.10
6.15
30.47
49.70
62.22
67.50
67.48
70.47
80.16
96.60
116.35
136.00
152.84
162.90
165.34
163.41
166.45
179.75
204.31
236.65
272.08
305.89
332.67
349.14
354.56
352.10
343.24
328.35
307.17
280.45
249.79
216.28
181.23
146.29
114.21
86.27
62.62
42.30
24.26
7.48
-9.11
-25.91
-42.71
-58.58
-73.23
-87.22
-101.89
-118.68
-138.53
-161.29
-185.50
-208.78
-228.68
-243.62
-253.58
-260.26
-266.51
-275.18
-287.78
-303.50
-318.85
-328.35
-325.84
-306.23
-266.55
-206.59
-129.11
-39.95
52.40
137.74
206.14
250.91
270.74
269.94
255.76
234.34
207.66
173.61
129.19
74.73
16.21
-36.17
-72.41
-87.50
-83.44
-67.73
-49.46
-35.41
-28.43
-27.80
-30.88
-34.63
-36.31
-33.80
-26.04
-13.54
1.21
14.68
23.60
26.27
23.31
16.97
9.62
2.86
-2.46
-5.75
-6.57
-5.18
-3.12
-3.06
-7.48
-16.84
-28.59
-38.12
-41.32
-37.61
-30.73
-27.05
-31.72
-45.30
-62.78
-75.98
-77.93
-66.59
-45.63
-22.03
-1.81
13.30
26.40
43.11
67.25
97.71
128.38
151.22
160.61
156.08
142.16
125.38
110.50
98.42
86.69
72.19
53.83
33.50
14.91
1.47
-5.30
-6.36
-4.15
-1.11
1.49
3.76
6.64
11.00
17.03
24.17
31.44
37.94
43.16
47.09
50.34
54.01
59.35
67.24
77.53
88.67
97.85
101.95
98.71
87.71
70.80
51.40
33.29
19.36
10.83
7.20
6.70
6.91
5.36
0.21
-9.20
-22.02
-36.09
-48.80
-58.18
-63.73
-66.36
-67.69
-69.04
-70.96
-73.43
-76.56
-81.01
-87.71
-96.89
-107.26
-115.91
-119.47
-115.76
-104.90
-89.30
-72.37
-56.87
-43.85
-32.79
-22.71
-13.27
-5.10
0.66
3.25
2.77
0.16
-3.47
-7.50
-11.99
-17.38
-23.88
-31.17
-38.19
-43.70
-47.07
-48.91
-51.07
-55.96
-65.12
-78.03
-91.74
-102.03
-105.37
-100.78
-90.09
-76.54
-62.68
-48.84
-33.49
-14.85
7.34
31.26
54.20
74.42
92.34
110.06
129.54
150.82
171.53
188.08
197.58
199.42
195.38
188.37
181.00
174.57
169.12
164.10
159.20
154.62
150.70
147.41
144.08
139.67
133.50
125.77
117.68
110.95
106.86
105.48
105.37
103.80
97.65
84.61
64.15
38.25
11.27
-10.92
-22.56
-19.70
-1.59
28.98
66.47
104.24
136.38
159.13
171.35
174.15
169.91
161.28
150.47
138.91
127.18
115.08
101.99
87.29
70.66
52.32
32.93
13.12
-7.12
-28.79
-53.77
-83.91
-119.90
-160.27
-201.33
-238.09
-265.78
-281.15
-282.81
-270.90
-246.51
-211.62
-169.69
-126.20
-88.28
-63.08
-55.10
-64.10
-84.66
-108.05
-125.56
-131.68
-125.55
-110.31
-90.93
-71.84
-55.55
-42.53
-32.08
-23.43
-16.37
-11.16
-8.14
-7.10
-7.25
-7.51
-7.03
-5.58
-3.63
-2.03
-1.59
-2.75
-5.61
-10.01
-15.84
-23.10
-31.83
-41.91
-52.82
-63.59
-72.93
-79.59
-82.60
-81.58
-76.68
-68.52
-57.94
-46.00
-34.00
-23.51
-16.27
-13.78
-16.70
-24.41
-34.99
-45.79
-54.29
-58.97
-59.73
-57.78
-55.24
-54.42
-57.09
-63.74
-72.95
-81.27
-83.95
-76.49
-56.60
-25.99
9.15
39.46
55.38
50.91
26.34
-11.23
-50.04
-77.84
-86.83
-76.41
-52.79
-25.54
-2.95
10.98
17.34
20.72
27.32
41.94
66.65
100.51
139.68
179.00
212.00
231.70
232.81
215.20
183.54
146.17
112.44
89.12
80.91
88.45
108.14
133.94
161.25
186.10
205.27
216.27
216.48
207.64
193.34
177.19
162.27
153.32
153.39
162.96
179.81
198.06
214.94
228.91
238.81
226.60
182.78
110.43
24.93
-42.71
-90.26
-123.97
-151.03
-179.81
-212.33
-244.11
-269.25
-283.53
-286.40
-282.56
-274.98
-265.84
-256.73
-247.85
-236.91
-222.04
-203.33
-183.21
-166.79
-156.07
-151.19
-151.21
-154.27
-157.31
-157.94
-154.92
-148.39
-140.07
-129.96
-117.50
-102.31
-84.27
-63.30
-39.97
-15.57
8.03
28.37
44.26
55.39
62.11
65.30
66.11
65.49
63.90
61.36
57.51
52.40
46.28
39.44
32.18
24.66
16.97
9.34
2.12
-4.24
-9.40
-13.37
-16.61
-20.00
-24.57
-31.17
-40.04
-50.53
-61.16
-69.87
-74.68
-74.14
-67.81
-56.25
-40.68
-22.69
-3.73
15.01
32.62
48.41
61.76
72.19
79.35
83.20
84.00
82.36
79.09
75.01
70.66
66.18
61.34
55.78
49.28
42.10
34.94
28.68
23.90
20.56
17.94
14.87
10.27
3.57
-5.11
-15.08
-25.33
-34.73
-42.10
-46.19
-45.79
-40.02
-28.78
-13.06
5.30
24.37
43.09
61.72
81.47
103.52
127.97
153.30
176.75
195.54
208.15
215.12
218.91
222.82
229.59
240.22
253.53
266.62
276.05
279.13
274.92
264.48
250.34
235.44
222.21
211.82
204.25
198.56
193.26
186.72
177.64
165.27
149.73
131.86
112.81
93.56
74.34
54.51
32.81
7.72
-22.21
-58.02
-99.67
-145.16
-189.88
-227.25
-250.75
-256.83
-247.03
-228.05
-209.29
-198.84
-199.93
-209.76
-221.30
-227.02
-222.49
-207.97
-187.34
-165.55
-146.04
-129.56
-114.88
-100.23
-84.70
-68.72
-53.60
-40.33
-28.87
-18.02
-6.23
7.45
22.62
37.72
50.75
60.36
66.58
70.89
75.61
82.74
92.95
105.18
117.05
125.84
129.76
128.55
123.52
116.78
110.27
104.95
100.62
96.19
90.35
82.13
71.26
58.16
43.73
29.00
14.83
1.80
-9.80
-19.84
-28.20
-34.81
-39.71
-43.14
-45.67
-48.07
-51.20
-55.81
-62.43
-71.16
-81.45
-91.93
-100.42
-104.31
-101.28
-90.13
-71.28
-46.84
-19.96
5.92
27.94
44.18
53.90
57.35
55.62
50.19
42.58
33.94
24.93
15.98
7.57
0.55
-4.13
-5.97
-5.58
-4.78
-6.23
-12.52
-25.57
-46.48
-75.62
-112.39
-154.35
-196.45
-231.51
-252.43
-255.49
-242.67
-221.33
-200.93
-188.42
-184.98
-186.07
-184.78
-176.17
-159.98
-140.23
-122.17
-108.97
-100.18
-92.79
-83.69
-71.85
-58.78
-47.32
-39.87
-36.95
-37.06
-37.58
-35.99
-30.80
-21.80
-9.65
4.62
20.07
35.85
51.03
64.28
73.91
78.22
75.92
66.79
51.81
33.05
13.06
-5.74
-21.61
-33.51
-40.78
-43.06
-40.23
-32.71
-21.67
-8.90
3.75
15.12
25.24
34.92
44.97
55.20
64.08
69.16
68.32
60.92
48.29
33.24
18.92
7.60
0.07
-4.34
-6.94
-9.01
-11.38
-14.55
-18.94
-25.15
-33.88
-45.51
-59.94
-76.51
-94.29
-112.37
-130.11
-146.91
-161.92
-173.94
-181.64
-184.06
-180.99
-173.11
-161.59
-147.55
-131.60
-113.86
-94.34
-73.46
-52.39
-32.91
-16.91
-5.74
0.24
1.92
1.21
0.62
2.59
8.72
19.16
32.49
46.07
57.14
63.95
66.61
67.09
68.58
74.17
85.63
102.43
121.55
138.12
147.00
144.32
128.68
101.34
65.63
26.04
-12.52
-45.09
-67.17
-75.36
-68.49
-48.32
-19.41
12.01
40.07
60.82
72.86
76.71
73.82
65.75
54.13
40.82
27.89
16.99
8.77
2.59
-2.98
-9.18
-16.14
-22.70
-27.24
-28.64
-26.94
-23.43
-19.77
-17.20
-16.10
-16.17
-16.85
-17.53
-17.78
-17.28
-15.78
-13.08
-8.95
-3.17
4.78
15.61
29.73
46.83
65.44
83.32
98.16
108.46
114.10
116.01
115.62
114.16
112.53
111.38
111.28
112.53
114.70
116.49
116.09
111.85
102.97
89.83
73.75
56.37
38.96
22.16
6.07
-9.63
-25.56
-42.57
-61.28
-81.83
-103.30
-123.69
-140.66
-152.78
-160.58
-166.39
-172.97
-181.67
-191.60
-200.18
-204.94
-205.15
-201.90
-196.62
-189.09
-176.93
-156.79
-126.76
-88.14
-45.28
-3.86
31.60
59.07
78.87
92.31
100.43
103.51
101.57
95.21
85.90
75.61
66.12
58.21
51.43
44.32
35.17
23.03
8.26
-7.41
-21.44
-31.77
-37.64
-39.80
-40.01
-40.09
-41.15
-43.22
-45.27
-45.67
-42.62
-34.67
-21.13
-2.55
19.25
41.52
61.36
76.70
86.82
92.31
94.36
94.03
91.79
87.67
81.68
74.23
66.20
58.65
52.23
46.86
41.84
36.21
29.37
21.34
12.70
4.25
-3.50
-10.65
-17.83
-25.99
-35.79
-47.31
-59.88
-72.23
-82.88
-90.51
-94.26
-93.80
-89.21
-80.79
-68.90
-53.90
-36.11
-16.02
5.70
28.02
49.63
68.90
84.28
94.55
99.26
98.94
94.97
89.29
83.72
79.52
77.11
76.14
75.84
75.31
73.91
71.30
67.47
62.65
57.14
51.24
45.13
38.75
31.91
24.25
15.40
5.12
-6.54
-19.10
-31.50
-42.17
-49.26
-51.09
-46.67
-36.08
-20.51
-1.96
17.32
35.34
50.80
63.16
72.49
79.21
83.75
86.42
87.33
86.58
84.31
80.86
76.73
72.47
68.46
64.78
61.25
57.52
53.38
48.81
44.05
39.42
35.07
31.05
27.32
23.81
20.44
16.90
12.52
6.42
-2.02
-12.57
-23.73
-33.00
-37.75
-36.19
-28.15
-15.01
1.01
17.76
33.76
48.24
60.74
70.62
76.98
78.94
76.10
68.93
58.73
47.25
36.20
26.72
19.12
13.00
7.62
2.45
-2.43
-6.26
-8.15
-7.66
-5.19
-1.83
1.23
3.34
4.63
5.64
6.64
7.07
5.67
1.13
-6.77
-16.65
-25.72
-30.73
-29.18
-20.30
-5.45
12.40
29.76
43.99
54.00
60.16
63.47
64.44
62.67
57.16
47.38
33.85
18.25
2.39
-12.72
-27.21
-41.60
-55.55
-67.29
-74.17
-74.33
-68.11
-58.24
-48.77
-43.19
-43.40
-49.60
-60.90
-76.08
-93.86
-112.71
-130.72
-145.93
-156.93
-163.23
-165.12
-162.89
-156.25
-144.37
-126.50
-102.61
-73.55
-40.69
-5.66
29.43
61.32
85.34
96.42
91.36
71.38
42.99
16.31
1.04
1.81
15.76
33.88
45.77
44.84
31.29
11.29
-6.88
-17.44
-19.61
-16.91
-14.29
-14.87
-18.56
-23.04
-26.14
-27.81
-30.36
-36.76
-48.19
-62.68
-75.59
-81.67
-77.54
-63.37
-42.60
-20.37
-1.05
13.54
24.30
33.68
43.95
55.83
68.04
77.93
82.50
79.48
68.05
49.10
25.18
0.19
-21.33
-35.18
-38.70
-31.75
-16.82
1.69
19.15
32.23
39.67
41.82
39.50
32.93
21.42
4.02
-19.31
-47.00
-75.94
-102.32
-122.73
-134.86
-137.53
-130.42
-113.92
-89.45
-59.83
-29.08
-1.58
19.38
32.63
39.27
41.68
42.13
41.77
40.65
38.55
35.83
33.65
33.36
35.38
38.80
41.77
42.66
41.16
38.58
36.94
37.79
41.21
45.68
48.85
48.59
43.83
34.90
23.25
11.02
0.49
-6.29
-7.83
-3.46
6.56
20.99
37.90
55.11
70.72
83.50
92.94
99.22
102.94
104.91
106.12
107.59
110.13
113.92
118.19
121.13
120.27
113.33
99.05
77.85
51.89
24.50
-0.70
-20.73
-33.83
-39.69
-39.17
-33.91
-25.84
-16.95
-9.32
-5.36
-7.71
-18.66
-38.96
-66.78
-97.56
-125.34
-144.81
-153.24
-151.03
-140.71
-124.89
-104.95
-80.98
-53.08
-22.83
6.18
29.44
43.67
48.55
47.00
43.72
42.94
46.48
53.39
60.85
65.93
67.04
64.54
60.23
56.25
53.91
53.06
52.30
49.73
43.79
33.88
20.42
4.31
-13.40
-32.03
-50.92
-69.21
-85.25
-96.63
-100.73
-95.72
-81.63
-60.69
-36.95
-15.02
1.26
9.93
11.26
7.21
0.46
-6.60
-12.47
-16.66
-19.18
-20.14
-19.36
-16.50
-11.31
-4.01
4.53
13.04
20.19
24.98
26.93
26.00
22.42
16.40
8.11
-2.25
-14.20
-26.75
-38.31
-46.84
-50.40
-47.65
-38.41
-23.80
-5.87
13.13
31.48
48.44
64.15
79.01
93.07
105.63
115.38
120.91
121.34
116.62
107.62
95.72
82.36
68.62
55.04
41.67
28.31
14.67
0.67
-13.50
-27.44
-40.61
-52.49
-62.71
-71.13
-77.83
-83.16
-87.67
-91.99
-96.64
-101.75
-106.87
-110.87
-112.32
-109.97
-103.27
-92.70
-79.67
-66.01
-53.32
-42.45
-33.36
-25.46
-18.20
-11.39
-5.48
-1.28
0.48
-0.56
-4.07
-9.11
-14.27
-17.99
-18.87
-16.14
-9.94
-1.32
8.00
16.39
22.74
26.83
29.12
30.39
30.97
30.46
27.84
21.86
11.88
-1.69
-17.13
-31.39
-40.47
-40.56
-29.34
-7.03
23.17
56.23
86.66
110.03
124.21
129.57
128.00
121.58
111.94
99.93
86.46
72.55
59.22
47.34
37.60
30.30
25.33
22.37
20.76
20.18
20.32
20.81
19.60
15.79
10.02
3.94
0.02
-2.98
-6.90
-12.69
-20.15
-27.76
-33.57
-36.31
-35.64
-32.00
-26.17
-18.48
-9.24
0.86
10.65
18.91
24.56
26.91
25.94
22.14
16.81
11.48
7.21
4.19
1.65
-2.14
-9.15
-20.68
-36.69
-55.27
-73.32
-87.45
-94.73
-93.29
-82.80
-64.88
-43.10
-22.33
-7.25
-0.95
-3.96
-14.19
-27.97
-41.46
-51.79
-57.36
-57.49
-51.75
-39.87
-22.08
0.25
24.38
46.61
63.52
73.03
75.13
71.71
65.71
60.03
56.54
55.62
56.08
55.71
52.00
42.89
27.45
6.40
-17.47
-39.75
-56.03
-63.94
-64.73
-63.09
-65.02
-74.54
-91.23
-110.02
-123.58
-125.97
-115.49
-95.30
-71.57
-50.48
-35.76
-27.91
-25.13
-24.84
-24.91
-23.83
-20.05
-11.55
3.89
27.62
58.69
93.37
126.20
152.34
169.93
180.83
189.06
198.11
208.52
217.35
219.79
212.06
193.21
165.32
132.16
97.41
63.92
33.66
8.29
-11.10
-24.53
-33.58
-41.40
-51.53
-66.52
-86.53
-108.67
-127.78
-138.48
-137.83
-127.16
-111.99
-99.44
-94.62
-97.42
-102.19
-100.38
-85.03
-54.55
-13.79
28.18
62.11
81.66
84.60
71.85
46.04
11.34
-25.94
-56.65
-70.42
-59.07
-20.97
36.53
98.61
147.84
170.86
163.29
130.66
85.01
39.38
2.86
-21.36
-35.01
-41.91
-45.38
-47.19
-47.88
-47.94
-48.60
-51.72
-58.94
-71.01
-87.25
-105.64
-123.84
-140.18
-154.21
-166.70
-178.93
-192.10
-207.03
-223.58
-240.63
-256.28
-268.12
-273.52
-269.89
-254.50
-224.45
-177.76
-113.91
-35.30
51.52
135.96
205.88
250.86
266.10
254.00
221.72
179.73
138.51
105.54
83.59
71.52
65.12
60.11
53.86
43.14
27.69
10.73
-2.49
-7.64
-2.41
10.95
28.30
45.03
52.65
45.34
22.52
-11.68
-51.32
-89.86
-125.28
-157.65
-188.63
-226.30
-275.90
-335.41
-395.76
-445.66
-474.87
-481.75
-469.82
-409.77
-293.77
-139.26
20.30
156.52
244.77
294.84
316.48
317.25
303.56
279.68
248.95
216.53
187.99
166.40
153.23
145.08
139.22
135.19
129.69
121.01
110.53
101.36
95.62
94.41
94.98
94.87
93.23
87.98
78.48
66.38
54.77
46.23
42.70
43.23
46.33
50.66
53.85
54.14
51.58
47.82
45.24
46.27
51.60
60.85
72.73
85.07
95.87
104.16
110.01
113.94
116.51
117.69
117.39
115.65
112.93
109.92
107.36
105.88
105.78
107.14
109.76
113.12
116.18
117.35
114.57
105.86
89.87
66.55
37.36
5.02
-27.13
-56.01
-79.37
-96.22
-106.60
-111.24
-111.06
-106.98
-99.93
-91.05
-81.75
-73.43
-67.21
-63.49
-61.80
-61.14
-60.40
-58.96
-56.91
-54.94
-53.81
-53.98
-55.19
-56.76
-57.79
-57.73
-56.60
-54.96
-53.71
-53.60
-55.04
-57.86
-61.51
-65.28
-68.61
-71.22
-73.12
-74.44
-75.31
-75.72
-75.61
-74.96
-73.87
-72.62
-71.46
-70.38
-69.01
-66.71
-62.73
-56.74
-48.95
-40.20
-31.60
-24.14
-18.37
-14.25
-11.36
-9.14
-7.18
-5.27
-3.43
-1.75
-0.39
0.43
0.44
-0.63
-2.90
-6.23
-10.12
-13.86
-16.80
-18.52
-18.99
-18.58
-17.86
-17.47
-17.85
-19.10
-20.77
-21.96
-21.56
-18.69
-13.05
-5.15
3.84
12.49
19.61
24.54
27.12
27.51
25.84
22.18
16.53
9.06
0.15
-9.56
-19.37
-28.70
-37.17
-44.67
-51.35
-57.44
-63.21
-68.88
-74.44
-79.69
-84.15
-87.13
-88.05
-86.59
-82.97
-77.87
-72.15
-66.38
-60.46
-53.50
-44.26
-31.66
-15.39
3.92
24.85
45.70
64.91
81.33
94.18
102.87
107.05
106.58
101.73
93.28
82.37
70.33
58.26
46.80
36.05
25.65
15.12
4.21
-6.79
-17.10
-25.62
-31.46
-34.33
-34.77
-34.05
-33.76
-35.37
-39.75
-46.89
-55.89
-65.04
-72.25
-75.61
-73.92
-67.16
-56.55
-44.18
-32.36
-22.91
-16.74
-13.89
-14.03
-17.03
-23.28
-33.42
-47.89
-66.32
-87.39
-109.27
-130.28
-149.56
-167.36
-184.73
-202.98
-223.19
-246.17
-272.35
-301.65
-332.90
-363.46
-389.21
-405.58
-409.06
-398.69
-376.52
-346.77
-314.18
-282.37
-253.08
-226.39
-201.79
-178.90
-157.86
-138.98
-122.18
-106.87
-92.12
-77.20
-61.88
-46.49
-31.80
-18.54
-7.09
2.63
11.15
19.18
27.39
36.15
45.51
55.23
64.89
74.07
82.47
90.01
96.95
103.77
111.12
119.59
129.52
140.83
152.99
165.24
176.85
187.54
197.64
208.05
219.88
234.00
250.66
269.27
288.84
308.20
326.62
343.96
360.58
377.29
395.35
416.61
443.15
476.18
514.53
553.50
585.25
601.01
594.25
563.28
511.84
447.40
378.24
311.03
250.00
197.62
155.77
126.10
109.21
103.62
105.37
108.96
109.40
104.00
92.91
78.35
63.25
49.76
38.63
29.53
21.56
14.02
6.54
-0.90
-8.35
-15.93
-23.84
-32.05
-40.12
-47.17
-52.17
-54.38
-53.60
-50.19
-44.83
-38.34
-31.70
-26.06
-22.87
-23.56
-28.87
-38.33
-50.00
-60.86
-67.86
-68.92
-63.73
-53.83
-42.11
-31.85
-25.78
-25.29
-30.12
-38.49
-47.84
-55.49
-59.50
-59.03
-54.31
-46.53
-37.48
-29.26
-23.81
-22.38
-25.05
-30.61
-36.89
-41.58
-43.20
-41.54
-37.59
-32.91
-28.91
-26.34
-25.37
-25.86
-27.66
-30.65
-34.66
-39.18
-43.44
-46.57
-48.00
-47.60
-45.83
-43.45
-41.19
-39.52
-38.48
-37.93
-37.66
-37.57
-37.67
-38.04
-38.67
-39.41
-40.04
-40.28
-39.99
-39.13
-37.80
-36.17
-34.38
-32.53
-30.67
-28.82
-27.00
-25.27
-23.64
-22.09
-20.62
-19.22
-17.93
-16.91
-16.43
-16.72
-17.85
-19.62
-21.62
-23.33
-24.39
-24.71
-24.57
-24.46
-24.85
-25.96
-27.68
-29.68
-31.57
-33.10
-34.28
-35.29
-36.38
-37.73
-39.38
-41.32
-43.44
-45.61
-47.71
-49.54
-50.83
-51.17
-50.09
-47.08
-41.79
-34.19
-24.63
-13.95
-3.17
6.61
14.51
19.99
22.90
23.38
21.76
18.47
14.00
8.81
3.36
-2.00
-6.99
-11.45
-15.27
-18.38
-20.79
-22.56
-23.86
-24.91
-26.01
-27.44
-29.41
-31.92
-34.68
-37.17
-38.70
-38.66
-36.81
-33.54
-29.78
-26.78
-25.42
-25.81
-26.93
-26.81
-23.15
-14.07
1.09
21.46
44.81
68.18
88.65
104.08
113.49
117.03
115.75
111.10
104.59
97.48
90.60
84.43
79.12
74.54
70.50
66.66
62.70
58.35
53.48
48.16
42.64
37.29
32.34
27.80
23.48
19.16
14.76
10.48
6.67
3.63
1.46
0.01
-0.99
-1.74
-2.22
-2.30
-1.91
-1.27
-0.82
-1.01
-2.11
-4.03
-6.40
-8.74
-10.65
-11.86
-12.17
-11.40
-9.40
-6.26
-2.45
1.20
3.67
4.18
2.55
-0.74
-4.71
-8.24
-10.51
-11.09
-10.08
-7.93
-5.26
-2.74
-0.94
-0.24
-0.75
-2.36
-4.73
-7.42
-9.97
-11.89
-12.78
-12.38
-10.70
-8.07
-5.20
-2.94
-2.04
-2.86
-5.26
-8.60
-12.04
-14.98
-17.29
-19.39
-22.01
-25.71
-30.51
-35.74
-40.39
-43.56
-45.08
-45.62
-46.28
-48.12
-51.47
-55.75
-59.77
-62.36
-62.96
-61.82
-59.79
-57.85
-56.60
-56.20
-56.57
-57.71
-59.71
-62.29
-64.40
-64.01
-58.71
-46.93
-29.19
-8.39
10.98
24.69
30.64
29.50
24.00
17.13
10.43
3.36
-5.80
-18.29
-33.45
-48.40
-59.34
-63.39
-60.18
-52.22
-43.69
-38.54
-38.63
-42.98
-48.42
-51.22
-48.86
-41.20
-30.54
-20.49
-14.46
-14.39
-20.09
-29.54
-39.81
-48.06
-52.35
-51.84
-46.50
-36.74
-23.15
-6.46
12.30
31.66
49.90
65.35
76.75
83.58
86.08
85.07
81.57
76.50
70.38
63.29
55.06
45.60
35.38
25.69
18.37
15.02
16.09
20.37
25.35
28.30
27.50
23.04
16.48
9.79
4.18
-0.48
-5.31
-11.35
-18.68
-26.09
-31.71
-34.00
-32.52
-27.98
-21.72
-14.98
-8.38
-1.98
4.41
10.75
16.55
20.94
22.94
21.85
17.47
10.21
0.90
-9.31
-19.29
-28.14
-35.32
-40.70
-44.53
-47.23
-49.31
-51.19
-53.18
-55.41
-57.85
-60.34
-62.65
-64.63
-66.30
-67.93
-70.00
-73.01
-77.35
-82.96
-89.17
-94.62
-97.33
-95.22
-86.69
-71.28
-49.85
-24.52
2.01
27.22
49.26
67.19
80.77
90.15
95.68
97.95
97.79
96.23
94.18
91.94
89.03
84.37
76.76
65.59
51.32
35.38
19.85
7.11
-0.90
-3.23
-0.24
6.33
13.58
18.00
16.39
6.86
-9.98
-31.37
-53.14
-71.00
-81.61
-83.20
-75.81
-60.96
-41.11
-18.20
5.83
29.09
49.95
67.41
81.47
92.95
102.97
112.56
124.44
140.15
159.11
178.72
195.61
207.14
212.09
210.53
203.11
195.57
192.54
195.48
202.30
209.42
214.20
215.96
215.67
214.75
222.34
244.75
281.84
326.36
367.95
398.61
415.68
421.88
422.72
434.69
469.75
530.18
608.07
690.88
767.99
833.36
884.44
863.98
741.62
523.22
252.21
-16.89
-245.74
-419.60
-541.06
-616.13
-665.89
-696.53
-710.42
-710.37
-701.63
-689.63
-677.25
-663.25
-646.17
-627.53
-602.70
-570.14
-532.00
-492.85
-456.34
-422.88
-390.60
-358.08
-326.58
-293.21
-256.48
-216.75
-176.13
-137.15
-101.55
-70.19
-43.75
-23.19
-6.22
9.24
23.99
37.18
47.10
52.37
52.52
47.98
39.77
30.50
22.43
16.70
13.03
10.17
6.71
1.68
-5.29
-13.99
-23.71
-33.64
-43.15
-51.96
-59.95
-66.95
-72.50
-75.85
-76.11
-72.63
-65.26
-54.42
-40.96
-25.88
-10.16
5.40
20.03
32.99
43.55
51.21
55.84
57.79
57.75
56.52
54.76
52.81
50.74
48.44
45.65
42.10
37.63
32.24
26.17
19.87
13.85
8.55
4.06
0.11
-3.85
-8.55
-14.61
-22.39
-31.78
-42.11
-52.06
-59.94
-63.99
-62.86
-56.08
-44.18
-28.48
-10.73
7.42
24.73
40.35
53.81
64.79
73.04
78.42
80.94
80.82
78.49
74.53
69.57
64.13
58.56
52.96
47.27
41.39
35.32
29.25
23.42
18.01
12.96
8.02
2.78
-3.10
-9.75
-17.18
-25.28
-33.86
-42.62
-50.86
-57.56
-61.41
-61.23
-56.43
-47.20
-34.59
-20.09
-5.22
8.83
21.39
32.09
40.73
47.03
50.74
51.69
50.03
46.24
41.10
35.43
29.86
24.73
20.02
15.47
10.76
5.66
0.12
-5.75
-11.65
-17.23
-22.20
-26.44
-30.14
-33.74
-37.83
-42.92
-49.14
-56.08
-62.75
-67.75
-69.63
-67.27
-60.20
-48.69
-33.71
-16.69
0.90
17.71
32.72
45.23
54.81
61.26
64.62
65.16
63.38
59.97
55.63
51.00
46.50
42.28
38.22
34.05
29.52
24.52
19.16
13.71
8.47
3.60
-0.92
-5.35
-10.00
-15.17
-21.11
-27.91
-35.49
-43.44
-50.88
-56.58
-59.12
-57.45
-51.14
-40.70
-27.33
-12.54
2.26
16.03
28.09
38.03
45.49
50.24
52.15
51.38
48.37
43.83
38.57
33.38
28.80
25.04
21.95
19.08
15.95
12.28
8.09
3.71
-0.48
-4.21
-7.47
-10.49
-13.64
-17.26
-21.64
-26.96
-33.30
-40.41
-47.66
-53.98
-57.97
-58.29
-54.06
-45.22
-32.54
-17.42
-1.52
13.67
27.02
37.85
45.84
50.93
53.22
52.97
50.59
46.65
41.82
36.75
31.96
27.71
24.00
20.56
17.09
13.36
9.32
5.14
1.05
-2.74
-6.19
-9.39
-12.59
-16.05
-20.06
-24.86
-30.63
-37.39
-44.84
-52.16
-58.06
-61.02
-59.78
-53.78
-43.39
-29.84
-14.84
-0.02
13.37
24.62
33.51
39.98
44.04
45.75
45.25
42.90
39.24
34.90
30.45
26.25
22.44
18.88
15.34
11.57
7.49
3.13
-1.30
-5.58
-9.54
-13.11
-16.39
-19.53
-22.78
-26.40
-30.68
-35.88
-42.06
-48.93
-55.65
-60.94
-63.26
-61.37
-54.66
-43.42
-28.79
-12.37
4.13
19.35
32.33
42.57
49.87
54.26
55.89
55.07
52.24
47.99
42.97
37.78
32.87
28.44
24.42
20.55
16.53
12.13
7.34
2.33
-2.66
-7.44
-11.97
-16.34
-20.70
-25.22
-30.06
-35.33
-41.16
-47.60
-54.46
-61.15
-66.62
-69.48
-68.40
-62.55
-51.98
-37.59
-20.88
-3.54
13.01
27.77
40.19
49.98
57.04
61.33
62.91
62.07
59.27
55.15
50.34
45.35
40.51
35.91
31.45
26.93
22.09
16.78
10.99
4.93
-1.06
-6.64
-11.56
-15.83
-19.68
-23.55
-27.89
-33.14
-39.51
-46.94
-54.99
-62.73
-68.81
-71.73
-70.23
-63.75
-52.63
-38.01
-21.57
-4.91
10.62
24.15
35.18
43.45
48.85
51.46
51.58
49.70
46.44
42.45
38.26
34.27
30.68
27.46
24.43
21.26
17.68
13.53
8.94
4.21
-0.33
-4.45
-8.19
-11.80
-15.65
-20.06
-25.21
-31.19
-38.00
-45.55
-53.49
-61.00
-66.75
-69.06
-66.49
-58.35
-45.14
-28.43
-10.44
6.70
21.52
33.35
42.23
48.46
52.32
53.98
53.55
51.28
47.63
43.18
38.51
34.01
29.81
25.80
21.84
17.81
13.71
9.60
5.56
1.56
-2.47
-6.63
-11.01
-15.61
-20.40
-25.38
-30.61
-36.25
-42.44
-49.16
-56.01
-62.13
-66.19
-66.69
-62.46
-53.13
-39.33
-22.60
-4.91
11.89
26.55
38.43
47.47
53.81
57.72
59.45
59.38
57.96
55.72
53.05
50.22
47.27
44.19
40.94
37.50
33.86
29.98
25.79
21.30
16.60
11.97
7.63
3.68
0.02
-3.59
-7.48
-11.83
-16.75
-22.27
-28.35
-34.85
-41.27
-46.68
-49.78
-49.20
-44.06
-34.29
-20.85
-5.42
10.05
23.94
35.23
43.58
49.07
52.01
52.71
51.40
48.36
43.95
38.63
32.94
27.35
22.15
17.42
13.05
8.85
4.66
0.43
-3.79
-7.91
-11.84
-15.59
-19.27
-22.96
-26.77
-30.72
-34.88
-39.42
-44.56
-50.49
-57.03
-63.48
-68.52
-70.54
-68.20
-60.90
-49.11
-34.20
-18.05
-2.48
11.16
22.12
30.15
35.33
37.83
37.89
35.81
31.97
26.89
21.13
15.29
9.79
4.87
0.51
-3.55
-7.62
-11.91
-16.49
-21.21
-25.85
-30.17
-34.11
-37.68
-41.02
-44.32
-47.81
-51.77
-56.48
-62.08
-68.35
-74.63
-79.72
-82.22
-80.84
-74.87
-64.48
-50.68
-35.06
-19.35
-5.00
7.03
16.32
22.80
26.59
27.89
26.96
24.07
19.59
13.94
7.51
0.65
-6.38
-13.37
-20.08
-26.06
-30.71
-33.43
-33.82
-31.95
-28.43
-24.31
-20.79
-18.83
-18.93
-21.10
-25.01
-30.13
-35.79
-41.18
-45.21
-46.62
-44.23
-37.34
-26.00
-11.17
5.60
22.58
38.32
51.91
63.07
71.92
78.74
83.73
87.03
88.78
89.19
88.58
87.34
85.79
84.17
82.60
81.11
79.67
78.18
76.48
74.30
71.41
67.65
63.09
57.92
52.44
46.82
41.03
34.92
28.24
20.81
12.51
3.34
-6.52
-16.59
-25.99
-33.47
-37.62
-37.31
-32.04
-22.28
-9.34
5.03
19.06
31.47
41.53
49.07
54.17
56.97
57.56
56.06
52.71
47.90
42.19
36.17
30.39
25.17
20.67
16.86
13.57
10.63
7.82
4.97
1.95
-1.33
-4.95
-8.92
-13.18
-17.59
-21.97
-26.23
-30.42
-34.88
-40.05
-46.19
-53.03
-59.56
-64.16
-65.06
-60.92
-51.46
-37.58
-21.15
-4.36
10.87
23.31
32.51
38.52
41.62
42.11
40.35
36.76
31.96
26.66
21.50
16.87
12.91
9.46
6.26
3.08
-0.25
-3.77
-7.49
-11.33
-15.25
-19.15
-22.93
-26.48
-29.75
-32.85
-36.01
-39.66
-44.23
-49.99
-56.74
-63.61
-69.19
-71.78
-69.94
-62.94
-51.03
-35.35
-17.59
0.47
17.32
31.90
43.63
52.21
57.58
59.84
59.32
56.53
52.23
47.23
42.21
37.61
33.51
29.76
26.00
21.92
17.34
12.25
6.77
1.11
-4.55
-10.13
-15.65
-21.23
-26.99
-33.02
-39.34
-45.99
-53.13
-60.97
-69.60
-78.62
-86.97
-92.95
-94.68
-90.71
-80.69
-65.54
-47.26
-28.22
-10.51
4.53
16.37
24.98
30.46
32.97
32.85
30.85
28.26
26.63
27.22
30.54
36.07
42.53
48.48
52.81
54.98
54.85
52.27
47.08
39.22
29.04
17.48
5.81
-4.81
-13.97
-22.03
-29.99
-38.96
-49.64
-62.03
-75.30
-87.90
-97.74
-102.72
-101.30
-93.05
-78.88
-60.74
-41.02
-21.72
-4.10
11.30
24.25
34.44
41.43
44.92
45.11
42.82
39.31
35.77
32.96
30.98
29.50
28.01
26.12
23.75
21.03
18.17
15.29
12.39
9.37
6.08
2.39
-1.86
-6.79
-12.59
-19.37
-27.16
-35.69
-44.29
-51.93
-57.27
-59.01
-56.18
-48.53
-36.59
-21.64
-5.39
10.47
24.61
36.24
45.09
51.28
55.05
56.68
56.40
54.53
51.40
47.50
43.26
39.03
34.96
31.06
27.22
23.36
19.48
15.64
11.91
8.41
5.12
2.02
-0.97
-4.05
-7.46
-11.47
-16.38
-22.41
-29.63
-37.88
-46.57
-54.70
-60.82
-63.40
-61.22
-53.86
-41.86
-26.65
-10.08
6.08
20.52
32.50
41.74
48.20
51.96
53.19
52.19
49.53
45.89
41.97
38.37
35.40
33.14
31.43
30.01
28.54
26.77
24.57
21.93
18.95
15.76
12.44
8.97
5.24
1.11
-3.60
-9.06
-15.46
-22.93
-31.44
-40.68
-49.76
-57.35
-61.80
-61.72
-56.41
-46.24
-32.52
-17.14
-2.00
11.50
22.60
31.07
37.03
40.63
42.05
41.52
39.39
36.16
32.43
28.69
25.28
22.30
19.63
17.05
14.31
11.20
7.68
3.77
-0.44
-4.83
-9.34
-13.95
-18.57
-23.15
-27.70
-32.32
-37.37
-43.26
-50.17
-57.74
-64.86
-69.81
-70.80
-66.61
-57.08
-43.17
-26.65
-9.46
6.79
21.13
33.11
42.63
49.65
54.15
56.22
56.11
54.24
51.14
47.26
42.94
38.34
33.60
28.79
24.03
19.44
15.05
10.75
6.36
1.69
-3.37
-8.74
-14.28
-19.81
-25.24
-30.68
-36.36
-42.57
-49.59
-57.46
-65.83
-73.89
-80.33
-83.57
-82.20
-75.42
-63.37
-47.19
-28.71
-9.95
7.38
22.16
33.92
42.62
48.53
51.94
53.18
52.56
50.40
47.10
43.06
38.72
34.37
30.23
26.35
22.68
19.17
15.74
12.39
9.11
5.80
2.31
-1.54
-5.88
-10.69
-15.82
-21.06
-26.29
-31.64
-37.42
-44.02
-51.58
-59.74
-67.43
-73.03
-74.75
-71.19
-61.87
-47.41
-29.43
-10.01
8.81
25.51
39.29
49.93
57.52
62.27
64.43
64.31
62.35
59.12
55.21
51.09
47.02
43.04
39.06
34.97
30.73
26.36
21.85
17.10
11.95
6.27
0.05
-6.50
-13.02
-19.13
-24.61
-29.45
-33.98
-38.73
-44.35
-51.33
-59.74
-69.06
-78.06
-85.01
-88.12
-86.01
-78.27
-65.58
-49.54
-32.16
-15.31
-0.25
12.40
22.53
30.28
35.84
39.41
41.22
41.56
40.65
38.68
35.76
31.98
27.56
22.92
18.56
14.97
12.34
10.53
9.16
7.66
5.63
2.83
-0.74
-4.92
-9.51
-14.24
-18.94
-23.49
-27.90
-32.41
-37.41
-43.28
-50.06
-57.09
-63.02
-65.95
-64.14
-56.60
-43.60
-26.56
-7.62
11.09
27.97
42.16
53.43
61.89
67.72
71.12
72.33
71.65
69.47
66.21
62.17
57.60
52.65
47.53
42.52
37.92
33.96
30.67
27.80
24.86
21.37
16.97
11.66
5.78
-0.21
-5.86
-11.01
-15.77
-20.57
-25.93
-32.34
-39.96
-48.41
-56.73
-63.36
-66.60
-65.04
-58.07
-46.09
-30.45
-13.00
4.34
20.07
33.26
43.51
50.83
55.43
57.63
57.82
56.43
53.91
50.73
47.31
43.92
40.66
37.51
34.37
31.21
28.10
25.19
22.61
20.38
18.35
16.27
13.93
11.19
8.09
4.75
1.29
-2.28
-6.02
-10.12
-14.79
-20.20
-26.33
-32.82
-38.90
-43.45
-45.24
-43.32
-37.30
-27.51
-14.91
-0.82
13.37
26.46
37.57
46.18
52.02
55.14
55.89
54.77
52.43
49.41
46.05
42.41
38.31
33.56
28.06
21.93
15.57
9.52
4.27
0.15
-2.76
-4.64
-5.76
-6.49
-7.19
-8.19
-9.75
-12.10
-15.32
-19.45
-24.51
-30.47
-37.26
-44.55
-51.63
-57.36
-60.41
-59.60
-54.29
-44.72
-31.88
-17.24
-2.31
11.73
24.11
34.42
42.41
47.91
50.81
51.25
49.66
46.75
43.30
39.93
36.96
34.35
31.80
29.00
25.86
22.45
19.02
15.72
12.53
9.23
5.49
1.06
-4.09
-9.76
-15.63
-21.36
-26.71
-31.60
-36.14
-40.54
-45.12
-50.25
-56.14
-62.71
-69.31
-74.78
-77.60
-76.39
-70.42
-59.95
-46.12
-30.65
-15.23
-1.10
11.07
21.05
28.78
34.24
37.38
38.31
37.38
35.13
32.20
29.13
26.21
23.46
20.74
17.92
14.94
11.88
8.88
6.00
3.20
0.27
-3.04
-6.89
-11.27
-15.99
-20.75
-25.26
-29.33
-32.96
-36.31
-39.67
-43.46
-48.08
-53.70
-59.95
-65.83
-69.84
-70.36
-66.25
-57.31
-44.40
-29.17
-13.53
0.96
13.34
23.29
30.91
36.36
39.78
41.28
41.09
39.61
37.38
34.90
32.49
30.19
27.86
25.34
22.61
19.82
17.21
14.92
12.95
11.03
8.79
5.89
2.17
-2.24
-6.98
-11.63
-15.83
-19.49
-22.81
-26.22
-30.21
-35.07
-40.72
-46.56
-51.59
-54.53
-54.24
-49.95
-41.57
-29.77
-15.83
-1.35
12.20
23.75
32.79
39.26
43.42
45.59
46.11
45.29
43.53
41.19
38.60
35.95
33.24
30.31
27.03
23.41
19.64
16.05
12.89
10.20
7.78
5.28
2.35
-1.17
-5.24
-9.63
-14.07
-18.34
-22.38
-26.28
-30.26
-34.64
-39.67
-45.46
-51.72
-57.71
-62.26
-64.11
-62.19
-56.11
-46.24
-33.72
-20.03
-6.62
5.42
15.47
23.27
28.84
32.25
33.67
33.36
31.73
29.31
26.61
24.02
21.69
19.58
17.52
15.42
13.32
11.40
9.84
8.60
7.40
5.75
3.21
-0.43
-4.98
-9.89
-14.52
-18.44
-21.53
-24.14
-26.81
-30.17
-34.69
-40.52
-47.35
-54.44
-60.58
-64.33
-64.40
-60.01
-51.18
-38.85
-24.53
-9.90
3.62
15.19
24.56
31.86
37.38
41.29
43.69
44.57
44.02
42.24
39.56
36.31
32.75
29.03
25.22
21.35
17.59
14.11
11.10
8.52
6.19
3.67
0.49
-3.60
-8.60
-14.18
-19.87
-25.28
-30.28
-34.94
-39.51
-44.29
-49.44
-55.05
-60.93
-66.61
-71.25
-73.71
-72.84
-67.88
-58.75
-46.20
-31.58
-16.47
-2.16
10.53
21.28
30.06
36.90
41.82
44.84
46.04
45.67
44.10
41.76
39.02
36.09
33.08
29.99
26.85
23.74
20.80
18.11
15.58
12.94
9.79
5.80
0.89
-4.72
-10.53
-16.04
-20.92
-25.19
-29.17
-33.37
-38.27
-44.11
-50.69
-57.30
-62.76
-65.61
-64.49
-58.63
-48.08
-33.86
-17.50
-0.71
15.20
29.40
41.61
51.66
59.47
64.93
68.02
68.96
68.22
66.35
63.78
60.71
57.06
52.74
47.79
42.50
37.33
32.76
29.00
25.86
22.86
19.38
15.00
9.67
3.73
-2.24
-7.73
-12.54
-16.80
-20.94
-25.46
-30.80
-37.22
-44.65
-52.59
-60.07
-65.70
-67.90
-65.41
-57.66
-45.05
-28.90
-10.96
7.02
23.75
38.40
50.55
59.95
66.43
69.95
70.74
69.30
66.37
62.60
58.45
54.06
49.45
44.58
39.58
34.75
30.37
26.57
23.19
19.87
16.14
11.64
6.21
-0.03
-6.80
-13.73
-20.45
-26.70
-32.35
-37.51
-42.51
-47.86
-54.01
-61.18
-69.04
-76.60
-82.33
-84.52
-81.80
-73.63
-60.46
-43.62
-24.87
-6.00
11.62
27.12
39.99
50.02
57.06
61.11
62.40
61.41
58.85
55.43
51.70
47.87
43.95
39.77
35.24
30.47
25.68
21.16
17.14
13.60
10.30
6.84
2.77
-2.17
-7.98
-14.34
-20.78
-26.85
-32.39
-37.58
-42.87
-48.79
-55.73
-63.72
-72.24
-80.28
-86.32
-88.73
-86.16
-78.01
-64.61
-47.25
-27.80
-8.16
10.16
26.21
39.56
50.08
57.79
62.77
65.18
65.37
63.79
60.98
57.40
53.37
49.05
44.53
39.84
35.15
30.66
26.58
23.03
19.95
17.03
13.77
9.67
4.39
-2.02
-9.18
-16.49
-23.38
-29.54
-35.06
-40.37
-46.01
-52.51
-60.05
-68.46
-77.08
-84.77
-90.06
-91.39
-87.58
-78.23
-63.94
-46.18
-26.89
-7.92
9.41
24.35
36.65
46.20
52.97
56.94
58.26
57.34
54.87
51.64
48.34
45.39
42.86
40.64
38.49
36.24
33.83
31.22
28.43
25.26
21.45
16.63
10.55
3.18
-5.22
-14.14
-23.03
-31.43
-39.18
-46.51
-53.92
-62.11
-71.58
-82.28
-93.37
-103.14
-109.38
-110.04
-104.00
-91.40
-73.69
-53.01
-31.45
-10.50
9.07
26.96
42.95
56.60
67.40
75.05
79.68
81.97
82.91
83.38
83.92
84.57
84.99
84.74
83.51
81.30
78.36
75.13
72.00
69.14
66.43
63.46
59.66
54.54
47.81
39.45
29.65
18.73
7.09
-4.87
-16.68
-27.84
-37.89
-46.59
-53.97
-60.18
-65.24
-68.77
-69.91
-67.66
-61.35
-51.02
-37.59
-22.51
-7.33
6.80
19.24
29.76
38.33
44.84
49.14
51.11
50.85
48.77
45.46
41.55
37.56
33.67
29.87
25.97
21.80
17.41
12.95
8.67
4.70
1.01
-2.58
-6.33
-10.41
-14.86
-19.48
-23.99
-28.03
-31.27
-33.55
-34.94
-35.78
-36.68
-38.35
-41.33
-45.70
-50.90
-55.72
-58.63
-58.17
-53.42
-44.25
-31.42
-16.18
0.02
15.81
30.17
42.33
51.84
58.43
62.09
63.10
61.97
59.34
55.80
51.81
47.56
43.12
38.46
33.65
28.83
24.25
20.13
16.52
13.29
10.10
6.58
2.40
-2.55
-8.15
-14.03
-19.82
-25.27
-30.35
-35.30
-40.56
-46.54
-53.42
-60.98
-68.45
-74.63
-78.09
-77.50
-72.08
-61.71
-47.07
-29.37
-10.11
9.31
27.83
44.70
59.46
71.71
81.13
87.49
90.82
91.55
90.53
88.94
88.00
88.61
91.03
94.74
98.53
100.97
100.87
97.74
91.90
84.23
75.75
67.20
58.99
51.28
44.20
38.05
33.17
29.73
27.58
26.18
24.73
22.48
18.91
13.97
8.11
2.31
-2.04
-3.56
-1.20
5.23
14.95
26.40
37.72
47.38
54.53
59.11
61.57
62.49
62.17
60.63
57.66
53.18
47.44
41.09
34.98
29.81
25.83
22.74
19.82
16.31
11.81
6.50
0.99
-3.96
-7.90
-10.87
-13.42
-16.34
-20.24
-25.33
-31.28
-37.46
-43.18
-48.00
-51.79
-54.71
-57.14
-59.48
-62.06
-65.03
-68.27
-71.36
-73.53
-73.93
-71.81
-66.90
-59.45
-50.29
-40.52
-31.31
-23.65
-18.14
-14.91
-13.55
-13.18
-12.76
-11.36
-8.55
-4.52
-0.04
3.88
6.36
6.92
5.53
2.56
-1.41
-5.76
-9.92
-13.44
-16.02
-17.63
-18.47
-19.03
-19.92
-21.67
-24.48
-28.04
-31.66
-34.42
-35.62
-35.12
-33.38
-31.34
-30.01
-30.06
-31.55
-33.93
-36.23
-37.42
-36.75
-33.85
-28.77
-21.81
-13.52
-4.69
3.50
9.53
11.80
9.17
1.62
-9.58
-22.06
-33.27
-41.28
-45.43
-46.23
-44.89
-42.61
-40.19
-37.96
-36.02
-34.53
-33.76
-33.98
-35.19
-37.00
-38.74
-39.68
-39.28
-37.38
-34.34
-30.85
-27.81
-25.97
-25.71
-26.81
-28.56
-29.93
-29.98
-28.21
-24.68
-20.05
-15.28
-11.38
-9.03
-8.45
-9.32
-10.93
-12.44
-13.00
-12.01
-9.16
-4.53
1.40
7.75
13.51
17.76
20.09
20.68
20.29
19.82
19.95
20.80
21.91
22.50
21.94
19.98
16.91
13.33
9.91
7.03
4.73
2.78
0.90
-1.06
-3.03
-4.81
-6.26
-7.40
-8.43
-9.60
-11.03
-12.57
-13.88
-14.58
-14.47
-13.59
-12.24
-10.75
-9.36
-8.12
-6.88
-5.45
-3.74
-1.89
-0.17
1.07
1.64
1.59
1.23
1.00
1.18
1.77
2.48
2.84
2.46
1.31
-0.28
-1.74
-2.61
-2.66
-2.13
-1.48
-1.25
-1.71
-2.82
-4.30
-5.85
-7.34
-8.87
-10.67
-12.85
-15.25
-17.45
-18.90
-19.21
-18.35
-16.64
-14.61
-12.69
-11.05
-9.58
-8.07
-6.45
-4.80
-3.37
-2.33
-1.65
-1.10
-0.43
0.43
1.30
1.86
1.78
0.94
-0.53
-2.36
-4.19
-5.69
-6.64
-6.94
-6.64
-5.97
-5.25
-4.78
-4.72
-5.04
-5.60
-6.23
-6.86
-7.53
-8.28
-9.10
-9.91
-10.73
-11.61
-12.66
-13.94
-15.29
-16.42
-16.98
-16.77
-15.86
-14.50
-12.95
-11.34
-9.62
-7.67
-5.45
-3.09
-0.81
1.21
2.94
4.56
6.19
7.79
9.11
9.83
9.69
8.73
7.31
5.91
4.91
4.44
4.34
4.33
4.17
3.76
3.11
2.32
1.40
0.34
-0.86
-2.15
-3.38
-4.41
-5.15
-5.65
-6.09
-6.70
-7.65
-8.95
-10.46
-11.91
-13.03
-13.62
-13.61
-13.01
-11.88
-10.29
-8.23
-5.79
-3.08
-0.34
2.13
4.05
5.35
6.14
6.70
7.35
8.22
9.24
10.11
10.47
10.15
9.20
7.89
6.61
5.60
4.94
4.48
4.05
3.49
2.80
2.00
1.17
0.31
-0.60
-1.58
-2.60
-3.59
-4.47
-5.24
-5.90
-6.54
-7.20
-7.89
-8.54
-9.02
-9.23
-9.10
-8.61
-7.79
-6.70
-5.36
-3.78
-1.96
0.05
2.15
4.17
5.97
7.48
8.74
9.85
10.88
11.82
12.56
12.98
13.06
12.87
12.56
12.24
11.94
11.59
11.05
10.23
9.10
7.69
6.02
4.15
2.15
0.14
-1.68
-3.14
-4.11
-4.66
-4.98
-5.36
-6.03
-7.10
-8.54
-10.23
-12.04
-13.87
-15.58
-16.99
-17.89
-18.09
-17.51
-16.24
-14.47
-12.39
-10.11
-7.66
-5.05
-2.36
0.24
2.59
4.56
6.11
7.29
8.09
8.52
8.53
8.12
7.40
6.53
5.66
4.86
4.16
3.52
2.95
2.50
2.17
1.92
1.62
1.13
0.38
-0.65
-1.89
-3.31
-4.90
-6.66
-8.58
-10.50
-12.24
-13.67
-14.75
-15.61
-16.41
-17.18
-17.79
-17.90
-17.13
-15.30
-12.43
-8.82
-4.91
-1.07
2.46
5.57
8.33
10.76
12.85
14.55
15.74
16.37
16.45
16.07
15.38
14.55
13.72
12.95
12.24
11.52
10.67
9.59
8.22
6.60
4.89
3.29
1.90
0.77
-0.25
-1.32
-2.56
-3.97
-5.45
-6.90
-8.31
-9.84
-11.66
-13.95
-16.65
-19.47
-21.91
-23.43
-23.63
-22.38
-19.80
-16.26
-12.19
-7.88
-3.50
0.88
5.19
9.24
12.74
15.45
17.32
18.50
19.30
19.99
20.65
21.13
21.29
20.96
20.22
19.25
18.24
17.26
16.26
15.14
13.85
12.41
10.81
9.03
7.02
4.74
2.28
-0.18
-2.41
-4.26
-5.71
-6.93
-8.12
-9.50
-11.24
-13.39
-15.85
-18.31
-20.26
-21.10
-20.43
-18.11
-14.51
-10.25
-6.03
-2.34
0.66
3.03
5.00
6.73
8.31
9.72
10.91
11.86
12.54
12.93
12.98
12.68
12.07
11.19
10.12
8.98
7.86
6.86
6.05
5.44
5.02
4.71
4.42
3.98
3.27
2.19
0.71
-1.13
-3.25
-5.49
-7.72
-9.92
-12.13
-14.56
-17.35
-20.54
-23.92
-27.03
-29.24
-29.98
-28.90
-26.02
-21.66
-16.36
-10.68
-5.06
0.23
5.05
9.24
12.70
15.29
17.00
17.89
18.19
18.17
18.04
17.86
17.55
17.00
16.13
14.98
13.72
12.55
11.58
10.82
10.18
9.48
8.58
7.34
5.72
3.76
1.53
-0.88
-3.43
-6.08
-8.80
-11.62
-14.52
-17.54
-20.77
-24.29
-28.07
-31.95
-35.46
-37.98
-38.80
-37.41
-33.67
-27.81
-20.40
-12.10
-3.57
4.65
12.15
18.59
23.77
27.59
30.12
31.58
32.24
32.34
32.04
31.40
30.53
29.51
28.42
27.28
25.98
24.34
22.23
19.71
17.02
14.51
12.43
10.74
9.16
7.29
4.86
1.89
-1.28
-4.23
-6.69
-8.71
-10.60
-12.82
-15.68
-19.21
-23.25
-27.47
-31.59
-35.29
-38.21
-39.84
-39.60
-37.01
-31.98
-24.84
-16.27
-7.13
1.84
10.08
17.26
23.17
27.70
30.75
32.43
32.99
32.86
32.47
32.13
31.94
31.80
31.54
30.99
30.04
28.66
26.84
24.64
22.20
19.67
17.24
15.02
12.96
10.94
8.77
6.31
3.49
0.40
-2.85
-6.10
-9.22
-12.13
-14.90
-17.67
-20.68
-24.14
-28.05
-32.14
-35.79
-38.26
-38.85
-37.15
-33.12
-27.09
-19.69
-11.63
-3.63
3.76
10.18
15.44
19.48
22.34
24.11
24.95
25.11
24.88
24.55
24.35
24.33
24.39
24.25
23.61
22.33
20.51
18.42
16.40
14.67
13.15
11.63
9.81
7.52
4.78
1.77
-1.28
-4.22
-6.97
-9.53
-11.93
-14.20
-16.44
-18.87
-21.70
-25.11
-29.01
-33.02
-36.51
-38.74
-39.04
-36.99
-32.56
-26.16
-18.48
-10.37
-2.63
4.15
9.68
13.95
17.08
19.30
20.82
21.78
22.31
22.53
22.55
22.51
22.39
22.19
21.77
21.04
19.99
18.68
17.30
15.99
14.85
13.87
12.91
11.80
10.37
8.46
5.97
2.87
-0.76
-4.72
-8.74
-12.60
-16.19
-19.62
-23.14
-26.97
-31.25
-35.83
-40.29
-43.97
-46.13
-46.11
-43.50
-38.23
-30.60
-21.18
-10.76
-0.17
9.80
18.55
25.68
31.06
34.75
36.95
37.96
38.10
37.66
36.92
36.11
35.38
34.75
34.13
33.39
32.38
31.07
29.50
27.71
25.73
23.54
21.09
18.33
15.26
11.94
8.45
4.91
1.45
-1.75
-4.63
-7.21
-9.71
-12.44
-15.67
-19.48
-23.71
-27.98
-31.88
-35.02
-37.06
-37.74
-36.72
-33.77
-28.87
-22.35
-14.88
-7.31
-0.43
5.32
9.81
13.17
15.55
17.09
17.86
18.04
17.86
17.61
17.53
17.62
17.70
17.49
16.83
15.80
14.61
13.56
12.75
12.11
11.33
10.15
8.41
6.16
3.61
0.92
-1.88
-4.89
-8.19
-11.81
-15.59
-19.32
-22.84
-26.23
-29.70
-33.54
-37.85
-42.45
-46.91
-50.60
-52.83
-53.10
-51.05
-46.60
-39.90
-31.39
-21.72
-11.71
-2.18
6.17
12.95
18.10
21.85
24.50
26.35
27.60
28.34
28.63
28.57
28.28
27.91
27.52
27.02
26.16
24.65
22.29
19.11
15.31
11.23
7.16
3.27
-0.49
-4.25
-8.09
-11.97
-15.70
-19.13
-22.24
-25.20
-28.31
-31.89
-36.15
-41.22
-47.20
-54.17
-62.06
-70.37
-77.91
-82.95
-83.56
-78.23
-66.55
-49.37
-28.61
-6.62
14.45
33.07
48.41
60.21
68.47
73.35
75.11
74.25
71.47
67.65
63.63
60.00
56.97
54.31
51.54
48.13
43.81
38.69
33.24
28.04
23.47
19.50
15.67
11.34
6.02
-0.39
-7.54
-14.83
-21.68
-27.73
-32.96
-37.66
-42.32
-47.48
-53.65
-61.14
-69.86
-79.03
-87.17
-92.18
-91.94
-85.00
-71.20
-51.77
-29.05
-5.73
15.89
34.33
48.99
59.81
66.97
70.76
71.53
69.91
66.81
63.20
59.89
57.18
54.85
52.33
49.09
44.84
39.69
34.11
28.61
23.63
19.26
15.24
11.05
6.17
0.27
-6.56
-13.94
-21.25
-27.94
-33.73
-38.70
-43.31
-48.22
-54.12
-61.54
-70.46
-80.14
-88.97
-94.70
-95.03
-88.45
-74.78
-55.38
-32.69
-9.36
12.46
31.52
47.31
59.70
68.56
73.71
75.19
73.50
69.72
65.20
61.12
58.01
55.69
53.40
50.29
45.84
40.11
33.70
27.42
21.94
17.43
13.48
9.35
4.34
-1.87
-9.07
-16.64
-23.87
-30.29
-35.82
-40.86
-45.98
-51.85
-59.04
-67.91
-78.38
-89.64
-99.99
-106.96
-107.93
-100.99
-85.77
-63.70
-37.60
-10.75
14.13
35.39
52.58
65.85
75.54
81.78
84.64
84.34
81.53
77.24
72.62
68.47
64.98
61.71
57.86
52.79
46.38
39.12
31.94
25.67
20.63
16.43
12.17
6.79
-0.30
-9.04
-18.70
-28.26
-36.86
-44.11
-50.21
-55.78
-61.60
-68.50
-77.08
-87.61
-99.61
-111.63
-121.21
-125.35
-121.41
-108.09
-86.06
-57.80
-26.82
3.45
30.60
53.44
71.83
85.98
96.16
102.48
105.18
104.76
102.07
98.14
93.85
89.68
85.66
81.42
76.57
70.88
64.50
57.84
51.45
45.75
40.83
36.41
31.87
26.52
19.88
11.79
2.62
-6.88
-15.85
-23.60
-29.95
-35.26
-40.37
-46.28
-53.84
-63.46
-74.84
-86.77
-97.22
-103.59
-103.40
-95.08
-78.57
-55.55
-28.86
-1.66
23.42
44.83
61.93
74.65
83.06
87.31
87.68
84.93
80.22
74.87
69.91
65.76
62.14
58.36
53.74
47.94
41.16
33.95
26.99
20.77
15.39
10.56
5.79
0.53
-5.56
-12.49
-20.03
-27.73
-35.11
-41.84
-47.82
-53.33
-58.99
-65.61
-73.98
-84.49
-96.66
-108.88
-118.58
-122.83
-119.20
-106.66
-86.00
-59.60
-30.71
-2.45
22.86
44.02
60.66
72.88
80.92
85.03
85.62
83.45
79.61
75.25
71.26
67.90
64.86
61.47
57.04
51.30
44.60
37.71
31.48
26.37
22.18
18.15
13.22
6.62
-1.78
-11.38
-21.14
-30.05
-37.63
-44.13
-50.42
-57.55
-66.45
-77.52
-90.44
-104.07
-116.37
-124.70
-126.37
-119.41
-103.36
-79.59
-50.93
-20.81
7.75
32.89
53.87
70.70
83.53
92.39
97.22
98.32
96.46
92.92
89.01
85.58
82.79
80.07
76.58
71.67
65.28
57.96
50.62
44.07
38.64
33.94
29.07
23.00
15.10
5.46
-5.17
-15.67
-25.05
-32.91
-39.50
-45.62
-52.23
-60.18
-70.00
-81.67
-94.43
-106.61
-115.75
-119.03
-114.12
-100.10
-77.92
-50.24
-20.54
7.91
32.96
53.68
70.00
82.10
90.04
93.83
93.68
90.38
85.21
79.54
74.38
69.98
65.87
61.21
55.40
48.39
40.79
33.52
27.33
22.36
18.01
13.22
6.97
-1.22
-11.05
-21.64
-31.89
-40.99
-48.73
-55.49
-62.02
-69.14
-77.53
-87.57
-99.10
-111.27
-122.29
-129.62
-130.48
-122.72
-105.70
-80.73
-50.72
-19.33
10.14
35.52
55.94
71.45
82.41
89.22
92.29
92.27
90.18
87.31
84.72
82.83
81.30
79.25
75.77
70.45
63.58
56.01
48.74
42.45
37.18
32.39
27.18
20.67
12.43
2.58
-8.18
-18.89
-28.67
-37.07
-44.21
-50.75
-57.74
-66.21
-76.90
-89.72
-103.52
-116.00
-124.13
-124.98
-116.71
-99.24
-74.32
-45.01
-14.64
14.04
39.31
60.33
76.84
88.71
95.97
98.89
98.20
95.02
90.60
85.92
81.45
77.13
72.51
67.10
60.64
53.29
45.54
38.08
31.44
25.78
20.76
15.62
9.57
2.08
-6.82
-16.55
-26.20
-35.01
-42.66
-49.42
-56.10
-63.69
-73.11
-84.77
-98.23
-111.93
-123.35
-129.48
-127.68
-116.57
-96.59
-69.86
-39.52
-8.75
20.10
45.65
67.34
84.93
98.10
106.52
110.07
109.26
105.25
99.60
93.75
88.48
83.82
79.16
73.73
67.16
59.69
52.06
45.10
39.25
34.33
29.52
23.84
16.60
7.72
-2.18
-12.15
-21.31
-29.19
-35.88
-41.89
-47.88
-54.47
-62.12
-71.09
-81.24
-91.81
-101.21
-107.18
-107.26
-99.74
-84.32
-62.40
-36.72
-10.45
13.71
34.07
49.99
61.50
68.93
72.63
73.04
70.82
66.89
62.14
57.27
52.47
47.52
42.05
35.78
28.81
21.65
14.93
9.19
4.48
0.39
-3.88
-9.13
-15.86
-23.99
-32.94
-41.87
-50.04
-57.13
-63.37
-69.44
-76.30
-84.85
-95.52
-107.89
-120.43
-130.54
-135.12
-131.51
-118.45
-96.65
-68.64
-37.94
-7.93
19.03
41.88
60.46
74.90
85.29
91.60
93.99
93.06
89.88
85.60
81.17
76.94
72.72
68.03
62.52
56.17
49.41
42.85
36.94
31.68
26.55
20.71
13.40
4.34
-6.10
-17.01
-27.34
-36.35
-43.89
-50.50
-57.10
-64.73
-74.21
-85.79
-98.88
-111.95
-122.55
-127.82
-125.24
-113.50
-93.09
-66.18
-35.98
-5.72
22.11
46.14
65.91
81.39
92.61
99.64
102.63
102.14
99.09
94.55
89.48
84.37
79.29
73.97
68.10
61.55
54.48
47.30
40.44
34.26
28.75
23.49
17.80
10.93
2.50
-7.34
-17.83
-27.96
-36.85
-44.21
-50.47
-56.60
-63.74
-72.81
-84.11
-97.13
-110.42
-121.67
-128.11
-127.16
-117.28
-98.56
-72.84
-43.16
-12.83
15.53
40.46
61.45
78.49
91.49
100.25
104.63
104.96
102.25
97.91
93.34
89.38
86.07
82.82
78.84
73.60
67.12
59.98
52.94
46.62
41.18
36.23
31.04
24.80
17.02
7.66
-2.77
-13.50
-23.69
-32.76
-40.59
-47.45
-53.99
-60.99
-69.18
-79.02
-90.35
-102.18
-112.59
-118.93
-118.58
-109.83
-92.56
-68.49
-40.64
-12.41
13.42
35.27
52.65
65.74
74.85
80.24
82.12
80.90
77.34
72.45
67.19
62.21
57.68
53.35
48.78
43.58
37.71
31.46
25.42
20.11
15.78
12.18
8.55
3.95
-2.32
-10.39
-19.72
-29.35
-38.30
-45.96
-52.33
-57.94
-63.55
-69.87
-77.44
-86.46
-96.69
-107.27
-116.59
-122.39
-122.23
-114.29
-98.15
-75.09
-47.76
-19.31
7.51
31.01
50.58
66.24
78.15
86.32
90.70
91.49
89.30
85.22
80.45
75.92
72.00
68.41
64.55
59.84
54.10
47.64
41.12
35.22
30.24
25.95
21.65
16.47
9.79
1.55
-7.77
-17.29
-26.18
-33.89
-40.43
-46.19
-51.87
-58.19
-65.78
-75.01
-85.80
-97.35
-107.95
-115.16
-116.34
-109.53
-94.26
-71.86
-45.06
-17.12
9.16
32.08
51.05
66.15
77.63
85.55
89.89
90.83
88.97
85.32
80.96
76.67
72.66
68.55
63.76
57.84
50.80
43.19
35.76
29.25
23.93
19.60
15.63
11.22
5.74
-1.00
-8.73
-16.82
-24.53
-31.33
-37.13
-42.25
-47.28
-52.93
-59.76
-68.07
-77.66
-87.67
-96.49
-101.95
-101.86
-94.70
-80.28
-59.94
-36.09
-11.58
11.22
30.77
46.46
58.20
66.15
70.50
71.55
69.87
66.25
61.68
56.92
52.40
48.07
43.58
38.51
32.70
26.36
20.00
14.17
9.17
4.88
0.73
-4.01
-9.87
-16.95
-24.84
-32.79
-40.05
-46.19
-51.26
-55.79
-60.57
-66.41
-73.90
-83.13
-93.41
-103.20
-110.26
-112.09
-106.78
-93.64
-73.63
-49.03
-22.79
2.39
24.66
43.13
57.64
68.35
75.42
79.03
79.54
77.60
74.11
69.91
65.52
61.06
56.28
50.84
44.59
37.75
30.79
24.21
18.26
12.72
7.02
0.51
-7.19
-15.97
-25.28
-34.37
-42.63
-49.90
-56.46
-62.94
-70.14
-78.75
-89.11
-100.99
-113.31
-124.15
-131.04
-131.58
-124.28
-109.19
-88.01
-63.52
-38.80
-16.33
2.43
16.89
26.98
32.76
34.34
31.95
26.13
17.84
8.16
-2.05
-12.37
-23.04
-34.71
-48.14
-63.87
-81.89
-101.62
-121.99
-141.78
-159.81
-175.11
-186.92
-194.66
-197.97
-196.74
-191.34
-182.64
-171.96
-160.84
-150.73
-142.71
-137.15
-133.66
-130.97
-127.23
-120.39
-108.77
-91.43
-68.42
-40.48
-8.83
25.11
59.77
93.45
124.42
151.22
173.00
189.70
201.94
210.64
216.47
219.66
220.07
217.58
212.36
205.04
196.50
187.59
178.88
170.49
162.15
153.40
143.76
133.01
121.13
108.35
94.91
80.99
66.66
52.00
37.20
22.58
8.45
-5.06
-18.13
-31.00
-43.53
-54.71
-62.51
-64.40
-58.28
-43.49
-21.30
5.40
32.97
58.17
78.93
94.50
105.02
110.94
112.60
110.26
104.28
95.32
84.22
71.75
58.26
43.63
27.59
10.17
-7.85
-24.96
-39.38
-49.81
-55.92
-58.44
-58.75
-58.15
-57.42
-56.71
-55.80
-54.58
-53.21
-52.19
-52.06
-53.21
-55.69
-59.21
-63.09
-66.28
-67.34
-64.67
-56.82
-43.13
-24.03
-1.10
23.39
47.25
69.08
88.52
105.96
121.88
136.30
148.53
157.59
162.70
163.78
161.37
156.33
149.37
140.82
130.80
119.56
107.67
95.95
85.10
75.33
66.27
57.11
47.06
35.72
23.15
9.76
-4.00
-17.92
-32.06
-46.74
-62.27
-78.86
-96.32
-113.96
-130.45
-143.95
-152.31
-153.63
-146.79
-131.89
-110.26
-84.13
-56.08
-28.39
-2.74
19.86
38.87
54.02
65.21
72.49
76.18
76.83
75.22
72.12
68.15
63.67
58.80
53.61
48.17
42.64
37.14
31.73
26.25
20.39
13.75
6.06
-2.68
-12.22
-22.03
-31.60
-40.54
-48.83
-56.80
-65.14
-74.62
-85.80
-98.50
-111.59
-122.98
-129.98
-130.08
-121.73
-104.90
-81.14
-53.05
-23.54
4.97
30.96
53.72
73.08
88.98
101.37
110.26
115.96
119.09
120.52
121.01
120.98
120.44
119.08
116.59
112.89
108.13
102.64
96.66
90.23
83.11
74.93
65.28
53.97
41.09
27.12
12.79
-1.11
-14.05
-25.93
-37.18
-48.62
-61.11
-75.15
-90.51
-106.06
-119.89
-129.66
-133.22
-129.19
-117.35
-98.80
-75.64
-50.45
-25.61
-2.88
16.78
32.98
45.62
54.62
59.88
61.47
59.76
55.53
49.70
43.14
36.34
29.43
22.36
15.16
8.13
1.75
-3.53
-7.65
-11.10
-14.78
-19.70
-26.44
-34.96
-44.56
-54.22
-63.02
-70.49
-76.86
-82.89
-89.63
-98.00
-108.36
-120.19
-131.99
-141.43
-145.89
-143.23
-132.43
-114.01
-89.87
-62.71
-35.15
-9.16
14.19
34.51
51.71
65.63
75.96
82.50
85.37
85.19
82.92
79.50
75.60
71.34
66.58
61.17
55.18
49.08
43.43
38.56
34.31
30.01
24.78
17.92
9.33
-0.51
-10.73
-20.45
-29.21
-37.08
-44.59
-52.49
-61.44
-71.75
-83.26
-95.22
-106.23
-114.39
-117.62
-114.23
-103.47
-85.89
-63.24
-38.03
-12.76
10.65
31.11
48.24
61.99
72.40
79.45
83.28
84.30
83.24
80.92
77.94
74.50
70.41
65.32
59.07
51.93
44.54
37.61
31.64
26.63
22.04
17.12
11.14
3.80
-4.77
-13.98
-23.12
-31.59
-39.16
-46.03
-52.79
-60.23
-69.06
-79.58
-91.34
-103.08
-112.78
-118.13
-117.19
-109.00
-93.90
-73.41
-49.77
-25.19
-1.44
20.34
39.49
55.50
67.94
76.48
81.13
82.44
81.32
78.80
75.63
72.05
67.84
62.61
56.18
48.89
41.55
35.16
30.48
27.63
26.09
24.77
22.52
18.51
12.54
4.99
-3.31
-11.52
-19.07
-25.86
-32.22
-38.75
-46.15
-54.96
-65.35
-76.84
-88.21
-97.48
-102.36
-100.83
-91.87
-75.89
-54.67
-30.79
-6.81
15.39
34.83
51.21
64.48
74.53
81.12
84.25
84.28
82.09
78.78
75.26
71.94
68.67
64.93
60.28
54.65
48.45
42.36
36.99
32.47
28.38
23.87
18.02
10.27
0.71
-10.00
-20.81
-30.85
-39.66
-47.35
-54.50
-61.91
-70.32
-80.20
-91.54
-103.61
-114.96
-123.48
-126.86
-123.22
-111.85
-93.48
-70.18
-44.74
-19.81
2.67
21.70
37.05
48.72
56.75
61.15
62.13
60.27
56.57
52.21
48.11
44.73
41.85
38.87
35.23
30.69
25.51
20.26
15.53
11.50
7.91
4.09
-0.72
-6.98
-14.67
-23.25
-31.97
-40.20
-47.64
-54.46
-61.18
-68.48
-76.94
-86.83
-97.84
-108.94
-118.34
-123.81
-123.18
-115.02
-99.25
-77.21
-51.30
-24.36
1.20
23.77
42.57
57.48
68.62
76.17
80.40
81.73
80.80
78.44
75.43
72.27
69.03
65.45
61.11
55.77
49.56
43.01
36.79
31.42
26.91
22.75
18.09
12.09
4.38
-4.83
-14.81
-24.59
-33.41
-40.99
-47.59
-53.93
-60.90
-69.27
-79.36
-90.72
-102.04
-111.23
-115.89
-113.92
-104.21
-87.03
-63.92
-37.24
-9.55
17.00
40.93
61.37
77.85
90.11
98.08
101.95
102.29
100.01
96.20
91.81
87.44
83.19
78.76
73.70
67.74
60.93
53.71
46.69
40.32
34.70
29.45
23.87
17.28
9.30
0.01
-10.06
-20.18
-29.64
-38.08
-45.54
-52.54
-59.84
-68.25
-78.34
-90.02
-102.37
-113.53
-121.07
-122.56
-116.40
-102.32
-81.52
-56.29
-29.31
-3.03
20.84
41.34
58.01
70.69
79.36
84.20
85.65
84.51
81.67
77.96
73.87
69.47
64.59
59.01
52.78
46.26
40.02
34.64
30.27
26.60
22.83
18.00
11.34
2.67
-7.60
-18.56
-29.15
-38.56
-46.56
-53.54
-60.33
-67.86
-76.89
-87.69
-99.85
-112.19
-122.80
-129.33
-129.49
-121.76
-105.86
-82.99
-55.47
-26.14
2.39
28.23
50.34
68.35
82.16
91.81
97.41
99.23
97.82
94.02
88.71
82.64
76.30
69.79
63.07
56.15
49.20
42.56
36.59
31.37
26.59
21.60
15.65
8.20
-0.88
-11.23
-22.15
-32.83
-42.68
-51.43
-59.26
-66.70
-74.53
-83.58
-94.32
-106.58
-119.14
-129.85
-135.94
-134.81
-124.88
-106.14
-80.26
-50.00
-18.49
11.64
38.59
61.47
79.97
94.01
103.70
109.25
111.18
110.30
107.57
103.81
99.47
94.53
88.71
81.78
73.85
65.50
57.51
50.53
44.70
39.56
34.20
27.69
19.57
9.90
-0.63
-11.18
-21.07
-30.03
-38.31
-46.49
-55.42
-65.85
-78.24
-92.43
-107.31
-120.81
-130.16
-132.66
-126.44
-111.16
-88.08
-59.68
-28.85
1.81
30.34
55.48
76.48
92.89
104.49
111.42
114.13
113.44
110.32
105.67
100.15
94.16
87.80
81.07
73.95
66.54
59.16
52.19
45.91
40.29
34.85
28.78
21.25
11.71
0.28
-12.28
-24.85
-36.33
-46.17
-54.47
-62.00
-69.90
-79.23
-90.67
-104.06
-118.20
-130.90
-139.32
-140.66
-133.11
-116.39
-91.96
-62.56
-31.39
-1.25
25.91
49.03
67.62
81.51
90.68
95.41
96.32
94.39
90.70
86.14
81.16
75.78
69.76
62.94
55.43
47.63
40.13
33.36
27.44
21.98
16.29
9.55
1.26
-8.63
-19.63
-30.92
-41.71
-51.52
-60.39
-68.88
-77.84
-88.12
-100.18
-113.70
-127.38
-139.06
-146.01
-145.71
-136.57
-118.50
-93.06
-62.91
-31.14
-0.39
27.55
51.72
71.76
87.50
98.80
105.64
108.26
107.29
103.67
98.41
92.31
85.83
79.06
71.93
64.47
56.90
49.59
42.95
37.11
31.78
26.27
19.77
11.59
1.55
-9.98
-22.16
-34.04
-44.91
-54.56
-63.37
-72.20
-82.09
-93.85
-107.58
-122.31
-135.93
-145.57
-148.24
-141.80
-125.65
-100.97
-70.40
-37.20
-4.36
25.98
52.66
75.15
93.21
106.57
115.01
118.61
117.98
114.30
108.97
103.18
97.58
92.10
86.26
79.54
71.76
63.26
54.70
46.71
39.56
32.97
26.21
18.51
9.41
-0.98
-11.98
-22.67
-32.38
-40.91
-48.64
-56.36
-64.99
-75.21
-87.29
-100.91
-114.94
-127.48
-135.97
-137.76
-130.86
-114.69
-90.38
-60.54
-28.38
3.14
32.01
57.24
78.47
95.56
108.25
116.24
119.51
118.53
114.31
108.08
100.97
93.64
86.22
78.56
70.40
61.76
52.96
44.53
37.00
30.54
24.83
19.08
12.34
3.89
-6.45
-18.17
-30.27
-41.73
-51.90
-60.80
-69.00
-77.42
-86.90
-98.01
-110.74
-124.52
-138.00
-149.19
-155.62
-154.92
-145.47
-127.05
-100.97
-69.87
-36.88
-4.86
24.12
48.90
68.99
84.22
94.56
100.23
101.82
100.28
96.78
92.29
87.38
82.10
76.21
69.49
62.02
54.22
46.62
39.62
33.23
27.00
20.19
12.09
2.31
-9.04
-21.35
-33.73
-45.31
-55.59
-64.59
-72.85
-81.29
-90.86
-102.21
-115.25
-128.95
-141.19
-149.18
-150.07
-141.91
-124.24
-98.34
-66.87
-33.06
0.12
30.55
57.05
79.07
96.42
109.01
116.90
120.46
120.45
117.90
113.82
108.92
103.43
97.18
89.98
81.82
73.13
64.60
56.91
50.30
44.41
38.36
31.13
22.07
11.14
-1.04
-13.49
-25.38
-36.29
-46.35
-56.14
-66.46
-78.03
-91.25
-105.83
-120.57
-133.30
-141.21
-141.58
-132.66
-114.29
-88.04
-56.69
-23.43
9.00
38.70
64.61
86.20
103.12
115.15
122.26
124.79
123.51
119.46
113.72
107.12
100.07
92.59
84.61
76.18
67.60
59.35
51.80
44.95
38.31
31.10
22.59
12.48
1.00
-11.12
-23.06
-34.23
-44.49
-54.19
-63.95
-74.52
-86.55
-100.27
-115.23
-130.03
-142.32
-149.25
-148.15
-137.44
-117.21
-89.29
-56.77
-23.06
8.88
37.07
60.57
79.14
92.93
102.18
107.22
108.55
106.82
102.84
97.34
90.88
83.72
75.92
67.52
58.70
49.86
41.53
34.06
27.44
21.15
14.32
6.18
-3.67
-14.96
-26.94
-38.63
-49.30
-58.77
-67.44
-76.23
-86.18
-98.10
-112.09
-127.30
-141.71
-152.46
-156.43
-151.13
-135.56
-110.63
-78.91
-43.87
-8.95
23.21
51.06
73.96
91.81
104.69
112.79
116.53
116.59
113.88
109.35
103.71
97.34
90.34
82.65
74.39
65.87
57.54
49.75
42.62
35.83
28.85
21.03
11.94
1.56
-9.80
-21.57
-33.23
-44.46
-55.31
-66.14
-77.58
-90.27
-104.52
-119.94
-135.04
-147.28
-153.55
-151.02
-138.19
-115.47
-85.10
-50.50
-15.16
18.17
47.85
73.16
93.81
109.65
120.56
126.59
128.21
126.24
121.76
115.73
108.78
101.15
92.85
83.90
74.55
65.31
56.76
49.24
42.61
36.17
28.98
20.19
9.46
-2.87
-15.96
-28.82
-40.71
-51.45
-61.45
-71.49
-82.55
-95.37
-110.18
-126.30
-141.96
-154.44
-160.63
-157.85
-144.73
-121.78
-91.19
-56.14
-19.92
14.82
46.35
73.69
96.31
113.81
125.96
132.87
135.06
133.49
129.30
123.45
116.56
108.85
100.28
90.90
81.01
71.15
61.95
53.83
46.74
40.10
33.06
24.79
14.89
3.52
-8.62
-20.67
-31.90
-41.97
-51.08
-59.83
-69.10
-79.74
-92.36
-106.94
-122.53
-137.16
-148.05
-152.18
-147.27
-132.46
-108.74
-78.61
-45.34
-12.09
18.78
45.83
68.36
86.04
98.65
106.13
108.79
107.39
103.12
97.31
91.01
84.71
78.31
71.43
63.74
55.29
46.59
38.39
31.19
24.97
19.11
12.60
4.61
-5.21
-16.42
-28.10
-39.22
-49.10
-57.71
-65.52
-73.36
-82.05
-92.30
-104.37
-117.97
-131.95
-144.23
-152.04
-152.55
-143.81
-125.38
-98.65
-66.44
-32.13
1.26
31.54
57.52
78.68
94.81
105.93
112.23
114.26
112.91
109.29
104.37
98.72
92.46
85.41
77.49
68.86
60.09
51.91
44.84
38.96
33.70
28.14
21.30
12.60
2.06
-9.71
-21.81
-33.39
-43.98
-53.60
-62.71
-72.15
-82.78
-95.21
-109.32
-124.01
-137.14
-145.92
-147.54
-140.08
-123.19
-98.22
-67.82
-35.19
-3.25
25.84
50.83
71.17
86.68
97.42
103.60
105.72
104.60
101.28
96.86
92.13
87.44
82.64
77.38
71.33
64.52
57.30
50.26
43.80
37.93
32.20
25.86
18.23
8.97
-1.75
-13.36
-25.03
-36.04
-45.95
-54.77
-62.97
-71.36
-80.81
-91.95
-104.65
-117.82
-129.32
-136.42
-136.55
-128.01
-110.64
-85.80
-56.06
-24.31
6.84
35.56
60.77
81.85
98.45
110.26
117.21
119.60
118.24
114.26
108.88
102.99
96.98
90.79
84.09
76.63
68.47
59.98
51.73
44.16
37.42
31.21
24.88
17.68
9.07
-0.96
-11.94
-23.04
-33.51
-42.94
-51.52
-59.93
-69.04
-79.60
-91.85
-105.35
-118.85
-130.45
-137.82
-138.74
-131.67
-116.26
-93.59
-65.88
-36.00
-6.70
19.92
42.55
60.58
73.81
82.27
86.20
86.21
83.25
78.54
73.29
68.31
63.89
59.77
55.51
50.77
45.53
40.07
34.79
29.92
25.37
20.71
15.31
8.66
0.56
-8.78
-18.78
-28.75
-38.11
-46.68
-54.74
-62.98
-72.18
-82.98
-95.47
-108.95
-121.80
-131.63
-135.84
-132.28
-119.94
-99.43
-72.82
-43.02
-12.99
14.97
39.48
59.92
76.09
87.85
95.12
98.04
97.14
93.38
87.96
81.92
75.95
70.18
64.42
58.36
51.88
45.16
38.63
32.71
27.53
22.76
17.67
11.44
3.45
-6.34
-17.39
-28.77
-39.56
-49.25
-57.88
-66.05
-74.63
-84.50
-96.18
-109.55
-123.63
-136.49
-145.54
-148.13
-142.26
-127.29
-104.19
-75.28
-43.49
-11.62
18.15
44.43
66.38
83.48
95.47
102.36
104.63
103.22
99.35
94.21
88.64
83.03
77.33
71.27
64.69
57.69
50.69
44.24
38.75
34.29
30.43
26.43
21.51
15.26
7.75
-0.48
-8.70
-16.38
-23.43
-30.27
-37.65
-46.39
-57.12
-70.00
-84.51
-99.32
-112.33
-120.97
-122.78
-116.17
-100.96
-78.52
-51.45
-22.73
5.04
30.07
51.53
69.12
82.75
92.34
97.88
99.62
98.21
94.61
89.85
84.65
79.33
73.76
67.70
61.03
54.01
47.19
41.15
36.16
31.94
27.76
22.67
15.97
7.51
-2.28
-12.58
-22.63
-31.99
-40.85
-49.76
-59.55
-70.92
-84.19
-98.95
-113.87
-126.80
-135.03
-136.00
-128.08
-111.17
-86.76
-57.53
-26.56
3.41
30.44
53.38
71.67
85.10
93.72
97.90
98.37
96.14
92.21
87.37
82.02
76.23
69.94
63.17
56.18
49.41
43.26
37.86
32.97
27.98
22.13
14.79
5.79
-4.62
-15.70
-26.64
-36.77
-45.89
-54.27
-62.62
-71.81
-82.60
-95.29
-109.39
-123.45
-135.14
-141.62
-140.33
-129.75
-110.04
-83.02
-51.70
-19.38
11.11
37.97
60.31
77.92
90.79
99.04
102.91
102.93
99.99
95.18
89.49
83.63
77.76
71.73
65.20
58.05
50.48
42.99
36.08
30.00
24.49
18.82
12.21
4.08
-5.59
-16.29
-27.18
-37.51
-46.94
-55.61
-64.10
-73.23
-83.76
-96.09
-110.01
-124.36
-137.00
-145.16
-146.08
-137.94
-120.44
-95.00
-64.28
-31.41
0.84
30.48
56.35
77.81
94.44
106.08
112.80
115.13
114.00
110.58
105.95
100.88
95.73
90.45
84.83
78.70
72.06
65.15
58.28
51.64
45.13
38.28
30.43
20.99
9.79
-2.77
-15.79
-28.24
-39.38
-49.04
-57.69
-66.30
-75.95
-87.50
-101.26
-116.65
-132.07
-144.97
-152.30
-151.32
-140.44
-119.86
-91.64
-59.04
-25.51
6.16
34.34
58.39
78.15
93.44
104.01
109.64
110.63
107.94
103.01
97.32
91.87
86.89
81.94
76.38
69.80
62.36
54.69
47.51
41.20
35.50
29.67
22.72
14.01
3.51
-8.20
-20.15
-31.40
-41.42
-50.25
-58.43
-66.87
-76.55
-88.26
-102.24
-117.80
-133.23
-145.83
-152.55
-150.82
-139.40
-118.79
-91.10
-59.40
-26.75
4.38
32.40
56.49
76.19
91.21
101.37
106.73
107.81
105.59
101.26
95.98
90.56
85.30
80.03
74.43
68.22
61.45
54.51
47.91
42.00
36.71
31.47
25.39
17.69
8.00
-3.38
-15.58
-27.49
-38.25
-47.55
-55.78
-63.88
-72.96
-83.91
-97.05
-111.77
-126.48
-138.68
-145.49
-144.34
-133.83
-114.17
-87.22
-55.86
-23.17
8.33
37.00
61.96
82.67
98.72
109.72
115.65
117.00
114.93
110.89
106.14
101.45
96.86
91.90
86.01
78.88
70.71
62.14
53.94
46.62
40.14
33.90
27.01
18.65
8.51
-3.12
-15.47
-27.63
-38.93
-49.16
-58.64
-68.01
-78.03
-89.37
-102.36
-116.75
-131.51
-144.71
-153.82
-156.25
-150.12
-134.84
-111.39
-82.01
-49.59
-16.95
13.62
40.57
62.97
80.35
92.64
100.14
103.52
103.74
101.84
98.67
94.78
90.35
85.26
79.30
72.42
64.84
57.06
49.73
43.33
37.94
33.13
28.12
22.09
14.54
5.50
-4.49
-14.66
-24.37
-33.31
-41.64
-49.81
-58.44
-68.17
-79.46
-92.40
-106.42
-120.06
-131.00
-136.46
-133.97
-122.18
-101.45
-73.80
-42.30
-10.13
20.20
47.16
70.10
88.74
102.87
112.26
116.87
117.15
114.05
108.87
102.81
96.71
90.81
84.96
78.85
72.33
65.47
58.57
51.93
45.70
39.78
33.76
27.10
19.27
9.97
-0.74
-12.43
-24.42
-35.98
-46.63
-56.24
-65.10
-73.79
-83.04
-93.46
-105.23
-117.82
-129.82
-139.04
-142.90
-139.18
-126.73
-105.92
-78.61
-47.63
-16.01
13.77
40.05
61.99
79.27
91.77
99.51
102.73
102.04
98.46
93.21
87.40
81.71
76.25
70.71
64.69
58.03
50.98
44.10
37.96
32.82
28.44
24.17
19.20
12.82
4.71
-5.02
-15.83
-26.97
-37.69
-47.48
-56.21
-64.26
-72.32
-81.28
-91.82
-104.12
-117.54
-130.49
-140.61
-145.20
-142.01
-129.85
-109.14
-81.79
-50.70
-18.86
11.26
38.13
60.97
79.49
93.55
103.05
108.06
109.01
106.65
102.02
96.15
89.81
83.44
77.10
70.65
63.95
56.99
49.97
43.23
37.05
31.51
26.32
20.90
14.55
6.77
-2.50
-12.83
-23.46
-33.66
-42.93
-51.29
-59.13
-67.11
-75.95
-86.22
-98.08
-111.08
-123.96
-134.61
-140.51
-139.26
-129.42
-111.01
-85.57
-55.72
-24.37
5.95
33.53
57.43
77.28
92.90
104.23
111.32
114.52
114.50
112.20
108.60
104.50
100.31
96.03
91.40
86.14
80.15
73.65
67.05
60.74
54.89
49.28
43.33
36.34
27.80
17.65
6.34
-5.32
-16.49
-26.66
-35.83
-44.48
-53.31
-63.05
-74.17
-86.84
-100.79
-115.14
-128.32
-138.13
-142.10
-138.20
-125.58
-105.02
-78.78
-49.91
-21.41
4.53
26.68
44.64
58.42
68.18
74.11
76.59
76.24
73.88
70.40
66.48
62.49
58.46
54.15
49.37
44.07
38.53
33.19
28.55
24.80
21.65
18.35
13.90
7.50
-1.05
-11.24
-22.03
-32.30
-41.36
-49.19
-56.36
-63.85
-72.56
-83.07
-95.42
-108.94
-122.27
-133.39
-139.90
-139.51
-130.68
-113.17
-88.19
-58.17
-26.15
4.98
33.01
56.64
75.39
89.29
98.65
103.89
105.57
104.40
101.20
96.79
91.84
86.69
81.41
75.86
69.97
63.79
57.61
51.74
46.34
41.12
35.43
28.40
19.35
8.10
-4.77
-18.16
-30.82
-41.88
-51.21
-59.53
-68.13
-78.34
-91.01
-106.04
-122.20
-137.15
-148.00
-151.89
-146.84
-132.33
-109.44
-80.60
-48.89
-17.21
12.20
38.04
59.71
77.02
89.94
98.53
103.06
104.07
102.35
98.76
94.00
88.44
82.17
75.23
67.80
60.32
53.36
47.41
42.55
38.40
34.26
29.42
23.45
16.36
8.47
0.27
-7.88
-15.88
-23.93
-32.43
-41.90
-52.71
-64.78
-77.27
-88.41
-95.75
-96.75
-89.63
-73.99
-51.13
-23.61
5.41
33.03
57.11
76.49
90.70
99.78
103.99
103.86
100.15
93.90
86.24
78.19
70.45
63.29
56.65
50.27
44.00
37.88
32.14
27.03
22.63
18.77
14.96
10.68
5.49
-0.71
-7.73
-15.09
-22.25
-28.76
-34.44
-39.49
-44.44
-50.00
-56.96
-65.76
-76.31
-87.64
-97.91
-104.62
-105.33
-98.35
-83.43
-61.90
-36.32
-9.74
15.10
36.32
52.96
64.84
72.13
75.20
74.57
71.00
65.47
59.05
52.69
46.97
42.14
38.04
34.44
31.06
27.72
24.39
21.13
18.06
15.22
12.53
9.70
6.33
2.02
-3.56
-10.47
-18.49
-27.12
-35.75
-43.81
-50.93
-57.02
-62.31
-67.32
-72.73
-79.27
-87.54
-97.65
-109.00
-120.10
-128.65
-132.08
-128.20
-116.02
-96.14
-70.62
-42.37
-14.30
11.38
33.41
51.30
64.99
74.59
80.18
82.07
80.81
77.26
72.46
67.31
62.37
57.82
53.45
48.98
44.20
39.17
34.17
29.55
25.54
22.06
18.70
14.82
9.79
3.25
-4.77
-13.84
-23.25
-32.31
-40.58
-48.03
-54.99
-62.10
-70.04
-79.36
-90.28
-102.43
-114.76
-125.43
-132.11
-132.46
-124.85
-108.98
-86.04
-58.43
-29.04
-0.51
25.26
47.20
64.86
78.09
86.88
91.44
92.28
90.29
86.53
82.02
77.42
72.90
68.23
63.04
57.08
50.48
43.65
37.20
31.58
26.88
22.72
18.37
12.95
5.83
-3.15
-13.54
-24.48
-34.94
-44.19
-52.05
-58.95
-65.79
-73.71
-83.63
-95.92
-110.07
-124.53
-136.87
-144.22
-144.05
-134.86
-116.69
-91.14
-60.86
-28.82
2.33
30.63
54.88
74.43
89.07
98.82
104.03
105.35
103.68
100.01
95.23
89.94
84.39
78.54
72.26
65.48
58.35
51.25
44.60
38.68
33.40
28.28
22.60
15.63
7.02
-3.18
-14.48
-26.17
-37.59
-48.35
-58.42
-68.12
-77.98
-88.61
-100.55
-113.95
-128.30
-142.09
-152.94
-158.03
-154.83
-142.04
-120.03
-90.80
-57.43
-23.15
9.43
38.60
63.54
83.95
99.68
110.59
116.72
118.42
116.52
112.17
106.61
100.79
95.14
89.56
83.67
77.20
70.24
63.22
56.71
51.06
46.10
41.19
35.43
28.07
18.84
7.99
-3.78
-15.67
-27.06
-37.67
-47.57
-57.13
-66.91
-77.58
-89.70
-103.48
-118.45
-133.11
-144.98
-151.10
-148.82
-136.68
-114.98
-85.70
-51.94
-17.02
16.30
46.14
71.46
91.80
106.92
116.75
121.53
121.86
118.78
113.57
107.49
101.43
95.74
90.30
84.72
78.64
72.04
65.26
58.80
53.02
47.88
42.88
37.18
29.98
20.86
10.02
-1.85
-13.79
-24.98
-35.07
-44.24
-53.11
-62.49
-73.14
-85.50
-99.53
-114.46
-128.70
-139.90
-145.37
-142.76
-130.78
-109.72
-81.39
-48.63
-14.51
18.37
48.16
73.79
94.62
110.26
120.46
125.33
125.40
121.70
115.57
108.35
101.07
94.24
87.90
81.72
75.35
68.56
61.47
54.41
47.75
41.65
35.83
29.70
22.50
13.76
3.45
-7.91
-19.53
-30.65
-40.80
-50.01
-58.65
-67.31
-76.68
-87.39
-99.77
-113.67
-128.01
-140.71
-148.92
-149.73
-141.06
-122.49
-95.44
-62.76
-27.87
6.14
37.10
63.78
85.54
102.05
113.02
118.44
118.78
115.16
109.10
102.12
95.27
88.87
82.62
75.99
68.60
60.56
52.40
44.80
38.22
32.63
27.48
21.89
15.04
6.49
-3.65
-14.80
-26.17
-37.01
-46.92
-55.92
-64.39
-72.94
-82.27
-93.02
-105.45
-119.13
-132.65
-143.64
-149.13
-146.41
-133.94
-111.95
-82.43
-48.56
-13.71
19.34
48.80
73.76
93.81
108.70
118.25
122.58
122.22
118.25
112.02
104.81
97.56
90.67
84.07
77.43
70.46
63.08
55.51
48.12
41.27
35.10
29.35
23.41
16.50
7.99
-2.32
-14.06
-26.47
-38.66
-49.94
-60.08
-69.37
-78.46
-88.21
-99.38
-112.34
-126.76
-141.31
-153.67
-160.93
-160.28
-149.91
-129.62
-100.94
-66.69
-30.20
5.48
38.04
66.06
88.83
106.06
117.81
124.36
126.31
124.57
120.24
114.40
107.93
101.34
94.78
88.14
81.25
74.02
66.53
59.04
51.86
45.16
38.83
32.47
25.46
17.18
7.26
-4.19
-16.62
-29.16
-41.02
-51.69
-61.20
-70.01
-78.90
-88.71
-100.13
-113.36
-127.82
-141.99
-153.43
-159.23
-156.72
-144.34
-122.18
-92.10
-57.15
-20.73
14.16
45.45
71.96
93.19
108.93
119.19
124.15
124.38
120.83
114.82
107.69
100.55
93.92
87.86
82.00
75.94
69.43
62.58
55.72
49.24
43.34
37.76
31.96
25.22
16.99
7.08
-4.20
-16.24
-28.25
-39.65
-50.14
-59.81
-69.08
-78.57
-88.92
-100.64
-113.86
-127.95
-141.37
-151.73
-156.21
-152.36
-138.87
-116.11
-86.05
-51.73
-16.41
17.15
47.06
72.26
92.28
106.91
116.17
120.32
120.00
116.24
110.32
103.44
96.53
90.01
83.83
77.65
71.07
63.94
56.46
49.05
42.20
36.12
30.60
24.99
18.51
10.51
0.82
-10.17
-21.66
-32.81
-43.04
-52.26
-60.85
-69.41
-78.57
-88.93
-100.76
-113.94
-127.65
-140.26
-149.35
-152.20
-146.57
-131.38
-107.27
-76.40
-41.88
-6.92
25.81
54.52
78.24
96.51
109.26
116.67
119.27
117.95
113.88
108.23
101.97
95.62
89.28
82.77
75.86
68.50
60.90
53.47
46.63
40.64
35.40
30.42
25.01
18.44
10.26
0.47
-10.50
-21.93
-33.06
-43.41
-52.83
-61.54
-70.03
-78.92
-88.86
-100.29
-113.16
-126.55
-138.55
-146.48
-147.59
-139.86
-122.78
-97.57
-66.76
-33.49
-0.67
29.51
55.69
77.17
93.59
104.86
111.13
112.88
110.99
106.57
100.82
94.68
88.69
82.95
77.24
71.29
65.00
58.52
52.21
46.42
41.30
36.63
31.83
26.19
19.09
10.27
-0.10
-11.46
-23.06
-34.19
-44.42
-53.63
-62.10
-70.32
-79.00
-88.82
-100.14
-112.62
-124.96
-134.88
-139.59
-136.63
-124.64
-103.99
-76.63
-45.57
-13.91
15.83
42.06
63.98
81.28
93.79
101.49
104.56
103.57
99.52
93.60
86.99
80.47
74.29
68.24
61.93
55.10
47.84
40.57
33.84
28.06
23.21
18.80
14.02
8.08
0.53
-8.60
-18.78
-29.24
-39.24
-48.33
-56.48
-64.07
-71.74
-80.26
-90.20
-101.67
-114.03
-125.69
-134.31
-137.31
-132.64
-119.46
-98.57
-72.10
-42.92
-13.81
13.11
36.57
55.97
71.02
81.57
87.65
89.64
88.35
84.89
80.43
75.78
71.29
66.85
62.11
56.75
50.75
44.36
38.06
32.26
27.18
22.63
18.14
13.01
6.62
-1.35
-10.77
-21.06
-31.43
-41.13
-49.78
-57.54
-64.99
-73.03
-82.53
-93.95
-107.06
-120.74
-132.95
-141.14
-142.83
-136.28
-121.04
-98.11
-69.63
-38.32
-6.78
22.86
49.15
71.16
88.36
100.50
107.67
110.38
109.55
106.29
101.71
96.56
91.19
85.50
79.22
72.22
64.64
56.91
49.59
43.08
37.40
32.17
26.71
20.32
12.53
3.30
-6.99
-17.69
-28.11
-37.79
-46.62
-54.94
-63.37
-72.69
-83.55
-96.20
-110.13
-123.95
-135.42
-141.89
-140.99
-131.36
-113.06
-87.64
-57.63
-25.80
5.39
34.12
59.21
79.85
95.52
105.95
111.31
112.27
109.96
105.64
100.49
95.25
90.16
85.04
79.57
73.54
66.93
60.06
53.33
47.05
41.19
35.40
29.05
21.55
12.63
2.50
-8.23
-18.79
-28.55
-37.28
-45.21
-52.90
-61.12
-70.63
-81.93
-94.98
-108.97
-122.19
-132.20
-136.34
-132.47
-119.71
-98.69
-71.42
-40.70
-9.39
20.21
46.52
68.62
86.06
98.62
106.30
109.42
108.65
104.97
99.54
93.42
87.34
81.58
76.00
70.22
63.94
57.15
50.21
43.65
37.83
32.69
27.66
21.87
14.56
5.46
-5.13
-16.45
-27.62
-37.99
-47.32
-55.79
-63.94
-72.50
-82.24
-93.75
-107.08
-121.41
-134.87
-144.81
-148.38
-143.41
-129.14
-106.53
-77.99
-46.60
-15.32
13.60
38.77
59.49
75.43
86.46
92.64
94.42
92.70
88.69
83.61
78.37
73.35
68.41
63.20
57.46
51.26
44.99
39.20
34.24
30.05
26.12
21.60
15.72
8.09
-1.14
-11.36
-21.80
-31.80
-41.09
-49.79
-58.31
-67.25
-77.21
-88.63
-101.54
-115.20
-127.92
-137.22
-140.39
-135.28
-121.09
-98.60
-70.01
-38.23
-6.12
24.03
50.67
72.94
90.37
102.81
110.37
113.49
112.91
109.59
104.50
98.51
92.17
85.75
79.22
72.50
65.55
58.52
51.73
45.52
39.99
34.81
29.27
22.49
13.83
3.22
-8.79
-21.19
-32.95
-43.44
-52.68
-61.28
-70.17
-80.28
-92.22
-106.01
-120.80
-134.88
-145.77
-150.71
-147.39
-134.68
-113.08
-84.60
-52.23
-19.13
12.11
39.76
62.90
81.19
94.57
103.21
107.51
108.14
106.02
102.12
97.30
92.08
86.66
80.91
74.63
67.81
60.72
53.85
47.74
42.65
38.35
34.12
29.00
22.16
13.29
2.74
-8.67
-19.95
-30.36
-39.63
-48.00
-56.13
-64.89
-75.07
-87.18
-101.06
-115.62
-128.82
-137.87
-139.96
-133.09
-116.71
-92.01
-61.55
-28.48
4.23
34.40
60.69
82.44
99.29
111.04
117.66
119.43
117.09
111.81
104.94
97.64
90.58
83.86
77.12
70.01
62.37
54.46
46.81
39.87
33.73
28.03
22.05
15.04
6.58
-3.30
-14.07
-24.95
-35.22
-44.45
-52.63
-60.16
-67.80
-76.34
-86.48
-98.36
-111.37
-123.88
-133.45
-137.37
-133.39
-120.47
-99.20
-71.58
-40.47
-8.77
21.15
47.66
69.81
87.01
98.97
105.73
107.75
105.97
101.70
96.22
90.50
84.94
79.42
73.59
67.15
60.19
53.09
46.42
40.59
35.54
30.77
25.46
18.86
10.56
0.74
-10.00
-20.88
-31.18
-40.59
-49.27
-57.81
-67.05
-77.86
-90.78
-105.66
-121.41
-135.93
-146.41
-149.95
-144.42
-129.18
-105.35
-75.50
-42.94
-10.83
18.48
43.59
63.91
79.26
89.65
95.27
96.58
94.48
90.13
84.77
79.24
73.86
68.44
62.54
55.88
48.54
40.98
33.81
27.47
21.93
16.69
11.00
4.15
-4.21
-13.92
-24.45
-35.09
-45.27
-54.75
-63.71
-72.66
-82.35
-93.45
-106.23
-120.28
-134.20
-145.68
-151.96
-150.52
-139.86
-120.04
-92.63
-60.33
-26.21
6.99
37.26
63.34
84.55
100.59
111.44
117.38
119.05
117.45
113.73
108.91
103.63
98.06
92.01
85.22
77.62
69.50
61.40
53.93
47.34
41.43
35.57
28.91
20.77
10.90
-0.45
-12.61
-24.77
-36.25
-46.78
-56.53
-66.09
-76.32
-88.02
-101.62
-116.79
-132.16
-145.35
-153.35
-153.35
-143.59
-124.03
-96.43
-63.83
-29.69
3.01
32.20
56.77
76.23
90.42
99.38
103.44
103.37
100.32
95.63
90.38
85.18
80.05
74.65
68.56
61.68
54.28
46.98
40.39
34.80
29.98
25.20
19.48
12.04
2.62
-8.38
-20.07
-31.44
-41.80
-50.99
-59.44
-67.96
-77.44
-88.56
-101.49
-115.71
-129.85
-141.74
-148.74
-148.35
-138.91
-120.21
-93.59
-61.62
-27.44
6.04
36.58
62.78
83.91
99.66
110.04
115.33
116.22
113.76
109.22
103.77
98.17
92.65
86.97
80.75
73.75
66.12
58.32
50.92
44.25
38.27
32.54
26.38
19.18
10.60
0.63
-10.38
-21.89
-33.37
-44.44
-54.97
-65.20
-75.64
-86.97
-99.77
-114.08
-129.04
-142.75
-152.47
-155.32
-149.18
-133.42
-109.13
-78.80
-45.58
-12.34
18.79
46.55
70.29
89.51
103.84
113.01
117.19
117.12
114.00
109.19
103.82
98.44
92.96
86.98
80.13
72.38
64.13
56.09
48.86
42.60
36.92
31.00
23.96
15.27
4.98
-6.29
-17.64
-28.26
-37.80
-46.38
-54.59
-63.24
-73.07
-84.58
-97.81
-112.07
-125.82
-136.76
-142.19
-139.71
-127.99
-107.32
-79.51
-47.47
-14.34
17.28
45.71
70.15
90.32
106.09
117.29
123.82
125.89
124.15
119.70
113.75
107.36
101.15
95.24
89.41
83.37
76.98
70.41
63.98
58.02
52.61
47.41
41.78
34.98
26.55
16.46
5.20
-6.39
-17.53
-27.72
-36.93
-45.55
-54.19
-63.46
-73.92
-85.94
-99.41
-113.59
-126.83
-136.67
-140.33
-135.53
-121.18
-98.02
-68.34
-35.50
-2.92
26.70
51.77
71.77
86.82
97.26
103.37
105.38
103.68
98.92
92.11
84.43
76.90
70.08
63.95
58.11
52.04
45.54
38.79
32.26
26.42
21.35
16.69
11.64
5.40
-2.58
-12.27
-23.10
-34.17
-44.63
-54.01
-62.32
-70.06
-78.04
-87.01
-97.55
-109.81
-123.29
-136.78
-148.32
-155.43
-155.68
-147.30
-129.85
-104.46
-73.53
-40.08
-7.01
23.52
50.15
72.22
89.41
101.59
108.84
111.60
110.70
107.32
102.65
97.64
92.74
87.90
82.84
77.21
70.95
64.27
57.59
51.30
45.58
40.23
34.69
28.25
20.35
10.73
-0.38
-12.36
-24.41
-35.80
-46.14
-55.52
-64.42
-73.54
-83.62
-95.15
-108.03
-121.37
-133.42
-141.73
-143.75
-137.49
-122.26
-98.89
-69.57
-37.20
-4.63
25.88
52.87
75.56
93.55
106.66
114.91
118.59
118.37
115.22
110.25
104.46
98.55
92.82
87.24
81.55
75.49
68.92
61.93
54.82
47.94
41.54
35.51
29.41
22.55
14.31
4.40
-6.96
-19.14
-31.34
-42.89
-53.47
-63.23
-72.61
-82.23
-92.69
-104.36
-117.18
-130.41
-142.45
-151.01
-153.50
-147.74
-132.77
-109.24
-79.37
-46.24
-13.01
17.88
45.01
67.81
86.18
100.06
109.33
113.97
114.33
111.25
105.92
99.61
93.23
87.16
81.23
75.03
68.28
61.05
53.82
47.20
41.58
36.92
32.66
27.97
22.10
14.63
5.63
-4.42
-14.86
-25.09
-34.71
-43.60
-51.96
-60.22
-68.97
-78.79
-90.02
-102.38
-114.81
-125.39
-131.69
-131.39
-122.98
-106.31
-82.76
-54.79
-25.26
3.31
29.20
51.51
69.80
83.83
93.38
98.34
99.04
96.27
91.24
85.20
79.14
73.49
68.18
62.87
57.24
51.29
45.28
39.68
34.76
30.46
26.28
21.45
15.24
7.28
-2.27
-12.79
-23.46
-33.62
-42.94
-51.52
-59.74
-68.16
-77.33
-87.73
-99.55
-112.41
-125.14
-135.74
-141.67
-140.57
-131.01
-113.07
-88.38
-59.66
-29.90
-1.62
23.60
45.00
62.39
75.79
85.20
90.75
92.74
91.80
88.79
84.67
80.17
75.68
71.20
66.53
61.42
55.88
50.07
44.34
38.90
33.74
28.49
22.54
15.29
6.37
-4.15
-15.77
-27.68
-39.11
-49.49
-58.71
-67.10
-75.32
-84.16
-94.30
-105.95
-118.59
-130.80
-140.36
-144.71
-141.56
-129.74
-109.53
-82.73
-52.08
-20.56
9.36
36.03
58.58
76.64
90.11
98.99
103.51
104.22
101.98
97.82
92.69
87.27
81.82
76.30
70.54
64.48
58.30
52.33
46.92
42.16
37.81
33.25
27.70
20.53
11.55
1.09
-10.13
-21.22
-31.49
-40.70
-49.04
-57.13
-65.76
-75.64
-87.18
-100.22
-113.75
-125.93
-134.29
-136.21
-129.83
-114.55
-91.40
-62.75
-31.62
-0.92
27.14
51.21
70.64
85.19
94.90
100.03
101.10
99.02
94.89
89.75
84.34
78.95
73.45
67.53
61.05
54.14
47.27
40.98
35.54
30.76
26.01
20.41
13.28
4.46
-5.65
-16.23
-26.40
-35.59
-43.76
-51.34
-59.12
-67.94
-78.40
-90.61
-103.97
-117.06
-127.75
-133.62
-132.52
-123.21
-105.82
-81.84
-53.71
-24.18
4.31
29.97
51.78
69.24
82.21
90.79
95.31
96.36
94.75
91.33
86.86
81.78
76.24
70.19
63.58
56.49
49.25
42.27
35.90
30.21
24.90
19.37
12.98
5.25
-3.83
-13.87
-24.17
-34.05
-43.06
-51.20
-58.92
-67.01
-76.35
-87.55
-100.55
-114.36
-126.96
-135.70
-137.89
-131.69
-116.64
-93.87
-65.70
-34.91
-4.14
24.67
50.21
71.70
88.63
100.72
108.00
110.98
110.57
107.91
104.05
99.61
94.70
89.05
82.30
74.34
65.52
56.53
48.11
40.74
34.37
28.44
22.12
14.67
5.69
-4.72
-16.02
-27.50
-38.48
-48.58
-57.89
-66.92
-76.47
-87.39
-100.19
-114.57
-129.20
-141.75
-149.34
-149.34
-140.12
-121.66
-95.54
-64.49
-31.59
0.50
29.94
55.70
77.27
94.34
106.68
114.22
117.25
116.58
113.32
108.70
103.60
98.37
92.87
86.73
79.73
72.03
64.20
56.89
50.54
45.07
39.81
33.85
26.38
17.02
6.04
-5.81
-17.64
-28.71
-38.79
-48.14
-57.42
-67.49
-79.09
-92.57
-107.56
-122.82
-136.17
-144.88
-146.31
-138.68
-121.70
-96.74
-66.40
-33.79
-1.70
27.82
53.60
75.01
91.70
103.48
110.34
112.71
111.44
107.69
102.66
97.18
91.58
85.76
79.39
72.31
64.70
57.03
49.85
43.52
37.96
32.67
26.87
19.90
11.41
1.58
-9.05
-19.74
-29.85
-39.06
-47.43
-55.41
-63.65
-72.91
-83.80
-96.46
-110.26
-123.63
-134.14
-139.01
-135.90
-123.65
-102.78
-75.31
-44.21
-12.50
17.46
44.23
67.13
85.87
100.21
109.88
114.78
115.25
112.20
106.94
100.88
94.98
89.58
84.42
78.89
72.54
65.31
57.63
50.08
43.16
36.91
30.90
24.42
16.75
7.53
-3.13
-14.71
-26.45
-37.68
-48.05
-57.61
-66.79
-76.29
-86.89
-99.21
-113.40
-128.82
-143.86
-156.05
-162.62
-161.21
-150.73
-131.69
-106.14
-76.92
-46.90
-18.36
7.25
29.08
46.60
59.37
66.99
69.41
67.09
61.01
52.46
42.73
32.68
22.51
11.82
-0.22
-14.32
-30.61
-48.34
-65.94
-81.49
-93.44
-101.21
-105.44
-107.69
-109.65
-112.38
-115.64
-117.98
