1531937429.00
64.000000
-0.00
-0.00
-0.00
-0.00
-0.00
-0.00
-0.00
-0.00
-0.00
-0.00
0.00
0.01
0.01
-0.00
-0.03
-0.05
-0.05
0.00
0.13
0.36
0.66
1.01
1.37
1.72
2.06
2.40
2.79
3.24
3.80
4.43
5.08
5.70
6.28
6.82
7.38
8.03
8.84
9.90
11.14
12.46
13.74
14.91
16.01
17.16
18.55
20.32
22.71
25.55
28.62
31.66
34.50
37.20
40.04
43.41
47.62
53.11
59.57
66.55
73.50
80.08
86.29
92.54
99.49
107.66
117.68
129.18
141.52
153.89
165.68
176.77
187.57
199.24
210.48
223.73
239.91
259.45
281.33
302.55
318.42
323.78
314.86
290.73
254.10
209.44
161.70
114.44
69.02
25.03
-18.61
-62.34
-105.56
-146.49
-183.65
-216.25
-244.42
-268.96
-290.78
-310.70
-329.14
-346.48
-363.13
-379.77
-396.55
-412.38
-424.71
-429.70
-423.99
-406.21
-377.80
-342.56
-305.34
-270.10
-238.72
-210.96
-185.52
-161.37
-138.48
-117.72
-99.99
-85.38
-72.80
-60.51
-47.07
-32.23
-17.28
-4.32
4.84
9.73
11.59
12.80
15.63
21.12
28.57
35.95
41.11
42.96
42.07
40.20
39.39
40.67
43.62
46.61
47.83
46.41
42.95
39.16
36.95
37.25
39.51
42.02
42.88
41.03
36.92
32.20
28.81
27.87
29.10
30.99
31.71
30.17
26.67
22.69
19.96
19.49
20.92
22.78
23.36
21.72
18.29
14.55
12.24
12.31
14.40
16.99
18.31
17.28
14.21
10.59
8.36
8.72
11.48
15.10
17.56
17.50
14.95
11.39
8.76
8.35
10.01
12.33
13.43
12.24
9.12
5.68
3.75
4.30
6.82
9.61
10.77
9.33
5.87
2.06
-0.22
-0.01
2.20
4.81
6.02
4.92
1.92
-1.48
-3.59
-3.47
-1.48
0.93
2.10
1.03
-2.02
-5.68
-8.21
-8.52
-6.76
-4.31
-2.96
-3.91
-7.04
-10.92
-13.62
-13.77
-11.39
-7.84
-5.10
-4.60
-6.39
-9.20
-11.13
-10.78
-8.13
-4.48
-1.79
-1.47
-3.61
-6.91
-9.44
-9.74
-7.64
-4.40
-1.89
-1.59
-3.60
-6.68
-8.90
-8.78
-6.19
-2.38
0.67
1.50
-0.06
-2.73
-4.55
-4.01
-0.91
3.49
7.23
8.80
8.00
5.99
4.61
5.28
8.14
12.04
15.21
16.32
15.25
13.14
11.72
12.32
15.10
18.99
22.28
23.62
22.76
20.71
19.09
19.26
21.48
24.82
27.66
28.67
27.56
25.27
23.35
23.08
24.64
27.03
28.62
28.14
25.45
21.66
18.49
17.27
18.19
20.18
21.51
20.88
18.08
14.20
10.91
9.52
10.22
11.98
13.16
12.53
9.94
6.41
3.61
2.78
4.12
6.66
8.72
8.97
7.04
3.84
0.94
-0.27
0.61
2.82
4.80
5.19
3.59
0.77
-1.72
-2.56
-1.37
1.05
3.15
3.64
2.15
-0.44
-2.62
-3.09
-1.54
1.12
3.34
3.77
2.11
-0.76
-3.26
-4.04
-2.73
-0.16
2.13
2.76
1.34
-1.28
-3.55
-4.08
-2.50
0.36
2.88
3.62
2.15
-0.64
-3.08
-3.70
-2.09
0.85
3.40
4.04
2.35
-0.73
-3.47
-4.35
-2.96
-0.20
2.24
2.90
1.40
-1.36
-3.77
-4.39
-2.83
0.06
2.72
3.72
2.60
0.09
-2.30
-3.13
-1.85
0.85
3.46
4.49
3.35
0.73
-1.74
-2.49
-0.91
2.24
5.18
6.19
4.61
1.27
-2.01
-3.44
-2.35
0.49
3.27
4.23
2.70
-0.58
-3.83
-5.27
-4.09
-0.93
2.49
4.34
3.68
0.99
-2.12
-3.84
-3.19
-0.63
2.26
3.68
2.68
-0.26
-3.56
-5.42
-4.88
-2.33
0.72
2.58
2.30
0.22
-2.26
-3.54
-2.70
-0.12
2.77
4.25
3.42
0.66
-2.46
-4.12
-3.31
-0.50
2.64
4.18
3.17
0.17
-3.02
-4.46
-3.20
0.14
3.70
5.52
4.58
1.40
-2.34
-4.68
-4.50
-2.04
1.24
3.50
3.57
1.53
-1.26
-3.02
-2.58
-0.08
3.05
4.91
4.26
1.29
-2.44
-4.88
-4.69
-2.07
1.40
3.66
3.37
0.73
-2.70
-4.94
-4.74
-2.28
0.91
2.97
2.74
0.48
-2.34
-3.88
-3.03
-0.08
3.42
5.55
5.13
2.35
-1.25
-3.67
-3.60
-1.13
2.29
4.67
4.64
2.24
-1.13
-3.52
-3.61
-1.47
1.49
3.40
3.02
0.53
-2.63
-4.61
-4.27
-1.78
1.42
3.54
3.37
1.06
-2.07
-4.28
-4.31
-2.16
0.99
3.42
3.84
2.11
-0.63
-2.67
-2.75
-0.75
2.14
4.16
4.01
1.68
-1.52
-3.75
-3.74
-1.53
1.49
3.48
3.19
0.75
-2.45
-4.54
-4.28
-1.74
1.73
4.28
4.58
2.58
-0.48
-2.79
-3.00
-0.99
2.04
4.29
4.43
2.39
-0.62
-2.77
-2.80
-0.74
2.11
3.89
3.37
0.67
-2.80
-5.12
-5.01
-2.52
0.97
3.54
3.83
1.77
-1.37
-3.73
-3.96
-1.94
1.13
3.47
3.73
1.79
-1.18
-3.41
-3.59
-1.59
1.42
3.64
3.73
1.57
-1.61
-3.98
-4.12
-1.89
1.46
4.00
4.25
2.02
-1.46
-4.23
-4.76
-2.77
0.54
3.30
4.00
2.31
-0.66
-3.13
-3.63
-1.84
1.23
3.81
4.40
2.63
-0.53
-3.33
-4.24
-2.86
-0.15
2.16
2.59
0.82
-2.07
-4.27
-4.33
-2.04
1.39
4.03
4.36
2.14
-1.43
-4.40
-5.19
-3.46
-0.27
2.53
3.43
2.06
-0.56
-2.69
-2.90
-0.96
2.06
4.33
4.42
2.11
-1.40
-4.21
-4.73
-2.64
0.96
4.16
5.31
3.96
1.05
-1.67
-2.61
-1.30
1.40
3.81
4.42
2.75
-0.32
-3.11
-4.08
-2.78
-0.07
2.35
2.96
1.31
-1.70
-4.33
-5.00
-3.20
0.22
3.47
4.83
3.62
0.61
-2.45
-3.80
-2.72
0.07
2.83
3.83
2.42
-0.58
-3.38
-4.26
-2.60
0.69
3.74
4.83
3.36
0.23
-2.73
-3.84
-2.50
0.40
3.08
3.88
2.21
-1.04
-4.04
-5.12
-3.67
-0.61
2.24
3.16
1.56
-1.71
-4.77
-5.87
-4.34
-0.93
2.57
4.38
3.76
1.39
-1.08
-1.98
-0.67
2.10
4.58
5.10
3.08
-0.57
-3.93
-5.21
-3.76
-0.46
2.80
4.25
3.23
0.52
-2.16
-3.14
-1.81
1.03
3.73
4.69
3.34
0.42
-2.36
-3.39
-2.07
0.84
3.56
4.38
2.60
-0.95
-4.41
-5.92
-4.71
-1.49
1.92
3.70
3.01
0.46
-2.32
-3.63
-2.70
-0.08
2.68
4.00
3.15
0.69
-1.88
-3.05
-2.15
0.23
2.61
3.46
2.15
-0.69
-3.47
-4.58
-3.31
-0.32
2.73
4.10
2.96
-0.06
-3.31
-4.95
-4.03
-1.06
2.31
4.21
3.63
0.96
-2.20
-4.02
-3.47
-0.93
2.10
3.83
3.27
0.77
-2.15
-3.72
-2.97
-0.32
2.67
4.21
3.38
0.65
-2.35
-3.82
-2.87
-0.09
2.85
4.12
2.90
-0.15
-3.28
-4.66
-3.43
-0.24
3.14
4.86
3.92
0.84
-2.75
-4.93
-4.59
-2.02
1.28
3.46
3.41
1.31
-1.43
-3.04
-2.43
0.12
3.16
4.86
4.16
1.38
-1.90
-3.80
-3.22
-0.56
2.53
4.09
3.05
-0.10
-3.56
-5.28
-4.14
-0.66
3.29
5.57
5.02
2.07
-1.48
-3.60
-3.18
-0.64
2.37
3.95
3.10
0.26
-2.98
-4.84
-4.32
-1.80
1.22
2.99
2.48
-0.05
-3.20
-5.23
-4.98
-2.57
0.72
3.12
3.41
1.54
-1.24
-3.22
-3.15
-1.03
1.89
3.87
3.71
1.51
-1.36
-3.10
-2.59
-0.05
2.99
4.64
3.79
0.81
-2.66
-4.64
-3.96
-0.97
2.63
4.87
4.50
1.83
-1.60
-3.85
-3.72
-1.40
1.67
3.70
3.58
1.49
-1.18
-2.74
-2.20
0.12
2.76
4.01
2.95
0.06
-3.07
-4.63
-3.69
-0.76
2.52
4.25
3.40
0.37
-3.18
-5.34
-4.92
-2.18
1.34
3.67
3.54
1.10
-2.18
-4.34
-4.04
-1.38
2.17
4.56
4.43
1.86
-1.62
-3.96
-3.80
-1.30
1.96
4.00
3.56
0.93
-2.31
-4.15
-3.46
-0.58
2.88
4.94
4.46
1.75
-1.62
-3.77
-3.58
-1.27
1.67
3.42
2.85
0.17
-3.19
-5.31
-4.94
-2.17
1.58
4.34
4.72
2.69
-0.44
-2.80
-3.02
-1.05
1.85
3.89
3.81
1.60
-1.49
-3.65
-3.65
-1.57
1.30
3.15
2.78
0.36
-2.72
-4.58
-4.01
-1.15
2.52
5.05
5.11
2.71
-0.73
-3.23
-3.41
-1.27
1.86
4.03
3.86
1.37
-2.05
-4.44
-4.44
-2.07
1.30
3.73
3.90
1.82
-1.18
-3.28
-3.21
-1.01
2.05
4.21
4.22
2.07
-1.05
-3.39
-3.66
-1.78
1.08
3.14
3.10
0.87
-2.31
-4.62
-4.67
-2.38
1.01
3.60
3.98
2.01
-1.11
-3.52
-3.82
-1.85
1.19
3.48
3.61
1.44
-1.84
-4.39
-4.77
-2.81
0.33
2.84
3.29
1.46
-1.51
-3.88
-4.22
-2.35
0.69
3.13
3.60
1.90
-0.88
-3.00
-3.11
-1.06
1.97
4.21
4.30
2.17
-0.98
-3.32
-3.49
-1.40
1.74
4.11
4.34
2.30
-0.82
-3.22
-3.51
-1.49
1.68
4.17
4.53
2.54
-0.69
-3.29
-3.78
-1.91
1.18
3.63
3.97
1.94
-1.31
-3.93
-4.40
-2.46
0.79
3.46
3.97
1.97
-1.46
-4.40
-5.23
-3.53
-0.38
2.37
3.08
1.38
-1.63
-4.07
-4.37
-2.18
1.37
4.37
5.24
3.62
0.59
-2.03
-2.75
-1.29
1.31
3.33
3.41
1.39
-1.67
-4.02
-4.28
-2.25
1.02
3.74
4.45
2.76
-0.33
-3.07
-3.89
-2.27
0.85
3.70
4.58
2.98
-0.21
-3.12
-4.03
-2.41
0.76
3.55
4.29
2.48
-0.78
-3.55
-4.17
-2.24
1.12
3.92
4.46
2.34
-1.35
-4.59
-5.63
-3.96
-0.61
2.51
3.66
2.32
-0.53
-3.04
-3.57
-1.66
1.66
4.52
5.26
3.43
0.04
-3.05
-4.18
-2.84
0.05
2.70
3.49
1.94
-1.06
-3.75
-4.55
-2.99
0.05
2.80
3.69
2.26
-0.57
-3.01
-3.52
-1.70
1.46
4.16
4.80
2.94
-0.47
-3.60
-4.81
-3.52
-0.58
2.30
3.44
2.20
-0.64
-3.38
-4.36
-2.96
0.04
2.90
3.94
2.57
-0.43
-3.25
-4.18
-2.62
0.59
3.65
4.85
3.54
0.58
-2.29
-3.39
-2.13
0.67
3.26
4.00
2.36
-0.81
-3.68
-4.55
-2.80
0.73
4.15
5.66
4.50
1.43
-1.77
-3.32
-2.45
0.15
2.78
3.68
2.19
-0.97
-4.00
-5.14
-3.71
-0.50
2.69
4.09
2.99
0.13
-2.78
-4.05
-3.00
-0.37
2.22
3.17
1.89
-0.91
-3.55
-4.45
-3.04
-0.07
2.73
3.74
2.33
-0.71
-3.64
-4.74
-3.35
-0.26
2.83
4.18
3.11
0.39
-2.30
-3.31
-2.04
0.74
3.29
4.05
2.45
-0.65
-3.54
-4.58
-3.16
-0.09
2.97
4.34
3.33
0.63
-2.12
-3.27
-2.12
0.70
3.52
4.67
3.40
0.38
-2.72
-4.13
-3.03
-0.08
3.05
4.53
3.50
0.57
-2.58
-4.12
-3.21
-0.41
2.56
3.91
2.85
-0.01
-2.95
-4.20
-2.98
0.01
3.07
4.42
3.27
0.28
-2.82
-4.28
-3.29
-0.43
2.59
4.00
2.91
-0.12
-3.38
-5.04
-4.12
-1.10
2.38
4.45
4.07
1.63
-1.30
-2.94
-2.33
0.11
2.77
3.94
2.74
-0.27
-3.44
-4.99
-4.05
-1.19
1.96
3.60
2.85
0.20
-2.73
-4.20
-3.30
-0.53
2.52
4.10
3.29
0.59
-2.45
-4.06
-3.30
-0.65
2.31
3.80
2.91
0.12
-2.96
-4.58
-3.82
-1.15
1.85
3.44
2.70
0.05
-2.98
-4.60
-3.82
-0.99
2.35
4.34
3.92
1.41
-1.59
-3.18
-2.28
0.71
4.07
5.80
4.83
1.65
-1.91
-3.79
-2.94
0.09
3.42
5.03
3.89
0.62
-2.90
-4.69
-3.79
-0.80
2.46
4.07
3.08
0.09
-3.15
-4.79
-3.86
-0.86
2.55
4.52
4.03
1.41
-1.85
-3.95
-3.79
-1.59
1.28
3.06
2.63
0.19
-2.84
-4.60
-3.91
-0.96
2.73
5.14
4.97
2.38
-1.07
-3.31
-3.04
-0.48
2.75
4.58
3.79
0.73
-2.90
-5.05
-4.56
-1.81
1.46
3.29
2.60
-0.19
-3.42
-5.18
-4.41
-1.51
1.94
4.07
3.77
1.32
-1.81
-3.78
-3.46
-1.07
1.95
3.80
3.34
0.81
-2.33
-4.19
-3.60
-0.78
2.77
5.11
4.97
2.49
-0.89
-3.25
-3.31
-1.14
1.87
3.84
3.51
0.96
-2.41
-4.66
-4.44
-1.83
1.76
4.36
4.56
2.32
-1.02
-3.55
-3.84
-1.79
1.32
3.63
3.76
1.62
-1.56
-3.92
-4.09
-1.94
1.33
3.86
4.24
2.30
-0.81
-3.24
-3.57
-1.64
1.39
3.66
3.74
1.50
-1.85
-4.41
-4.72
-2.62
0.66
3.19
3.53
1.49
-1.68
-4.08
-4.25
-2.06
1.22
3.66
3.85
1.68
-1.56
-3.90
-3.93
-1.58
1.78
4.18
4.17
1.74
-1.75
-4.27
-4.38
-2.00
1.49
4.12
4.45
2.37
-0.81
-3.18
-3.32
-1.14
2.09
4.48
4.61
2.35
-1.04
-3.64
-4.00
-1.93
1.35
3.89
4.20
2.07
-1.30
-4.00
-4.52
-2.62
0.54
3.10
3.59
1.83
-1.06
-3.24
-3.32
-1.19
1.93
4.16
4.12
1.67
-1.90
-4.67
-5.10
-2.96
0.57
3.58
4.46
2.87
-0.17
-2.82
-3.56
-2.02
0.81
3.14
3.47
1.47
-1.77
-4.39
-4.81
-2.72
0.73
3.57
4.18
2.21
-1.17
-3.97
-4.52
-2.46
1.05
4.01
4.75
2.87
-0.52
-3.49
-4.40
-2.85
0.16
2.78
3.43
1.75
-1.31
-3.89
-4.42
-2.52
0.82
3.76
4.69
3.18
0.21
-2.44
-3.15
-1.48
1.58
4.25
4.93
3.13
-0.19
-3.24
-4.40
-3.09
-0.15
2.69
3.79
2.55
-0.28
-3.01
-4.06
-2.83
-0.07
2.52
3.38
2.00
-0.81
-3.31
-3.96
-2.30
0.75
3.46
4.29
2.81
-0.04
-2.52
-3.12
-1.43
1.60
4.25
4.96
3.27
0.07
-2.92
-4.07
-2.78
0.18
3.11
4.33
3.14
0.19
-2.89
-4.41
-3.60
-1.01
1.77
3.06
2.11
-0.54
-3.28
-4.44
-3.31
-0.53
2.22
3.28
1.98
-0.91
-3.66
-4.52
-2.86
0.50
3.74
5.04
3.67
0.42
-2.90
-4.44
-3.38
-0.39
2.81
4.39
3.49
0.68
-2.37
-3.89
-2.99
-0.20
2.83
4.29
3.33
0.47
-2.60
-4.06
-3.07
-0.20
2.82
4.17
3.04
0.09
-2.93
-4.20
-2.91
0.19
3.35
4.72
3.47
0.31
-3.00
-4.61
-3.69
-0.88
2.11
3.46
2.35
-0.58
-3.60
-4.88
-3.56
-0.28
3.14
4.81
3.85
0.85
-2.38
-3.96
-2.98
-0.04
3.08
4.53
3.42
0.35
-2.95
-4.65
-3.84
-1.10
1.96
3.53
2.74
0.11
-2.76
-4.09
-3.00
-0.00
3.22
4.83
3.88
0.86
-2.50
-4.31
-3.53
-0.62
2.74
4.60
3.91
1.09
-2.20
-4.04
-3.40
-0.73
2.32
3.86
2.90
-0.05
-3.29
-4.91
-3.86
-0.62
3.18
5.58
5.42
2.96
-0.30
-2.51
-2.51
-0.46
2.23
3.81
3.16
0.55
-2.62
-4.52
-4.03
-1.46
1.69
3.49
2.84
0.01
-3.39
-5.43
-4.96
-2.26
1.10
3.24
3.03
0.78
-2.04
-3.64
-2.99
-0.44
2.52
4.10
3.33
0.55
-2.69
-4.56
-3.96
-1.17
2.32
4.64
4.59
2.31
-0.81
-2.96
-2.95
-0.88
1.89
3.64
3.24
0.88
-2.04
-3.72
-3.07
-0.33
3.05
5.22
5.01
2.59
-0.65
-2.87
-2.92
-0.91
1.76
3.30
2.55
-0.30
-3.78
-5.98
-5.64
-2.90
0.81
3.48
3.77
1.71
-1.32
-3.43
-3.33
-1.11
1.83
3.63
3.14
0.56
-2.58
-4.36
-3.58
-0.52
3.23
5.64
5.42
2.73
-0.92
-3.56
-3.86
-1.84
1.13
3.21
3.08
0.75
-2.48
-4.72
-4.68
-2.36
0.92
3.27
3.35
1.16
-1.97
-4.17
-4.09
-1.72
1.59
3.97
4.07
1.86
-1.35
-3.69
-3.82
-1.66
1.54
3.96
4.27
2.40
-0.43
-2.45
-2.39
-0.27
2.61
4.40
3.80
0.94
-2.74
-5.22
-5.08
-2.40
1.33
4.02
4.21
1.87
-1.57
-4.08
-4.21
-1.93
1.37
3.74
3.80
1.56
-1.64
-3.90
-3.88
-1.60
1.66
4.02
4.17
2.09
-0.96
-3.17
-3.22
-1.11
1.86
3.86
3.58
1.06
-2.34
-4.65
-4.46
-1.76
2.02
4.80
5.06
2.70
-0.93
-3.81
-4.39
-2.53
0.53
2.89
3.13
1.14
-1.80
-3.83
-3.57
-0.98
2.59
5.18
5.32
2.89
-0.83
-3.84
-4.59
-2.79
0.39
3.05
3.67
1.95
-1.02
-3.40
-3.77
-1.93
0.93
2.99
2.87
0.52
-2.71
-4.88
-4.53
-1.65
2.30
5.25
5.62
3.30
-0.35
-3.29
-3.97
-2.17
0.90
3.33
3.68
1.77
-1.27
-3.62
-3.98
-2.21
0.52
2.48
2.37
0.16
-2.93
-5.08
-4.92
-2.42
1.15
3.85
4.23
2.10
-1.26
-3.89
-4.24
-2.01
1.60
4.63
5.45
3.69
0.40
-2.51
-3.44
-1.96
1.00
3.61
4.31
2.66
-0.41
-3.10
-3.83
-2.19
0.84
3.43
4.00
2.19
-0.94
-3.52
-3.98
-2.02
1.15
3.61
3.83
1.58
-1.82
-4.40
-4.60
-2.26
1.32
4.11
4.56
2.45
-1.01
-3.82
-4.42
-2.55
0.65
3.26
3.76
1.91
-1.14
-3.48
-3.62
-1.39
2.01
4.61
4.89
2.67
-0.82
-3.59
-4.13
-2.22
0.93
3.36
3.59
1.50
-1.65
-3.91
-3.83
-1.34
2.22
4.81
4.89
2.36
-1.44
-4.44
-5.03
-2.98
0.47
3.28
3.83
1.85
-1.47
-4.15
-4.58
-2.47
1.05
4.02
4.83
3.08
-0.16
-2.99
-3.76
-2.05
1.11
3.85
4.53
2.73
-0.52
-3.31
-4.00
-2.21
1.00
3.68
4.20
2.23
-1.07
-3.72
-4.14
-2.04
1.34
4.03
4.46
2.41
-0.89
-3.54
-4.06
-2.29
0.57
2.66
2.65
0.46
-2.62
-4.75
-4.59
-2.08
1.47
4.14
4.52
2.48
-0.76
-3.31
-3.73
-1.82
1.28
3.70
3.98
1.93
-1.28
-3.78
-4.08
-1.95
1.43
4.15
4.64
2.60
-0.84
-3.76
-4.59
-2.97
0.04
2.58
3.10
1.27
-1.79
-4.20
-4.39
-2.07
1.59
4.58
5.21
3.08
-0.63
-3.88
-4.89
-3.18
0.20
3.26
4.24
2.63
-0.57
-3.42
-4.23
-2.51
0.75
3.64
4.45
2.72
-0.57
-3.49
-4.35
-2.66
0.59
3.50
4.40
2.84
-0.18
-2.81
-3.48
-1.84
1.03
3.30
3.50
1.39
-1.88
-4.46
-4.87
-2.84
0.52
3.42
4.36
2.98
0.22
-2.25
-3.00
-1.66
0.92
3.19
3.75
2.22
-0.58
-3.01
-3.64
-2.01
1.04
3.83
4.78
3.30
0.16
-2.95
-4.34
-3.31
-0.51
2.39
3.71
2.71
0.01
-2.78
-3.99
-2.92
-0.23
2.41
3.36
2.00
-0.90
-3.58
-4.38
-2.70
0.60
3.68
4.80
3.34
0.19
-2.81
-3.94
-2.59
0.35
3.06
3.86
2.22
-0.89
-3.61
-4.29
-2.47
0.81
3.62
4.30
2.43
-0.90
-3.73
-4.40
-2.51
0.85
3.74
4.46
2.59
-0.80
-3.76
-4.58
-2.78
0.61
3.64
4.54
2.78
-0.67
-3.90
-5.16
-3.84
-0.81
2.11
3.25
2.03
-0.68
-3.14
-3.74
-2.02
1.10
3.80
4.46
2.60
-0.81
-3.89
-4.93
-3.34
-0.03
3.15
4.50
3.38
0.62
-2.02
-2.93
-1.58
1.18
3.62
4.22
2.54
-0.50
-3.16
-3.93
-2.40
0.50
3.02
3.65
2.00
-0.99
-3.60
-4.29
-2.68
0.32
2.97
3.74
2.22
-0.68
-3.20
-3.81
-2.12
0.95
3.63
4.40
2.84
-0.12
-2.72
-3.45
-1.90
0.97
3.45
4.02
2.28
-0.82
-3.53
-4.28
-2.60
0.57
3.45
4.45
3.01
0.01
-2.79
-3.74
-2.26
0.79
3.65
4.63
3.13
-0.01
-3.01
-4.18
-2.94
-0.11
2.51
3.27
1.64
-1.52
-4.36
-5.21
-3.50
-0.13
3.05
4.34
3.12
0.20
-2.63
-3.74
-2.51
0.25
2.85
3.71
2.27
-0.66
-3.38
-4.32
-2.90
0.07
2.92
4.06
2.92
0.21
-2.40
-3.34
-2.00
0.92
3.74
4.81
3.45
0.35
-2.80
-4.27
-3.32
-0.55
2.35
3.70
2.75
0.14
-2.49
-3.52
-2.33
0.37
2.87
3.61
2.06
-0.95
-3.66
-4.48
-2.88
0.31
3.31
4.46
3.20
0.30
-2.49
-3.58
-2.35
0.42
3.04
3.94
2.55
-0.33
-3.05
-4.04
-2.76
-0.01
2.54
3.34
1.84
-1.15
-3.96
-4.99
-3.64
-0.67
2.25
3.48
2.36
-0.39
-3.10
-4.10
-2.69
0.44
3.59
4.95
3.75
0.64
-2.64
-4.23
-3.23
-0.22
3.07
4.76
3.90
1.04
-2.13
-3.76
-2.90
-0.11
2.92
4.37
3.36
0.51
-2.46
-3.74
-2.55
0.43
3.42
4.60
3.24
0.09
-3.03
-4.34
-3.12
-0.15
2.79
3.99
2.76
-0.11
-2.91
-4.04
-2.89
-0.23
2.32
3.23
2.01
-0.60
-3.00
-3.73
-2.34
0.40
2.91
3.71
2.28
-0.62
-3.37
-4.39
-3.07
-0.06
2.99
4.42
3.44
0.60
-2.48
-4.08
-3.30
-0.63
2.35
3.88
3.03
0.30
-2.72
-4.20
-3.19
-0.25
2.95
4.51
3.46
0.35
-3.10
-4.91
-4.07
-1.09
2.32
4.21
3.53
0.73
-2.53
-4.33
-3.63
-0.87
2.30
3.97
3.16
0.35
-2.76
-4.27
-3.16
-0.01
3.43
5.18
4.23
1.12
-2.36
-4.22
-3.40
-0.42
2.97
4.78
3.94
0.95
-2.46
-4.32
-3.53
-0.54
2.94
4.91
4.27
1.39
-2.07
-4.17
-3.78
-1.24
1.86
3.66
3.09
0.48
-2.61
-4.40
-3.86
-1.35
1.62
3.29
2.69
0.21
-2.64
-4.13
-3.32
-0.61
2.47
4.15
3.50
0.93
-1.99
-3.49
-2.66
0.06
3.06
4.52
3.49
0.44
-2.95
-4.79
-4.08
-1.21
2.14
4.05
3.44
0.65
-2.68
-4.62
-4.03
-1.21
2.29
4.52
4.28
1.81
-1.43
-3.55
-3.38
-1.13
1.81
3.63
3.26
0.95
-1.88
-3.51
-2.92
-0.43
2.51
4.18
3.55
0.91
-2.36
-4.54
-4.52
-2.45
0.44
2.55
2.79
1.18
-1.23
-2.97
-3.00
-1.34
1.01
2.64
2.57
0.85
-1.51
-3.09
-2.96
-1.21
1.12
2.63
2.41
0.55
-1.84
-3.34
-3.02
-0.99
1.63
3.41
3.38
1.57
-0.94
-2.71
-2.68
-0.86
1.73
3.56
3.56
1.72
-0.89
-2.71
-2.62
-0.66
2.00
3.71
3.34
0.98
-2.07
-4.08
-3.88
-1.55
1.56
3.66
3.56
1.32
-1.75
-3.85
-3.72
-1.38
1.90
4.29
4.52
2.58
-0.31
-2.34
-2.26
-0.14
2.75
4.60
4.19
1.66
-1.57
-3.68
-3.47
-1.12
1.91
3.76
3.25
0.55
-2.87
-5.16
-5.05
-2.66
0.66
3.07
3.29
1.31
-1.65
-3.82
-3.94
-1.96
0.94
3.02
3.05
1.01
-1.89
-3.91
-3.82
-1.61
1.44
3.54
3.40
1.08
-2.09
-4.25
-4.09
-1.61
1.81
4.27
4.39
2.08
-1.35
-4.01
-4.45
-2.48
0.74
3.38
4.00
2.38
-0.43
-2.70
-3.02
-1.16
1.82
4.19
4.54
2.62
-0.49
-3.01
-3.46
-1.59
1.54
4.07
4.51
2.57
-0.66
-3.31
-3.85
-1.99
1.15
3.64
3.97
1.86
-1.49
-4.14
-4.57
-2.54
0.71
3.22
3.50
1.42
-1.73
-3.99
-3.92
-1.47
2.01
4.52
4.64
2.34
-1.03
-3.52
-3.73
-1.63
1.45
3.59
3.42
0.92
-2.58
-5.16
-5.33
-2.96
0.68
3.64
4.36
2.55
-0.66
-3.43
-4.24
-2.73
0.06
2.43
2.94
1.28
-1.56
-3.91
-4.42
-2.83
-0.12
2.06
2.37
0.55
-2.39
-4.74
-5.07
-3.10
0.11
2.71
3.12
0.93
-2.75
-5.95
-6.91
-5.09
-1.49
1.97
3.50
2.44
-0.40
-3.27
-4.53
-3.46
-0.71
2.21
3.83
3.53
1.93
0.41
0.31
2.06
4.88
7.17
7.42
5.17
1.32
-2.22
-3.66
-2.30
1.04
4.40
5.82
4.51
1.22
-2.16
-3.75
-2.75
0.07
2.88
3.92
2.55
-0.36
-2.98
-3.66
-1.93
1.19
3.85
4.43
2.52
-0.81
-3.67
-4.41
-2.59
0.77
3.80
4.77
3.15
-0.16
-3.29
-4.54
-3.28
-0.35
2.51
3.64
2.47
-0.14
-2.51
-3.07
-1.38
1.60
4.11
4.59
2.64
-0.73
-3.69
-4.61
-3.04
0.08
2.93
3.81
2.18
-1.07
-4.13
-5.24
-3.78
-0.56
2.62
4.01
2.93
0.11
-2.70
-3.78
-2.48
0.46
3.26
4.25
2.80
-0.25
-3.10
-4.04
-2.47
0.73
3.68
4.63
2.98
-0.39
-3.58
-4.84
-3.50
-0.39
2.67
3.94
2.72
-0.22
-3.13
-4.31
-3.08
-0.16
2.76
3.98
2.82
-0.02
-2.86
-4.01
-2.76
0.19
3.13
4.33
3.12
0.21
-2.63
-3.69
-2.27
0.83
3.81
4.88
3.38
0.13
-2.96
-4.08
-2.52
0.87
4.17
5.46
3.98
0.46
-3.20
-5.09
-4.32
-1.48
1.64
3.22
2.33
-0.46
-3.45
-4.82
-3.71
-0.70
2.51
4.11
3.23
0.47
-2.51
-3.92
-2.92
-0.13
2.80
4.12
3.03
0.18
-2.73
-3.95
-2.70
0.34
3.44
4.79
3.55
0.36
-3.02
-4.71
-3.81
-0.91
2.24
3.80
2.88
0.06
-2.94
-4.29
-3.16
-0.12
3.10
4.67
3.69
0.75
-2.48
-4.18
-3.42
-0.72
2.27
3.79
2.93
0.20
-2.76
-4.18
-3.15
-0.22
2.97
4.57
3.65
0.73
-2.53
-4.29
-3.54
-0.73
2.49
4.21
3.36
0.35
-3.12
-5.06
-4.33
-1.31
2.27
4.32
3.66
0.73
-2.69
-4.50
-3.57
-0.40
3.16
5.05
4.21
1.21
-2.13
-3.84
-2.94
0.01
3.28
4.99
4.16
1.27
-2.07
-4.03
-3.60
-1.15
1.75
3.29
2.43
-0.44
-3.72
-5.50
-4.72
-1.74
1.78
3.89
3.48
0.91
-2.20
-3.96
-3.31
-0.67
2.34
3.83
2.80
-0.31
-3.76
-5.59
-4.70
-1.47
2.37
4.77
4.45
1.69
-1.90
-4.29
-4.23
-1.94
1.01
2.68
1.92
-0.99
-4.48
-6.65
-6.35
-3.89
-0.81
0.98
0.27
-2.70
-6.48
-9.14
-9.42
-7.43
-4.55
-2.66
-3.07
-5.86
-9.76
-13.01
-14.31
-13.55
-11.85
-10.81
-11.56
-14.14
-17.54
-20.36
-21.66
-21.54
-21.00
-21.26
-22.93
-25.60
-28.10
-29.32
-28.91
-27.65
-26.97
-28.00
-30.54
-32.59
-30.89
-22.47
-6.35
15.50
38.60
57.70
69.06
71.93
68.76
63.77
60.84
61.75
65.80
70.58
73.50
72.97
68.68
61.10
50.74
38.01
22.92
5.66
-12.90
-31.04
-46.60
-57.51
-62.47
-61.39
-55.33
-46.05
-35.38
-24.67
-14.60
-5.33
3.23
11.07
17.92
23.32
26.80
28.14
27.50
25.42
22.63
19.81
17.39
15.49
13.96
12.54
11.02
9.32
7.51
5.72
4.12
2.81
1.83
1.14
0.67
0.35
0.12
-0.08
-0.29
-0.50
-0.68
-0.77
-0.71
-0.45
0.01
0.61
1.25
1.80
2.18
2.44
2.72
3.22
4.09
5.35
6.85
8.27
9.19
9.36
8.73
7.52
6.09
4.77
3.69
2.63
1.14
-1.25
-4.62
-8.52
-11.99
-13.82
-13.07
-9.43
-3.49
3.52
10.02
14.94
17.96
19.58
20.63
21.74
22.93
23.37
21.76
16.71
7.30
-6.95
-25.96
-48.76
-72.88
-94.19
-107.59
-108.00
-94.32
-69.39
-39.44
-11.77
8.12
18.44
21.05
19.63
17.42
15.70
14.20
12.10
9.23
6.46
5.09
5.91
8.58
11.82
13.95
13.85
11.49
7.86
4.43
2.50
2.62
4.41
6.76
8.31
8.14
6.08
2.77
-0.67
-3.14
-3.98
-3.27
-1.75
-0.59
-0.80
-2.85
-6.47
-10.72
-14.41
-16.55
-16.85
-15.86
-14.82
-15.11
-17.65
-22.44
-28.51
-34.29
-38.33
-39.93
-39.61
-38.83
-39.32
-42.30
-47.86
-54.82
-61.16
-64.60
-62.98
-54.50
-38.07
-14.35
13.73
40.77
60.10
66.30
57.82
38.18
14.67
-4.24
-12.90
-10.44
-0.23
12.67
24.30
33.25
40.05
45.61
50.00
52.23
51.16
46.60
39.68
32.38
26.85
24.18
24.15
25.42
26.21
25.16
21.90
17.15
12.27
8.62
6.90
6.97
7.97
8.78
8.53
6.99
4.53
1.93
-0.04
-0.98
-0.95
-0.39
0.15
0.23
-0.29
-1.23
-2.26
-3.05
-3.42
-3.38
-3.08
-2.75
-2.53
-2.48
-2.58
-2.75
-2.89
-2.96
-2.96
-2.91
-2.83
-2.74
-2.64
-2.55
-2.46
-2.36
-2.27
-2.18
-2.10
-2.02
-1.95
-1.88
-1.81
-1.75
-1.69
-1.63
-1.57
-1.52
-1.47
-1.42
-1.37
-1.33
-1.29
-1.24
-1.20
-1.17
-1.13
-1.10
-1.06
-1.03
-1.00
-0.97
-0.94
-0.91
-0.89
-0.86
-0.84
-0.82
-0.79
-0.77
-0.75
-0.73
-0.71
-0.69
-0.68
-0.65
-0.64
-0.62
-0.61
-0.60
-0.58
-0.56
-0.55
-0.54
-0.52
-0.51
-0.50
-0.49
-0.47
-0.46
-0.45
-0.44
-0.43
-0.42
-0.41
-0.40
-0.40
-0.39
-0.38
-0.37
-0.36
-0.35
-0.35
-0.34
-0.33
-0.32
-0.32
-0.31
-0.31
-0.30
-0.29
-0.28
-0.28
-0.27
-0.27
-0.27
-0.26
-0.25
-0.25
-0.24
-0.24
-0.23
-0.23
-0.22
-0.22
-0.21
-0.21
-0.21
-0.20
-0.20
-0.20
-0.20
-0.19
-0.19
-0.18
-0.18
-0.16
-0.14
-0.12
-0.09
-0.04
0.01
0.06
0.13
0.20
0.28
0.36
0.45
0.54
0.63
0.72
0.81
0.91
1.02
1.14
1.27
1.40
1.53
1.63
1.71
1.79
1.91
2.06
2.26
2.53
2.86
3.22
3.60
3.99
4.37
4.77
5.21
5.71
6.30
6.99
7.74
8.54
9.35
10.17
11.01
11.97
13.07
14.33
15.74
17.16
18.52
19.77
20.91
22.07
23.40
25.02
26.97
29.17
31.37
33.30
34.72
35.44
35.41
34.65
33.22
31.07
28.03
23.69
17.73
9.90
0.26
-10.77
-22.52
-34.13
-44.75
-53.45
-60.22
-65.31
-69.43
-73.62
-78.70
-84.67
-90.15
-92.92
-90.40
-81.34
-66.59
-49.08
-32.46
-19.76
-12.46
-10.66
-13.51
-19.60
-27.03
-33.24
-35.20
-30.54
-18.86
-2.34
14.98
28.83
36.74
38.77
36.95
33.83
30.98
28.68
26.45
23.96
21.47
19.69
19.10
19.50
20.26
20.48
19.51
17.36
14.56
11.93
10.14
9.52
9.81
10.44
10.71
10.20
8.87
7.03
5.23
3.93
3.36
3.39
3.69
3.87
3.63
2.92
1.92
0.92
0.15
-0.26
-0.34
-0.27
-0.21
-0.29
-0.52
-0.81
-1.05
-1.22
-1.29
-1.33
-1.38
-1.50
-1.66
-1.80
-1.94
-2.08
-2.29
-2.64
-3.16
-3.85
-4.61
-5.34
-5.93
-6.38
-6.74
-7.19
-7.87
-8.92
-10.34
-11.94
-13.47
-14.64
-15.36
-15.75
-16.19
-17.06
-18.65
-20.97
-23.61
-25.97
-27.51
-28.03
-27.87
-27.81
-28.57
-30.55
-33.52
-36.43
-37.86
-36.56
-32.02
-24.58
-15.39
-5.52
4.62
15.25
27.33
41.76
58.72
77.47
96.74
114.76
131.10
144.95
154.40
156.09
146.65
124.24
90.33
49.99
9.25
-27.04
-57.17
-82.42
-104.99
-125.06
-139.79
-144.65
-136.09
-115.95
-90.29
-67.23
-53.05
-49.50
-53.60
-60.00
-63.88
-63.39
-59.60
-54.57
-49.69
-44.51
-37.42
-26.64
-11.58
6.82
26.54
45.08
60.86
72.79
81.79
88.90
95.05
100.46
104.61
106.49
105.12
100.53
92.73
82.99
71.82
59.93
47.57
34.63
20.84
6.08
-9.38
-25.30
-40.33
-53.73
-64.88
-73.63
-80.10
-84.50
-87.02
-87.71
-86.48
-83.07
-77.51
-69.66
-59.72
-47.99
-34.92
-20.96
-6.64
7.47
20.93
32.56
42.31
50.04
55.73
59.52
61.72
62.65
62.66
62.42
61.83
61.04
60.13
59.14
58.11
57.08
56.01
54.73
53.01
50.44
47.12
42.62
36.81
29.87
22.14
14.00
5.77
-2.41
-10.60
-19.15
-27.58
-35.43
-41.99
-46.54
-48.51
-47.75
-44.70
-40.25
-35.30
-30.53
-25.97
-21.20
-15.50
-8.39
0.01
8.86
16.83
22.80
26.29
27.62
27.77
27.85
28.68
30.83
34.85
41.24
49.96
59.70
67.38
68.75
60.08
40.28
11.55
-19.54
-45.83
-62.40
-68.13
-65.58
-58.98
-52.17
-47.34
-45.10
-45.78
-49.84
-58.31
-71.44
-87.42
-101.95
-109.32
-104.69
-85.87
-56.56
-23.78
4.74
23.75
32.16
32.62
29.39
25.91
23.50
21.68
19.71
17.63
16.50
17.47
20.69
24.90
28.01
28.26
25.09
19.96
15.35
13.70
16.11
21.69
27.93
31.91
31.62
26.93
19.79
13.25
10.19
12.54
20.39
31.69
42.44
47.25
40.60
18.89
-17.60
-63.43
-108.67
-141.91
-154.32
-143.23
-113.15
-73.69
-35.46
-5.98
12.26
21.16
24.43
25.08
24.19
21.52
16.89
11.24
6.65
5.23
7.71
12.93
18.40
21.65
21.20
17.51
12.50
8.55
7.41
9.40
13.43
17.64
20.29
20.61
19.03
16.86
15.59
16.17
18.60
22.06
25.40
27.72
28.78
29.08
29.54
31.00
33.80
37.71
42.00
45.83
48.66
50.39
51.54
53.18
56.56
62.57
71.00
80.10
86.84
87.89
80.98
66.02
45.22
22.26
0.88
-16.33
-28.41
-35.58
-38.58
-38.19
-35.19
-30.66
-26.12
-23.07
-22.36
-23.70
-25.79
-27.11
-26.89
-25.45
-24.12
-24.32
-26.66
-30.48
-34.31
-36.74
-37.47
-37.56
-38.89
-43.03
-50.34
-59.66
-69.02
-76.76
-82.50
-87.34
-93.07
-101.00
-111.05
-121.54
-129.87
-133.93
-132.69
-126.62
-117.20
-105.98
-93.62
-79.74
-63.49
-44.68
-24.64
-6.03
8.17
16.40
19.62
21.12
24.95
33.83
47.61
63.21
76.26
83.25
83.24
78.09
71.24
65.76
62.88
61.67
60.07
56.32
50.10
42.76
36.48
32.99
32.55
33.79
34.42
32.57
27.87
21.67
16.31
13.90
15.01
18.41
21.72
22.71
20.58
16.32
12.13
10.07
10.91
13.66
16.16
16.30
13.22
7.76
2.02
-1.76
-2.44
-0.49
2.29
3.84
2.99
0.10
-3.17
-4.94
-4.15
-1.27
1.93
3.45
2.25
-1.08
-4.69
-6.49
-5.43
-2.14
1.46
3.25
2.11
-1.39
-5.36
-7.70
-7.23
-4.42
-1.00
0.98
0.29
-2.70
-6.31
-8.47
-7.94
-4.99
-1.28
1.08
0.74
-2.09
-5.73
-8.02
-7.52
-4.40
-0.32
2.54
2.75
0.44
-2.78
-4.82
-4.31
-1.46
2.11
4.29
3.78
0.82
-2.87
-5.13
-4.58
-1.47
2.51
5.18
5.19
2.72
-0.59
-2.69
-2.30
0.31
3.55
5.47
4.87
2.07
-1.34
-3.40
-2.92
-0.13
3.50
6.05
6.26
4.19
1.14
-1.14
-1.39
0.49
3.39
5.65
6.01
4.33
1.64
-0.46
-0.75
0.97
3.74
6.01
6.66
5.61
3.91
3.10
4.17
6.96
10.19
12.34
12.71
12.02
12.16
15.13
21.54
29.74
36.00
35.95
26.62
8.09
-16.06
-40.04
-58.08
-66.79
-66.14
-59.00
-49.27
-39.89
-31.72
-24.05
-15.89
-7.41
-0.33
2.99
1.18
-4.93
-12.28
-16.96
-16.14
-9.46
0.70
10.52
16.67
17.89
15.41
11.95
10.09
10.82
13.13
14.86
14.18
10.77
6.07
2.41
1.63
3.91
7.66
10.47
10.49
7.53
3.19
-0.18
-0.80
1.48
5.10
7.76
7.78
5.04
1.09
-1.88
-2.25
0.04
3.45
5.78
5.45
2.44
-1.66
-4.65
-4.92
-2.42
1.37
4.26
4.65
2.44
-0.93
-3.36
-3.35
-0.88
2.58
4.89
4.53
1.47
-2.76
-5.92
-6.37
-3.95
-0.10
2.98
3.55
1.33
-2.34
-5.31
-5.81
-3.50
0.36
3.62
4.46
2.45
-1.15
-4.22
-4.92
-2.85
0.74
3.69
4.24
2.07
-1.43
-4.09
-4.19
-1.57
2.24
5.00
5.02
2.26
-1.68
-4.50
-4.55
-1.84
2.03
4.82
4.99
2.55
-0.95
-3.41
-3.39
-0.97
2.37
4.61
4.42
1.89
-1.53
-3.96
-4.14
-2.17
0.64
2.54
2.38
0.27
-2.53
-4.30
-3.93
-1.49
1.73
3.94
3.88
1.51
-1.91
-4.53
-4.90
-2.80
0.59
3.34
3.91
2.00
-1.26
-3.90
-4.32
-2.21
1.19
3.93
4.41
2.40
-0.87
-3.41
-3.69
-1.56
1.75
4.27
4.52
2.32
-1.09
-3.85
-4.49
-2.84
-0.01
2.21
2.40
0.39
-2.68
-5.01
-5.18
-2.98
0.40
3.05
3.42
1.31
-2.03
-4.60
-4.79
-2.33
1.49
4.59
5.32
3.42
0.15
-2.39
-2.58
-0.20
3.40
6.18
6.54
4.31
0.84
-1.86
-2.26
-0.23
2.89
5.11
4.98
2.41
-1.21
-3.90
-4.22
-2.09
1.18
3.68
4.02
2.07
-0.97
-3.29
-3.58
-1.69
1.26
3.57
3.92
2.12
-0.82
-3.26
-3.86
-2.33
0.38
2.63
3.01
1.15
-1.99
-4.67
-5.35
-3.56
-0.30
2.57
3.39
1.68
-1.52
-4.26
-4.83
-2.79
0.72
3.67
4.36
2.44
-0.88
-3.57
-3.96
-1.78
1.71
4.52
5.03
2.98
-0.45
-3.33
-4.10
-2.49
0.46
2.92
3.41
1.61
-1.43
-3.96
-4.50
-2.76
0.19
2.53
2.70
0.41
-3.17
-6.05
-6.53
-4.25
-0.41
2.87
3.80
1.99
-1.33
-3.99
-4.22
-1.67
2.30
5.49
6.10
3.81
-0.06
-3.33
-4.25
-2.47
0.80
3.56
4.22
2.46
-0.60
-3.14
-3.68
-1.96
0.97
3.35
3.70
1.74
-1.45
-4.06
-4.51
-2.46
1.04
4.02
4.82
2.99
-0.39
-3.31
-4.05
-2.13
1.32
4.30
5.10
3.31
0.05
-2.75
-3.46
-1.74
1.27
3.72
4.09
2.11
-1.08
-3.68
-4.21
-2.42
0.61
3.11
3.60
1.77
-1.37
-4.04
-4.73
-2.99
0.23
3.17
4.22
2.86
-0.05
-2.79
-3.74
-2.37
0.46
2.99
3.67
2.03
-0.94
-3.42
-3.83
-1.77
1.67
4.54
5.13
2.98
-0.79
-4.11
-5.16
-3.33
0.32
3.73
4.98
3.39
-0.10
-3.46
-4.78
-3.36
-0.14
2.91
3.94
2.40
-0.67
-3.20
-3.43
-0.95
3.00
6.18
6.67
3.96
-0.70
-5.01
-6.82
-5.42
-1.83
1.77
3.33
2.16
-0.77
-3.36
-3.74
-1.33
2.67
6.02
6.70
4.16
-0.38
-4.54
-6.18
-4.64
-0.99
2.53
3.95
2.62
-0.46
-3.24
-3.92
-1.99
1.45
4.33
4.78
2.32
-1.82
-5.37
-6.25
-3.85
0.65
4.83
6.42
4.54
0.25
-4.08
-6.14
-4.96
-1.47
2.11
3.66
2.41
-0.60
-3.24
-3.60
-1.19
2.74
5.84
6.11
3.07
-1.90
-6.28
-7.85
-5.86
-1.54
2.69
4.51
3.00
-0.88
-4.85
-6.66
-5.34
-1.73
2.05
3.88
2.86
-0.16
-3.18
-4.21
-2.50
1.00
4.23
5.26
3.45
-0.14
-3.34
-4.17
-1.98
2.07
5.71
6.86
4.85
0.83
-2.93
-4.29
-2.54
1.21
4.67
5.74
3.71
-0.29
-3.96
-5.14
-3.08
1.12
5.11
6.62
4.79
0.61
-3.58
-5.53
-4.20
-0.48
3.45
5.29
3.96
0.21
-3.85
-5.98
-5.07
-1.78
1.88
3.74
2.75
-0.38
-3.65
-4.93
-3.30
0.39
3.96
5.28
3.50
-0.31
-3.79
-4.73
-2.31
2.28
6.61
8.27
6.32
1.73
-3.14
-5.84
-5.26
-2.11
1.48
3.27
2.26
-0.84
-3.95
-4.97
-3.00
1.02
4.88
6.29
4.31
-0.09
-4.59
-6.79
-5.64
-2.00
1.91
3.81
2.72
-0.52
-3.72
-4.79
-2.79
1.29
5.25
6.83
5.02
0.70
-3.95
-6.55
-5.95
-2.73
1.07
3.29
2.83
0.29
-2.41
-3.30
-1.48
2.22
5.72
6.89
4.87
0.64
-3.57
-5.45
-4.04
-0.19
3.87
5.87
4.69
1.04
-3.00
-5.20
-4.41
-1.26
2.27
4.04
3.00
-0.17
-3.48
-4.79
-3.14
0.70
4.58
6.30
4.82
0.96
-3.09
-5.05
-3.79
-0.06
4.02
6.13
5.08
1.46
-2.73
-5.21
-4.71
-1.68
1.99
4.11
3.41
0.34
-3.26
-5.21
-4.33
-1.11
2.53
4.39
3.35
0.02
-3.58
-5.23
-3.81
-0.04
3.93
5.74
4.21
0.04
-4.55
-7.08
-6.17
-2.38
2.12
4.78
4.11
0.50
-3.99
-6.83
-6.44
-3.11
1.24
4.16
4.12
1.38
-2.22
-4.36
-3.66
-0.45
3.40
5.60
4.87
1.70
-1.95
-3.80
-2.60
1.05
5.07
7.06
5.71
1.57
-3.20
-6.10
-5.70
-2.43
1.70
4.26
3.81
0.67
-3.32
-5.84
-5.50
-2.60
1.06
3.26
2.71
-0.19
-3.60
-5.26
-3.92
-0.10
4.18
6.50
5.45
1.51
-3.21
-6.13
-5.68
-2.20
2.27
5.17
4.85
1.55
-2.84
-5.82
-5.76
-2.81
1.19
3.85
3.64
0.77
-2.86
-4.86
-3.75
0.08
4.57
7.15
6.23
2.19
-2.79
-6.02
-5.76
-2.28
2.40
5.70
5.95
3.31
-0.44
-2.96
-2.80
-0.18
3.16
5.06
4.27
1.17
-2.38
-4.21
-3.08
0.51
4.59
6.80
5.81
2.08
-2.37
-5.08
-4.51
-0.98
3.55
6.55
6.33
2.96
-1.78
-5.35
-5.94
-3.41
0.63
3.75
4.12
1.53
-2.54
-5.74
-6.29
-3.98
-0.30
2.51
2.82
0.53
-2.84
-5.13
-4.80
-1.91
1.93
4.54
4.49
1.91
-1.53
-3.65
-3.01
0.17
4.18
6.72
6.29
3.08
-1.15
-4.04
-3.99
-1.10
2.93
5.70
5.55
2.47
-1.88
-5.14
-5.59
-3.12
0.67
3.50
3.68
1.15
-2.55
-5.21
-5.24
-2.63
1.04
3.56
3.38
0.58
-3.19
-5.67
-5.29
-2.11
2.26
5.53
6.08
3.76
-0.04
-3.22
-4.15
-2.59
0.28
2.52
2.62
0.35
-3.09
-5.73
-5.98
-3.59
0.16
3.19
3.84
1.89
-1.29
-3.49
-3.07
0.09
4.44
7.63
7.91
5.13
0.79
-2.84
-4.00
-2.44
0.56
2.95
3.13
0.91
-2.46
-4.96
-5.07
-2.58
1.19
4.21
4.86
2.91
-0.35
-2.90
-3.11
-0.77
2.81
5.51
5.65
2.98
-1.14
-4.52
-5.37
-3.31
0.40
3.58
4.42
2.45
-1.15
-4.27
-5.12
-3.25
0.19
3.13
3.85
1.99
-1.24
-3.77
-3.95
-1.51
2.27
5.27
5.80
3.54
-0.25
-3.48
-4.43
-2.71
0.51
3.20
3.67
1.56
-1.95
-4.81
-5.30
-3.01
0.88
4.27
5.31
3.48
-0.14
-3.46
-4.62
-3.05
0.19
3.10
3.93
2.21
-0.99
-3.69
-4.24
-2.24
1.18
4.01
4.59
2.53
-0.98
-3.91
-4.51
-2.38
1.31
4.47
5.28
3.22
-0.60
-4.10
-5.42
-3.93
-0.68
2.33
3.30
1.72
-1.36
-3.96
-4.36
-2.12
1.63
4.89
5.88
4.06
0.40
-3.20
-4.96
-4.22
-1.72
0.85
1.87
0.75
-1.78
-4.05
-4.49
-2.57
0.87
4.03
5.19
3.74
0.48
-2.75
-4.20
-3.15
-0.35
2.49
3.65
2.45
-0.37
-3.12
-4.13
-2.75
0.27
3.22
4.49
3.47
0.94
-1.43
-2.11
-0.59
2.30
4.83
5.40
3.46
-0.16
-3.68
-5.36
-4.45
-1.60
1.49
3.08
2.38
-0.02
-2.50
-3.36
-1.91
1.13
4.05
5.12
3.65
0.38
-2.90
-4.44
-3.49
-0.76
2.07
3.27
2.15
-0.60
-3.30
-4.27
-2.84
0.27
3.30
4.51
3.23
0.18
-2.83
-4.07
-2.78
0.32
3.46
4.83
3.62
0.46
-2.97
-4.84
-4.25
-1.68
1.26
2.82
2.13
-0.31
-2.90
-3.95
-2.67
0.32
3.33
4.63
3.41
0.29
-3.01
-4.71
-3.94
-1.26
1.72
3.20
2.36
-0.26
-2.99
-4.07
-2.66
0.66
4.15
5.95
5.11
2.17
-1.18
-3.06
-2.51
0.01
2.85
4.17
2.99
-0.21
-3.76
-5.77
-5.16
-2.39
0.88
2.69
2.00
-0.71
-3.65
-4.87
-3.35
0.30
4.17
6.19
5.28
2.00
-1.80
-4.05
-3.65
-1.03
2.12
3.83
2.99
-0.02
-3.56
-5.66
-5.14
-2.33
1.15
3.30
2.91
0.31
-2.82
-4.45
-3.39
-0.06
3.74
5.89
5.19
2.13
-1.46
-3.47
-2.73
0.31
3.81
5.69
4.88
1.89
-1.45
-3.10
-2.07
1.05
4.36
5.82
4.47
0.99
-2.67
-4.47
-3.43
-0.24
3.15
4.68
3.35
-0.17
-3.92
-5.83
-4.86
-1.63
1.93
3.69
2.54
-0.94
-4.79
-6.81
-5.78
-2.21
1.95
4.43
3.99
1.07
-2.40
-4.25
-3.28
-0.01
3.69
5.68
4.87
1.74
-1.86
-3.89
-3.22
-0.32
3.06
4.87
3.93
0.61
-3.36
-5.85
-5.52
-2.59
1.31
4.05
4.27
2.14
-0.76
-2.47
-1.77
0.98
4.11
5.59
4.32
0.78
-3.22
-5.55
-5.04
-2.10
1.49
3.66
3.24
0.62
-2.52
-4.21
-3.31
-0.23
3.34
5.39
4.71
1.61
-2.29
-4.93
-5.01
-2.72
0.45
2.52
2.28
-0.10
-3.06
-4.66
-3.69
-0.47
3.29
5.44
4.66
1.24
-3.03
-5.87
-5.83
-3.08
0.68
3.28
3.30
0.91
-2.28
-4.19
-3.53
-0.59
2.93
4.91
4.06
0.73
-3.27
-5.68
-5.08
-1.72
2.63
5.63
5.70
2.86
-1.27
-4.45
-5.02
-2.90
0.50
3.10
3.44
1.52
-1.28
-3.04
-2.50
0.14
3.32
5.09
4.25
1.19
-2.35
-4.26
-3.33
0.03
3.99
6.33
5.68
2.33
-1.99
-5.06
-5.40
-3.13
0.18
2.43
2.23
-0.27
-3.53
-5.45
-4.72
-1.49
2.60
5.39
5.45
2.89
-0.71
-3.27
-3.32
-0.95
2.36
4.55
4.25
1.50
-2.23
-4.87
-4.98
-2.55
0.95
3.51
3.70
1.58
-1.38
-3.20
-2.56
0.32
3.85
5.96
5.35
2.23
-1.77
-4.56
-4.78
-2.54
0.62
2.69
2.33
-0.33
-3.73
-5.81
-5.18
-1.94
2.30
5.36
5.71
3.35
-0.21
-2.86
-3.06
-0.79
2.53
4.83
4.63
1.87
-2.03
-4.99
-5.49
-3.40
-0.05
2.52
2.84
0.80
-2.19
-4.15
-3.67
-0.81
2.88
5.25
4.80
1.63
-2.62
-5.67
-5.93
-3.35
0.52
3.49
3.98
1.91
-1.29
-3.61
-3.55
-1.14
2.20
4.42
4.11
1.34
-2.37
-4.84
-4.59
-1.62
2.48
5.44
5.61
2.88
-1.22
-4.43
-5.02
-2.83
0.68
3.36
3.64
1.48
-1.61
-3.52
-2.85
0.28
4.23
6.79
6.43
3.18
-1.35
-4.92
-5.80
-3.84
-0.41
2.39
2.94
1.07
-1.89
-3.87
-3.35
-0.30
3.75
6.57
6.47
3.36
-1.19
-4.87
-5.84
-3.84
-0.29
2.55
2.93
0.59
-3.02
-5.68
-5.62
-2.68
1.62
4.89
5.35
2.88
-0.86
-3.46
-3.15
0.09
4.55
7.76
7.97
5.12
0.84
-2.55
-3.36
-1.44
1.74
4.03
3.83
1.06
-2.85
-5.74
-6.00
-3.52
0.25
3.14
3.55
1.39
-1.84
-3.99
-3.54
-0.54
3.36
5.89
5.43
2.02
-2.68
-6.30
-7.07
-4.83
-1.03
2.08
2.84
1.05
-1.92
-3.94
-3.49
-0.48
3.56
6.38
6.31
3.20
-1.42
-5.22
-6.31
-4.40
-0.80
2.26
2.99
1.08
-2.15
-4.49
-4.29
-1.31
2.94
6.15
6.49
3.70
-0.72
-4.40
-5.42
-3.39
0.34
3.56
4.44
2.64
-0.58
-3.10
-3.28
-0.93
2.56
5.10
5.18
2.77
-0.63
-2.91
-2.63
0.13
3.79
6.20
5.93
3.01
-1.03
-4.05
-4.55
-2.38
1.11
3.91
4.39
2.22
-1.45
-4.72
-5.94
-4.62
-1.76
0.79
1.35
-0.51
-3.74
-6.39
-6.71
-4.30
-0.32
3.10
4.19
2.55
-0.56
-3.05
-3.20
-0.73
3.01
5.90
6.24
3.76
-0.24
-3.65
-4.78
-3.22
-0.13
2.58
3.25
1.47
-1.69
-4.35
-4.87
-2.87
0.59
3.59
4.48
2.93
0.04
-2.26
-2.38
-0.05
3.52
6.34
6.83
4.68
1.09
-1.98
-2.87
-1.19
2.00
4.80
5.50
3.56
-0.11
-3.62
-5.19
-4.11
-1.16
1.80
2.92
1.39
-2.00
-5.34
-6.65
-5.08
-1.42
2.31
4.04
2.85
-0.48
-3.91
-5.40
-4.07
-0.73
2.62
3.99
2.58
-0.74
-3.96
-5.14
-3.53
-0.07
3.24
4.45
2.90
-0.46
-3.55
-4.47
-2.57
1.09
4.34
5.26
3.25
-0.56
-3.94
-4.92
-2.92
0.89
4.22
5.08
2.85
-1.28
-5.01
-6.30
-4.48
-0.70
2.77
3.87
1.87
-2.14
-5.95
-7.44
-5.83
-2.03
1.81
3.65
2.63
-0.43
-3.56
-4.83
-3.44
-0.19
3.07
4.55
3.62
1.13
-1.09
-1.40
0.65
3.99
6.66
7.01
4.74
1.05
-1.95
-2.52
-0.34
3.29
6.17
6.43
3.60
-1.05
-5.25
-6.95
-5.52
-1.96
1.60
3.19
2.07
-0.87
-3.77
-4.85
-3.53
-0.69
1.92
2.79
1.60
-0.63
-2.20
-1.81
0.62
3.81
5.92
5.66
3.09
-0.35
-2.66
-2.41
0.37
4.19
6.89
6.86
3.96
-0.35
-3.87
-4.78
-2.75
0.93
4.10
4.88
2.78
-1.08
-4.63
-6.02
-4.65
-1.45
1.66
2.91
1.64
-1.31
-4.17
-5.22
-3.82
-0.76
2.23
3.48
2.32
-0.46
-3.12
-3.99
-2.40
0.81
3.79
4.72
2.86
-0.92
-4.67
-6.34
-5.08
-1.67
1.87
3.45
2.14
-1.22
-4.58
-5.80
-4.05
-0.26
3.39
4.80
3.22
-0.25
-3.40
-4.17
-1.99
1.99
5.50
6.62
4.81
1.26
-1.90
-2.87
-1.18
2.00
4.66
5.08
2.85
-0.92
-4.25
-5.43
-3.98
-0.90
1.91
2.82
1.43
-1.19
-3.19
-3.03
-0.50
3.15
5.92
6.24
3.90
0.18
-2.87
-3.64
-1.81
1.40
4.00
4.34
2.03
-1.81
-5.20
-6.37
-4.80
-1.49
1.67
2.96
1.84
-0.74
-2.96
-3.23
-1.19
2.05
4.59
4.83
2.45
-1.36
-4.59
-5.51
-3.70
-0.26
2.81
3.81
2.29
-0.65
-3.07
-3.35
-1.15
2.33
5.11
5.59
3.52
0.11
-2.69
-3.33
-1.60
1.30
3.48
3.40
0.89
-2.83
-5.77
-6.32
-4.14
-0.42
2.86
3.97
2.51
-0.47
-3.01
-3.49
-1.53
1.73
4.32
4.60
2.28
-1.45
-4.54
-5.33
-3.46
-0.09
2.82
3.64
2.07
-0.79
-3.05
-3.19
-0.97
2.35
4.78
4.70
1.92
-2.25
-5.61
-6.38
-4.18
-0.29
3.11
4.10
2.21
-1.40
-4.55
-5.41
-3.52
-0.08
2.82
3.47
1.59
-1.56
-3.92
-3.94
-1.45
2.15
4.74
4.71
1.93
-2.12
-5.22
-5.62
-3.10
0.93
4.23
5.01
2.97
-0.59
-3.50
-4.05
-1.96
1.43
4.03
4.20
1.80
-1.74
-4.28
-4.22
-1.47
2.54
5.63
6.21
4.11
0.68
-2.04
-2.49
-0.48
2.69
5.01
4.93
2.25
-1.73
-4.94
-5.68
-3.63
-0.00
3.10
3.96
2.22
-0.87
-3.24
-3.25
-0.67
3.09
5.85
5.95
3.22
-0.85
-4.04
-4.60
-2.32
1.42
4.44
4.99
2.74
-1.03
-4.21
-5.09
-3.30
-0.04
2.67
3.21
1.40
-1.46
-3.31
-2.64
0.52
4.59
7.32
7.15
4.12
-0.13
-3.27
-3.67
-1.24
2.49
5.30
5.50
2.87
-1.25
-4.74
-5.91
-4.38
-1.32
1.27
1.72
-0.38
-3.85
-6.65
-7.06
-4.74
-0.95
2.16
2.85
0.86
-2.41
-4.74
-4.44
-1.47
2.61
5.48
5.55
2.87
-0.86
-3.34
-3.06
-0.17
3.61
6.00
5.56
2.40
-1.80
-4.83
-5.21
-2.93
0.49
2.93
2.82
0.07
-3.91
-6.97
-7.43
-5.06
-1.22
1.91
2.57
0.47
-3.01
-5.62
-5.56
-2.61
1.71
5.02
5.50
3.00
-0.87
-3.70
-3.75
-1.00
2.86
5.46
5.22
2.28
-1.60
-4.10
-3.72
-0.70
3.21
5.79
5.63
2.96
-0.55
-2.83
-2.64
-0.24
2.75
4.42
3.67
0.90
-2.24
-3.84
-2.90
0.09
3.40
5.07
4.09
1.01
-2.35
-4.00
-2.89
0.41
4.03
5.84
4.69
1.07
-3.16
-5.76
-5.42
-2.41
1.53
4.19
4.13
1.44
-2.32
-5.04
-5.23
-2.90
0.49
2.95
3.09
1.02
-1.78
-3.34
-2.42
0.69
4.26
6.14
5.03
1.31
-3.12
-5.85
-5.42
-2.10
2.20
5.01
4.71
1.43
-3.08
-6.41
-6.88
-4.46
-0.72
2.14
2.57
0.59
-2.29
-4.02
-3.26
-0.21
3.43
5.55
4.90
1.89
-1.57
-3.21
-1.77
2.20
6.58
8.81
7.44
2.89
-2.70
-6.66
-7.24
-4.59
-0.53
2.50
2.82
0.54
-2.69
-4.66
-3.97
-0.91
2.75
4.80
4.01
0.87
-2.65
-4.28
-2.82
1.08
5.27
7.35
6.10
2.19
-2.20
-4.59
-3.72
-0.19
3.87
6.01
4.87
0.95
-3.72
-6.69
-6.50
-3.45
0.55
3.12
2.72
-0.45
-4.53
-7.17
-6.76
-3.51
0.72
3.48
3.22
0.24
-3.47
-5.45
-4.24
-0.31
4.20
6.81
6.20
3.00
-0.62
-2.27
-0.85
2.89
6.76
8.47
6.99
3.09
-1.11
-3.37
-2.65
0.44
3.93
5.68
4.52
0.93
-3.25
-5.86
-5.60
-2.81
0.76
2.89
2.20
-1.07
-5.12
-7.63
-7.10
-3.75
0.59
3.47
3.27
0.11
-4.18
-7.11
-7.00
-3.90
0.39
3.40
3.47
0.66
-3.25
-5.85
-5.53
-2.42
1.71
4.52
4.48
1.74
-1.96
-4.37
-4.09
-1.38
2.08
4.18
3.74
1.20
-1.69
-2.89
-1.42
2.03
5.50
6.90
5.39
1.84
-1.60
-2.83
-1.05
2.69
6.13
7.12
4.92
0.69
-3.19
-4.54
-2.61
1.39
5.07
6.16
3.91
-0.52
-4.66
-6.19
-4.24
0.08
4.29
5.99
4.19
-0.12
-4.51
-6.54
-5.13
-1.19
2.87
4.55
2.69
-1.86
-6.69
-9.20
-8.09
-4.07
0.50
2.99
2.06
-1.63
-5.80
-7.92
-6.70
-2.84
1.39
3.60
2.68
-0.52
-3.72
-4.64
-2.40
1.94
6.03
7.62
5.93
2.10
-1.49
-2.67
-0.75
3.03
6.30
6.95
4.41
0.02
-3.73
-4.67
-2.25
2.15
5.94
6.87
4.30
-0.34
-4.43
-5.68
-3.42
0.93
4.71
5.63
3.07
-1.48
-5.35
-6.24
-3.59
1.08
5.09
6.18
3.82
-0.44
-3.96
-4.53
-1.75
2.82
6.51
7.22
4.56
0.11
-3.51
-4.26
-1.79
2.36
5.65
6.06
3.20
-1.44
-5.40
-6.66
-4.76
-1.06
2.07
2.70
0.42
-3.31
-6.07
-5.90
-2.48
2.61
6.73
7.71
5.08
0.35
-3.86
-5.30
-3.35
0.62
4.09
4.87
2.36
-2.11
-5.99
-7.09
-4.77
-0.36
3.62
4.97
3.04
-0.84
-4.27
-5.14
-2.93
0.96
4.11
4.46
1.61
-2.92
-6.64
-7.43
-4.87
-0.42
3.41
4.55
2.60
-0.98
-3.71
-3.61
-0.40
4.32
8.00
8.60
5.79
1.09
-2.98
-4.38
-2.66
0.86
3.85
4.36
1.92
-2.23
-5.80
-6.84
-4.80
-0.96
2.31
2.95
0.46
-3.73
-7.07
-7.37
-4.21
0.77
4.79
5.62
2.93
-1.45
-4.71
-4.70
-1.36
3.33
6.56
6.37
2.94
-1.61
-4.47
-3.87
-0.13
4.52
7.32
6.58
2.70
-2.06
-4.98
-4.40
-0.74
3.79
6.51
5.82
2.13
-2.41
-5.23
-4.79
-1.52
2.53
4.85
4.03
0.54
-3.56
-5.82
-4.83
-1.06
3.40
6.08
5.48
1.96
-2.50
-5.46
-5.38
-2.51
1.30
3.67
3.15
0.01
-3.89
-6.25
-5.66
-2.48
1.39
3.67
3.02
-0.10
-3.75
-5.67
-4.62
-1.15
2.77
4.90
4.09
0.97
-2.42
-3.88
-2.35
1.44
5.36
7.11
5.59
1.53
-2.89
-5.25
-4.31
-0.70
3.45
5.65
4.53
0.54
-4.28
-7.46
-7.47
-4.60
-0.69
1.93
1.79
-0.85
-4.15
-5.91
-4.80
-1.25
2.78
4.97
4.07
0.67
-3.07
-4.71
-2.97
1.46
6.26
8.76
7.52
3.10
-2.20
-5.68
-5.77
-2.83
1.10
3.61
3.31
0.68
-2.34
-3.55
-1.86
1.97
5.75
7.20
5.27
0.86
-3.64
-5.73
-4.23
0.04
4.64
6.88
5.32
0.60
-4.94
-8.47
-8.32
-4.85
-0.16
3.12
3.39
0.99
-2.08
-3.51
-2.05
1.57
5.18
6.50
4.60
0.55
-3.15
-4.10
-1.49
3.40
7.83
9.19
6.47
0.86
-4.93
-8.14
-7.51
-3.84
0.53
3.09
2.64
-0.18
-3.32
-4.65
-3.22
0.11
3.28
4.30
2.43
-1.23
-4.41
-5.02
-2.40
2.26
6.47
7.90
5.66
0.80
-4.26
-7.07
-6.51
-3.32
0.42
2.52
1.95
-0.60
-3.24
-4.06
-2.28
1.24
4.51
5.64
3.96
0.45
-2.76
-3.74
-1.84
1.86
5.17
6.06
3.81
-0.49
-4.63
-6.46
-5.19
-1.77
1.69
3.19
2.06
-0.69
-2.97
-2.94
-0.15
4.05
7.26
7.48
4.25
-0.90
-5.34
-6.76
-4.53
-0.02
4.15
5.61
3.59
-0.72
-4.88
-6.67
-5.33
-1.96
1.25
2.39
1.01
-1.61
-3.31
-2.40
1.21
5.90
9.16
9.10
5.48
-0.08
-4.94
-6.91
-5.40
-1.67
1.96
3.48
2.28
-0.50
-2.80
-2.84
-0.25
3.64
6.66
6.99
4.33
0.09
-3.41
-4.30
-2.20
1.51
4.52
4.91
2.26
-2.13
-5.95
-7.23
-5.50
-1.94
1.25
2.22
0.54
-2.57
-4.96
-4.96
-2.28
1.70
4.82
5.42
3.35
0.04
-2.37
-2.32
0.22
3.73
6.05
5.62
2.39
-2.12
-5.67
-6.61
-4.71
-1.37
1.34
1.85
0.01
-2.82
-4.60
-3.88
-0.66
3.50
6.42
6.48
3.59
-0.74
-4.32
-5.44
-3.87
-0.87
1.60
2.10
0.54
-1.81
-3.14
-2.24
0.69
4.16
6.19
5.54
2.44
-1.48
-4.12
-4.10
-1.55
2.03
4.53
4.53
2.02
-1.59
-4.31
-4.69
-2.67
0.41
2.62
2.63
0.49
-2.36
-3.96
-3.09
-0.01
3.59
5.58
4.63
1.07
-3.31
-6.24
-6.24
-3.49
0.35
3.08
3.25
0.93
-2.42
-4.80
-4.85
-2.65
0.42
2.55
2.59
0.76
-1.48
-2.36
-0.94
2.32
5.66
7.11
5.67
1.92
-2.20
-4.46
-3.67
-0.29
3.74
6.13
5.50
2.20
-1.99
-4.85
-5.01
-2.66
0.57
2.62
2.21
-0.42
-3.72
-5.72
-5.21
-2.47
0.98
3.22
3.12
0.98
-1.70
-3.10
-2.24
0.41
3.25
4.50
3.30
0.32
-2.65
-3.73
-2.08
1.54
5.18
6.73
5.24
1.37
-2.88
-5.35
-4.86
-1.91
1.69
3.84
3.33
0.48
-3.06
-5.34
-5.20
-2.96
-0.12
1.53
1.08
-0.97
-3.00
-3.33
-1.28
2.34
5.63
6.69
4.80
0.82
-3.23
-5.29
-4.46
-1.43
1.95
3.74
3.06
0.53
-2.17
-3.27
-2.04
0.82
3.58
4.50
2.87
-0.48
-3.68
-4.86
-3.25
0.36
3.99
5.60
4.22
0.48
-3.73
-6.28
-6.03
-3.41
-0.11
1.90
1.58
-0.64
-3.12
-4.07
-2.65
0.49
3.63
5.02
3.96
1.28
-1.17
-1.69
0.27
3.68
6.52
7.01
4.69
0.73
-2.72
-3.79
-1.97
1.54
4.55
5.13
2.76
-1.37
-5.07
-6.37
-4.67
-1.04
2.37
3.58
1.89
-1.72
-5.24
-6.69
-5.26
-1.77
1.83
3.57
2.59
-0.44
-3.66
-5.17
-4.14
-1.26
1.69
2.98
1.97
-0.48
-2.58
-2.74
-0.57
2.83
5.51
5.88
3.73
0.33
-2.23
-2.33
0.19
3.91
6.63
6.65
3.73
-0.69
-4.33
-5.35
-3.37
0.35
3.64
4.63
2.82
-0.74
-4.11
-5.53
-4.46
-1.81
0.70
1.57
0.39
-1.88
-3.59
-3.37
-1.04
2.22
4.51
4.39
1.71
-2.16
-5.07
-5.35
-2.74
1.37
4.75
5.53
3.33
-0.63
-4.12
-5.29
-3.63
-0.29
2.65
3.36
1.36
-2.25
-5.44
-6.43
-4.73
-1.43
1.51
2.44
1.00
-1.63
-3.52
-3.14
-0.37
3.37
5.98
5.91
3.14
-0.74
-3.47
-3.41
-0.53
3.54
6.48
6.57
3.72
-0.48
-3.74
-4.34
-2.16
1.33
3.93
4.03
1.58
-1.93
-4.35
-4.17
-1.41
2.36
4.96
4.86
2.07
-1.81
-4.57
-4.68
-2.11
1.59
4.25
4.36
1.95
-1.40
-3.55
-3.09
-0.12
3.70
6.17
5.87
2.96
-0.87
-3.39
-3.14
-0.27
3.55
6.09
5.83
2.83
-1.31
-4.40
-4.91
-2.79
0.45
2.73
2.53
-0.17
-3.90
-6.55
-6.68
-4.29
-0.87
1.52
1.55
-0.63
-3.37
-4.61
-3.13
0.69
4.98
7.48
6.81
3.35
-1.07
-4.12
-4.37
-2.05
1.15
3.06
2.33
-0.79
-4.63
-7.07
-6.75
-3.89
-0.11
2.53
2.76
0.83
-1.67
-2.79
-1.42
1.98
5.63
7.45
6.27
2.56
-1.80
-4.62
-4.60
-2.12
1.05
2.83
2.08
-0.67
-3.56
-4.51
-2.49
1.73
6.03
8.03
6.53
2.17
-2.87
-6.14
-6.24
-3.59
-0.09
2.00
1.46
-1.23
-4.16
-5.23
-3.41
0.56
4.58
6.38
4.91
0.99
-3.12
-5.00
-3.49
0.62
5.02
7.19
5.84
1.61
-3.28
-6.32
-6.12
-3.19
0.47
2.51
1.72
-1.31
-4.53
-5.70
-3.83
0.23
4.19
5.78
4.08
0.16
-3.51
-4.63
-2.36
2.04
6.03
7.27
5.05
0.75
-3.04
-3.99
-1.48
3.07
7.00
7.98
5.37
0.55
-3.89
-5.63
-3.98
-0.19
3.29
4.31
2.26
-1.65
-5.04
-5.85
-3.56
0.52
4.01
4.86
2.54
-1.64
-5.29
-6.33
-4.21
-0.20
3.39
4.57
2.87
-0.44
-3.14
-3.37
-0.81
3.18
6.33
6.83
4.40
0.47
-2.65
-3.10
-0.53
3.63
7.00
7.61
5.06
0.70
-3.13
-4.43
-2.69
0.83
3.87
4.52
2.30
-1.54
-4.79
-5.56
-3.43
0.33
3.49
4.10
1.63
-2.70
-6.64
-8.11
-6.39
-2.52
1.30
2.88
1.35
-2.45
-6.37
-8.23
-7.05
-3.61
0.05
1.82
0.76
-2.34
-5.46
-6.56
-4.87
-1.31
2.03
3.20
1.60
-1.58
-4.10
-4.05
-1.06
3.41
6.90
7.44
4.71
0.37
-3.00
-3.37
-0.43
4.17
7.87
8.65
6.21
2.08
-1.36
-2.23
-0.29
2.97
5.30
4.98
1.88
-2.50
-5.86
-6.48
-4.24
-0.67
2.01
2.16
-0.20
-3.44
-5.24
-4.08
-0.13
4.68
7.79
7.52
4.02
-0.69
-3.94
-3.93
-0.69
3.82
6.93
6.76
3.28
-1.73
-5.64
-6.50
-4.13
-0.16
2.92
3.22
0.46
-3.87
-7.42
-8.33
-6.33
-2.79
0.11
0.75
-0.95
-3.50
-4.78
-3.42
0.35
4.68
7.27
6.70
3.35
-0.77
-3.20
-2.43
1.18
5.60
8.25
7.56
3.81
-1.03
-4.43
-4.72
-2.04
1.75
4.25
3.82
0.60
-3.70
-6.70
-6.82
-4.17
-0.44
2.11
1.95
-0.78
-4.41
-6.68
-6.16
-3.03
0.94
3.53
3.35
0.72
-2.50
-4.03
-2.55
1.47
6.02
8.65
7.92
4.19
-0.58
-3.95
-4.37
-1.99
1.45
3.68
3.26
0.33
-3.44
-5.90
-5.66
-2.90
0.73
3.16
3.13
0.98
-1.58
-2.56
-0.92
2.72
6.40
7.96
6.35
2.27
-2.24
-4.93
-4.64
-1.91
1.39
3.14
2.30
-0.58
-3.67
-4.96
-3.44
0.23
4.13
6.13
5.10
1.57
-2.60
-5.27
-5.21
-2.77
0.37
2.25
1.82
-0.45
-2.90
-3.67
-1.91
1.70
5.29
6.85
5.48
1.91
-1.93
-3.92
-3.07
0.03
3.48
5.21
4.16
0.81
-3.05
-5.42
-5.17
-2.70
0.37
2.14
1.57
-0.93
-3.74
-5.01
-3.79
-0.62
2.74
4.32
3.12
-0.28
-4.00
-5.96
-5.07
-1.90
1.65
3.44
2.39
-0.90
-4.45
-6.09
-4.75
-1.08
2.85
4.83
3.80
0.52
-2.90
-4.24
-2.52
1.38
5.28
6.99
5.64
2.18
-1.21
-2.49
-0.93
2.39
5.24
5.62
2.87
-1.85
-6.25
-8.17
-6.79
-3.07
0.75
2.50
1.28
-2.05
-5.31
-6.35
-4.34
-0.23
3.76
5.50
4.25
1.04
-1.91
-2.61
-0.49
3.22
6.27
6.76
4.30
0.29
-2.92
-3.44
-0.93
3.19
6.50
7.05
4.45
0.15
-3.40
-4.19
-1.80
2.36
5.83
6.58
4.17
0.01
-3.50
-4.37
-2.20
1.59
4.62
4.97
2.32
-1.83
-5.01
-5.21
-2.09
2.77
6.75
7.64
4.89
-0.08
-4.67
-6.55
-4.99
-1.24
2.25
3.24
1.02
-3.22
-7.04
-8.28
-6.30
-2.32
1.28
2.41
0.49
-3.18
-6.21
-6.61
-3.92
0.44
4.07
5.03
3.02
-0.41
-2.82
-2.39
1.04
5.69
8.98
8.96
5.51
0.37
-3.81
-4.97
-2.80
1.13
4.32
4.78
2.13
-2.22
-5.96
-7.19
-5.55
-2.30
0.41
0.93
-0.98
-3.92
-5.75
-4.95
-1.52
2.86
5.88
5.87
2.87
-1.33
-4.27
-4.20
-1.16
3.10
6.09
6.12
3.30
-0.53
-2.96
-2.40
0.91
5.04
7.53
6.84
3.31
-1.07
-3.83
-3.46
-0.32
3.58
5.80
4.86
1.12
-3.43
-6.35
-6.11
-2.99
1.08
3.70
3.28
-0.02
-4.41
-7.49
-7.63
-4.87
-0.89
1.91
1.91
-0.87
-4.71
-7.20
-6.70
-3.32
1.13
4.16
4.15
1.33
-2.35
-4.35
-3.11
0.95
5.71
8.54
7.88
4.18
-0.46
-3.48
-3.37
-0.51
3.11
5.12
4.16
0.62
-3.58
-6.17
-5.81
-2.86
0.84
3.06
2.45
-0.62
-4.28
-6.25
-5.15
-1.38
3.12
5.94
5.65
2.66
-1.03
-2.99
-1.88
1.76
5.81
7.81
6.50
2.56
-1.71
-3.85
-2.59
1.32
5.62
7.85
6.80
3.18
-0.84
-2.96
-2.08
1.06
4.41
5.77
4.20
0.47
-3.32
-5.02
-3.69
-0.16
3.44
4.93
3.29
-0.72
-4.98
-7.23
-6.33
-2.90
1.04
3.26
2.60
-0.44
-3.96
-5.80
-4.80
-1.54
2.09
3.88
2.70
-0.89
-4.89
-7.03
-6.04
-2.40
1.90
4.58
4.33
1.58
-1.85
-3.79
-3.01
0.00
3.38
4.97
3.64
-0.04
-4.15
-6.45
-5.69
-2.36
1.63
4.06
3.63
0.73
-2.82
-4.89
-4.21
-1.20
2.35
4.32
3.49
0.34
-3.30
-5.29
-4.45
-1.27
2.36
4.29
3.37
0.21
-3.20
-4.65
-3.04
0.92
5.08
7.07
5.75
1.81
-2.57
-5.07
-4.50
-1.54
1.79
3.35
2.21
-0.83
-3.71
-4.43
-2.25
1.79
5.48
6.75
4.86
0.91
-2.83
-4.26
-2.61
1.10
4.70
6.15
4.60
0.89
-3.07
-5.37
-5.22
-3.12
-0.45
1.50
2.34
2.74
4.11
7.83
14.81
25.16
38.54
54.10
70.48
85.70
96.83
100.17
91.98
70.01
35.11
-7.48
-48.62
-77.13
-83.54
-63.98
-22.54
29.06
74.85
99.45
93.06
54.42
-8.98
-83.30
-152.32
-201.34
-220.61
-207.33
-166.30
-108.57
-48.56
0.12
28.33
33.50
19.68
-4.83
-30.55
-49.48
-56.77
-51.08
-33.76
-8.04
21.88
51.80
78.11
98.72
113.43
123.66
131.44
138.05
143.36
145.70
142.82
133.24
117.29
96.98
75.47
55.09
36.55
19.00
0.09
-23.08
-53.18
-91.61
-137.29
-185.46
-227.67
-253.53
-254.52
-228.44
-181.64
-127.69
-82.33
-57.11
-55.06
-70.52
-92.78
-110.72
-117.61
-112.17
-96.94
-75.31
-49.41
-20.03
12.07
44.75
74.46
97.16
110.28
113.88
110.48
104.10
98.40
95.28
94.52
94.33
92.35
87.01
78.28
67.57
57.09
48.75
43.43
40.71
39.28
37.56
34.45
29.75
24.09
18.54
14.07
11.12
9.52
8.67
7.83
6.51
4.57
2.24
-0.06
-1.96
-3.29
-4.06
-4.45
-4.67
-4.90
-5.20
-5.54
-5.89
-6.18
-6.39
-6.52
-6.57
-6.55
-6.48
-6.37
-6.20
-6.01
-5.78
-5.54
-5.30
-5.06
-4.76
-4.46
-4.17
-3.89
-3.63
-3.39
-3.16
-2.95
-2.75
-2.57
-2.41
-2.26
-2.13
-2.00
-1.88
-1.77
-1.67
-1.58
-1.49
-1.40
-1.34
-1.27
-1.21
-1.15
-1.09
-1.05
-1.00
-0.95
-0.91
-0.87
-0.84
-0.81
-0.78
-0.75
-0.73
-0.70
-0.68
-0.66
-0.64
-0.62
-0.60
-0.58
-0.56
-0.56
-0.53
-0.52
-0.51
-0.50
-0.48
-0.47
-0.46
-0.45
-0.44
-0.43
-0.42
-0.41
-0.40
-0.39
-0.39
-0.38
-0.37
-0.36
-0.35
-0.35
-0.34
-0.33
-0.33
-0.32
-0.31
-0.31
-0.30
-0.29
-0.28
-0.28
-0.27
-0.26
-0.25
-0.20
-0.14
-0.05
0.02
0.04
-0.03
-0.15
-0.30
-0.41
-0.38
-0.21
0.09
0.42
0.68
0.80
0.77
0.66
0.58
0.65
0.85
1.16
1.43
1.52
1.38
1.03
0.64
0.45
0.67
1.33
2.31
3.23
3.74
3.57
2.79
1.81
1.22
1.59
3.09
5.38
7.65
9.02
8.91
7.45
5.47
4.20
4.69
7.27
11.25
15.19
17.56
17.45
15.10
11.94
9.89
10.34
13.69
18.90
24.02
27.17
27.21
23.69
16.83
7.24
-3.70
-13.44
-18.27
-14.34
0.24
23.25
47.77
64.34
64.74
45.73
11.30
-29.69
-67.81
-97.12
-116.61
-128.39
-134.21
-133.48
-123.05
-100.75
-68.22
-31.47
1.27
23.04
31.59
29.68
23.01
16.97
14.55
15.51
17.95
19.99
20.83
20.73
20.34
19.92
19.35
18.45
17.19
16.22
16.39
18.26
21.65
25.53
28.63
30.01
29.75
29.06
30.12
35.07
45.44
61.34
81.16
101.34
116.82
122.41
114.65
93.81
63.89
31.57
3.35
-17.06
-29.85
-38.23
-45.92
-56.41
-69.85
-83.30
-91.87
-90.46
-75.65
-47.41
-10.20
27.63
55.95
66.89
57.99
33.20
0.96
-29.42
-51.67
-64.16
-69.13
-70.24
-70.03
-69.24
-67.51
-64.72
-61.75
-60.11
-61.41
-65.71
-71.81
-77.65
-81.48
-82.72
-82.71
-84.05
-89.21
-98.71
-109.91
-117.49
-115.64
-101.02
-74.91
-43.20
-13.96
5.99
13.80
11.18
2.77
-6.67
-14.17
-19.10
-22.11
-23.74
-23.61
-20.64
-13.92
-3.25
10.51
25.96
41.66
56.81
71.32
85.48
99.55
112.67
124.44
133.88
140.02
142.35
141.03
136.85
130.75
123.57
116.03
108.03
98.58
86.95
72.81
56.36
38.26
19.49
1.06
-16.18
-31.88
-45.31
-56.17
-64.34
-69.71
-72.27
-72.10
-69.48
-64.80
-58.59
-51.42
-43.84
-36.29
-29.10
-22.50
-16.62
-11.54
-7.25
-3.72
-0.82
1.59
3.60
5.30
6.74
7.91
8.79
9.35
9.59
9.46
9.02
8.23
7.03
5.42
3.42
1.06
-1.51
-4.25
-7.06
-9.72
-12.32
-15.02
-18.03
-21.53
-25.74
-30.51
-35.68
-41.06
-46.08
-50.54
-54.44
-57.83
-60.83
-63.82
-66.74
-69.68
-72.88
-76.23
-80.22
-85.48
-92.63
-102.16
-114.66
-129.69
-146.68
-168.13
-192.45
-217.51
-241.42
-262.86
-279.96
-293.25
-302.44
-307.44
-308.21
-304.35
-295.92
-282.93
-264.84
-240.10
-211.92
-181.56
-150.01
-118.13
-86.25
-54.96
-24.78
3.83
30.46
54.83
77.24
97.25
113.93
126.37
134.18
137.31
136.08
131.05
123.14
113.72
103.52
92.79
81.71
71.01
61.61
54.32
49.57
48.15
49.93
53.21
55.36
53.86
48.58
41.01
33.56
28.97
32.09
45.18
66.23
90.31
111.15
127.31
139.60
149.81
160.15
177.94
206.24
241.46
275.39
298.07
309.72
315.03
320.59
334.08
371.29
440.55
537.97
649.69
754.86
844.02
910.59
949.67
961.02
961.69
966.99
982.86
1005.11
1019.36
1022.26
1008.73
971.12
827.08
553.58
197.83
-151.37
-386.12
-516.21
-569.23
-572.49
-558.01
-544.74
-530.44
-511.09
-488.76
-472.14
-484.08
-520.91
-565.98
-598.40
-600.35
-556.66
-471.20
-367.21
-276.84
-229.44
-226.94
-255.63
-295.85
-329.74
-341.86
-329.01
-299.00
-264.23
-236.68
-215.54
-196.97
-178.85
-161.28
-143.29
-125.14
-107.88
-92.46
-80.18
-67.93
-53.71
-38.11
-23.51
-11.39
-2.94
1.37
1.85
-0.94
-4.98
-9.06
-13.39
-19.72
-28.54
-39.74
-52.18
-63.95
-73.03
-77.88
-78.11
-72.89
-65.00
-56.32
-48.31
-41.65
-36.40
-32.18
-28.52
-25.06
-21.78
-18.99
-16.67
-15.00
-14.10
-13.98
-14.38
-15.01
-15.45
-15.45
-15.11
-14.54
-14.23
-14.71
-16.30
-18.88
-21.91
-24.71
-26.67
-27.72
-28.17
-28.86
-30.67
-34.36
-39.44
-45.04
-50.13
-54.06
-56.79
-58.81
-61.00
-64.03
-68.23
-73.90
-81.44
-91.20
-102.58
-113.24
-118.88
-114.80
-97.83
-68.23
-30.14
9.96
45.89
74.20
95.21
111.86
127.31
143.39
160.05
176.20
191.20
205.40
219.54
232.27
241.41
242.11
229.30
200.54
158.15
108.92
61.42
22.54
-5.31
-23.90
-37.85
-51.13
-65.23
-78.94
-89.80
-95.81
-96.63
-93.35
-87.45
-80.42
-72.83
-64.79
-56.16
-47.23
-38.77
-31.67
-26.47
-23.10
-20.98
-18.99
-15.92
-11.14
-4.78
2.24
8.65
13.14
15.11
14.16
11.01
7.05
3.68
1.85
2.10
4.60
9.15
15.51
22.27
28.57
34.00
38.57
42.73
46.97
51.97
58.44
67.31
77.43
88.00
98.40
107.88
115.55
120.25
120.77
116.17
106.31
89.01
63.49
30.56
-8.14
-50.57
-95.12
-141.01
-188.45
-223.76
-243.14
-247.60
-241.11
-228.32
-212.88
-197.20
-182.36
-168.53
-154.68
-142.49
-132.21
-122.96
-113.20
-101.12
-85.42
-65.16
-43.23
-17.15
11.68
42.00
72.61
102.45
130.68
156.47
179.38
198.07
212.81
222.22
226.40
226.06
221.96
214.62
204.22
190.76
174.35
155.91
133.93
108.32
79.77
49.32
18.16
-12.53
-41.65
-68.28
-86.90
-98.38
-104.12
-105.61
-104.27
-101.43
-98.09
-94.79
-91.62
-88.24
-85.06
-81.85
-78.57
-75.54
-73.22
-71.98
-71.84
-72.42
-73.02
-73.59
-73.90
-73.99
-74.25
-75.20
-77.17
-80.51
-85.56
-92.59
-101.67
-111.44
-119.39
-122.54
-118.85
-108.24
-92.92
-76.41
-61.95
-51.34
-44.49
-40.37
-38.32
-38.52
-41.81
-48.82
-59.14
-71.16
-82.63
-91.64
-97.28
-99.28
-97.69
-92.66
-83.48
-69.36
-50.00
-25.21
4.11
36.16
68.74
99.61
126.89
149.42
166.67
177.39
182.53
183.13
180.02
173.97
165.69
155.88
145.19
134.35
124.41
115.39
107.08
99.34
91.97
84.85
77.93
71.27
64.92
58.95
53.43
48.37
43.70
39.33
35.25
31.45
27.94
24.78
21.91
19.37
17.14
15.17
13.44
11.91
10.58
9.46
8.55
7.83
7.30
6.98
6.85
6.87
7.04
7.36
7.82
8.42
9.16
10.02
11.03
12.15
13.36
14.65
16.03
17.50
19.14
20.90
22.74
24.61
26.37
27.79
28.66
28.64
27.42
24.69
20.27
14.14
6.43
-2.23
-11.73
-21.54
-31.09
-39.82
-47.29
-53.21
-57.41
-59.93
-60.86
-60.47
-58.98
-56.67
-53.82
-50.74
-47.73
-45.04
-42.97
-41.81
-41.80
-42.96
-45.19
-48.21
-51.69
-55.20
-58.28
-60.49
-61.53
-61.31
-59.75
-57.02
-53.35
-49.07
-44.51
-39.97
-35.64
-31.61
-27.96
-24.21
-20.09
-15.55
-10.94
-6.76
-3.64
-2.17
-2.98
-6.75
-13.41
-22.90
-35.11
-49.87
-66.75
-85.15
-104.23
-123.23
-141.48
-157.38
-169.83
-178.29
-182.93
-184.07
-181.89
-176.13
-165.95
-153.93
-139.49
-122.27
-102.77
-82.40
-62.56
-43.98
-26.72
-10.68
3.95
20.68
41.63
66.32
91.80
114.56
132.35
144.38
150.69
151.46
152.82
159.42
172.40
189.49
208.01
227.25
248.53
273.87
304.75
349.01
411.31
490.42
579.48
670.00
755.70
833.48
902.59
918.22
855.91
721.23
546.29
365.93
200.30
55.08
-70.72
-178.64
-268.77
-333.64
-368.31
-374.93
-362.39
-341.53
-320.44
-303.09
-290.34
-281.65
-271.38
-255.36
-233.90
-211.05
-191.36
-177.04
-168.26
-163.83
-162.63
-161.88
-158.85
-153.68
-148.40
-145.04
-144.19
-144.96
-146.05
-144.25
-139.09
-130.49
-119.87
-108.95
-98.98
-90.11
-81.55
-73.93
-65.81
-57.26
-49.09
-43.37
-41.57
-44.22
-50.52
-58.78
-67.25
-74.57
-81.08
-84.60
-87.50
-91.41
-97.33
-105.86
-116.94
-129.23
-139.40
-143.01
-135.55
-115.22
-83.74
-46.93
-12.62
12.54
25.64
28.21
24.47
18.77
13.40
8.96
5.11
1.82
0.13
1.63
7.52
17.88
31.14
44.89
57.14
67.01
74.73
81.24
87.52
92.78
97.31
100.48
101.30
99.25
94.53
88.03
81.03
74.64
69.52
65.82
62.99
60.25
57.04
53.16
48.83
44.56
40.73
37.52
34.91
32.63
30.24
27.49
24.35
21.01
17.90
15.38
14.31
14.43
15.62
17.55
19.90
22.21
23.38
23.63
22.84
21.00
18.14
14.91
10.87
5.88
-0.08
-6.88
-13.95
-20.63
-26.08
-29.67
-31.34
-31.18
-29.84
-28.27
-27.21
-26.77
-26.53
-25.70
-23.59
-19.85
-14.89
-9.58
-4.88
-1.31
1.22
3.44
6.41
11.13
18.39
28.59
41.73
56.67
71.00
81.19
83.37
75.05
56.40
30.73
3.56
-19.51
-34.75
-41.37
-41.38
-37.87
-33.19
-28.34
-23.35
-18.12
-13.08
-9.08
-6.84
-6.18
-6.30
-5.95
-4.34
-1.71
0.80
1.67
-0.26
-5.21
-12.28
-20.16
-27.24
-32.77
-37.07
-41.17
-46.17
-52.57
-59.87
-66.17
-70.65
-72.48
-71.88
-69.94
-68.11
-67.75
-69.82
-75.07
-83.01
-92.11
-99.13
-99.89
-90.66
-70.06
-40.35
-6.96
23.47
45.84
58.25
62.34
61.50
58.79
55.62
51.88
47.22
42.07
37.94
36.36
37.90
41.43
44.64
45.30
42.25
36.29
29.74
25.33
24.80
28.13
33.39
37.80
38.87
35.74
29.51
22.68
18.15
18.03
23.11
32.48
43.66
52.76
55.26
47.49
28.42
1.03
-27.95
-50.14
-59.07
-52.80
-34.59
-11.27
9.88
23.99
29.83
28.63
22.66
13.54
1.91
-11.80
-26.80
-42.08
-56.70
-69.38
-78.02
-79.09
-69.12
-46.85
-15.50
16.80
40.11
46.68
35.25
11.35
-14.60
-33.66
-42.42
-43.53
-42.41
-43.03
-46.41
-50.65
-54.81
-59.92
-68.38
-81.23
-95.79
-106.38
-107.02
-94.86
-71.28
-43.33
-18.02
0.66
12.97
22.18
32.11
44.51
57.39
66.51
66.39
54.19
32.08
7.01
-11.60
-16.23
-3.87
20.80
48.43
69.65
80.05
81.22
78.49
76.82
77.86
79.68
78.82
73.36
64.25
54.83
48.62
47.47
50.67
55.67
59.51
60.13
57.29
52.45
47.78
45.09
45.27
47.37
49.93
51.97
53.30
54.43
55.62
55.90
52.98
44.23
28.21
5.33
-21.53
-48.69
-72.87
-92.42
-107.30
-118.27
-126.04
-131.26
-134.68
-137.25
-139.88
-142.07
-141.14
-132.99
-114.05
-83.60
-45.21
-4.98
30.86
58.37
77.41
90.43
100.04
106.80
109.01
104.23
90.44
70.10
47.24
26.13
9.38
-2.59
-10.88
-16.99
-21.66
-24.69
-25.55
-24.46
-22.39
-20.71
-20.45
-21.68
-23.45
-24.09
-21.95
-16.06
-6.91
3.85
13.69
20.50
23.18
22.01
18.33
13.85
10.01
7.31
5.73
5.12
5.47
6.87
9.12
11.49
12.66
11.39
7.10
0.52
-6.36
-11.05
-11.86
-8.86
-4.10
-0.75
-1.55
-7.51
-17.17
-27.18
-33.67
-34.13
-28.28
-18.24
-7.48
0.44
3.19
-0.06
-8.66
-20.77
-33.54
-43.34
-46.33
-39.43
-21.75
4.38
33.39
58.14
72.47
73.74
63.82
47.87
31.76
19.29
10.96
4.66
-2.27
-11.07
-20.68
-28.71
-33.35
-34.78
-35.11
-37.08
-41.99
-48.64
-53.50
-52.49
-42.89
-24.92
-1.93
20.85
38.31
47.32
47.68
41.64
32.60
23.41
15.57
9.34
4.71
2.11
2.51
6.88
15.19
25.90
36.28
43.18
44.15
38.30
26.48
10.91
-5.60
-20.46
-31.85
-39.10
-42.71
-44.02
-44.50
-45.04
-45.31
-43.86
-38.95
-29.49
-15.95
-0.33
14.55
26.28
33.83
37.78
39.70
40.99
42.24
43.08
42.71
40.79
37.82
35.11
34.20
36.12
40.86
47.41
54.09
59.02
60.60
57.89
51.08
41.62
31.94
24.53
21.08
21.82
25.33
28.96
29.62
24.78
12.81
-5.15
-27.12
-50.00
-70.00
-83.50
-88.16
-83.67
-71.79
-55.64
-38.61
-23.57
-12.63
-6.36
-4.06
-4.55
-6.96
-10.69
-15.19
-19.69
-23.46
-26.85
-29.89
-31.99
-32.72
-32.38
-31.76
-31.52
-31.78
-32.32
-34.38
-38.20
-42.67
-46.43
-49.31
-52.04
-55.63
-60.80
-67.96
-79.37
-95.54
-114.34
-132.52
-147.31
-156.43
-157.66
-149.05
-116.49
-60.23
4.52
59.95
97.67
118.45
127.28
129.66
129.65
129.33
127.13
122.35
116.36
110.89
105.95
99.91
91.02
78.67
63.92
47.25
30.23
15.08
3.22
-5.48
-11.89
-16.35
-18.63
-18.43
-17.08
-15.98
-15.69
-16.13
-17.04
-18.15
-19.09
-19.59
-19.46
-19.13
-18.74
-17.94
-16.30
-13.77
-10.70
-7.15
-3.27
0.78
4.55
7.57
9.47
10.05
9.34
7.77
6.21
5.57
6.47
8.94
12.32
15.56
17.69
18.27
17.44
15.93
14.53
13.78
13.91
14.73
15.75
16.33
16.00
14.72
12.87
11.14
10.16
10.47
12.14
14.62
16.86
17.83
16.84
13.83
9.31
4.09
-0.38
-2.66
-1.73
2.70
9.74
17.12
21.40
19.01
7.78
-10.90
-32.21
-49.81
-58.49
-56.34
-45.42
-30.46
-15.09
-3.77
1.29
1.01
-2.32
-7.42
-14.19
-22.52
-31.11
-37.86
-41.18
-40.32
-36.05
-30.27
-25.04
-21.48
-20.11
-19.93
-20.04
-20.04
-19.45
-17.92
-15.47
-12.52
-9.41
-6.38
-3.66
-1.70
-0.97
-1.39
-2.47
-3.52
-3.96
-2.90
0.50
6.81
15.94
27.28
40.06
53.13
64.96
71.52
69.68
59.50
45.02
31.81
23.89
21.95
23.78
25.97
25.88
23.11
19.13
15.95
14.49
14.42
14.50
13.52
10.97
7.09
2.72
-1.29
-4.00
-5.88
-7.58
-9.68
-12.71
-17.11
-23.16
-30.68
-38.79
-46.12
-51.10
-52.85
-51.63
-48.62
-45.44
-42.63
-40.11
-37.39
-34.10
-30.47
-27.12
-24.80
-23.83
-23.63
-23.10
-21.15
-17.06
-10.77
-2.89
5.70
14.36
21.56
26.80
30.31
32.74
34.90
37.51
40.86
44.74
48.50
51.38
53.11
53.87
54.04
53.87
53.09
50.75
45.57
36.61
23.89
8.71
-6.91
-21.03
-32.43
-40.74
-46.18
-49.09
-49.75
-48.52
-46.01
-43.28
-41.48
-41.19
-41.85
-41.80
-38.93
-31.79
-20.35
-6.04
8.87
22.18
32.53
39.81
44.80
48.58
51.82
54.64
56.84
58.19
58.67
58.40
57.87
57.72
58.58
60.64
63.46
66.02
66.97
64.99
59.14
49.43
36.69
22.57
8.86
-2.54
-9.84
-11.63
-7.71
-1.00
3.71
1.54
-8.95
-25.17
-42.46
-56.51
-65.05
-68.13
-67.50
-64.97
-61.52
-57.16
-51.82
-46.03
-40.83
-37.31
-35.98
-36.53
-37.59
-37.80
-35.51
-30.20
-22.57
-14.06
-6.41
-1.01
1.33
0.71
-2.04
-5.70
-9.22
-11.91
-13.43
-13.78
-13.19
-11.98
-10.33
-8.45
-6.60
-5.48
-6.06
-9.04
-14.55
-21.89
-29.54
-35.30
-37.28
-34.66
-28.09
-19.46
-10.89
-4.30
-0.83
-0.62
-2.41
-4.56
-5.76
-5.46
-3.77
-0.64
3.91
9.76
16.80
25.59
36.18
47.62
58.18
65.81
70.04
71.14
69.97
67.68
66.40
67.63
71.60
77.45
83.69
90.06
96.24
101.59
98.90
84.29
59.61
31.14
7.90
-10.11
-23.28
-32.09
-37.05
-38.47
-36.15
-30.92
-24.76
-20.21
-19.47
-22.42
-28.41
-36.45
-45.49
-53.84
-60.60
-66.11
-71.63
-78.72
-84.23
-85.20
-80.42
-71.01
-58.64
-45.16
-32.55
-22.75
-17.29
-15.92
-17.65
-20.75
-23.72
-24.58
-22.42
-17.54
-11.03
-4.30
1.69
6.00
8.10
8.13
7.16
6.60
7.65
11.38
18.14
27.39
37.60
47.15
55.07
61.48
66.82
71.61
75.94
79.24
80.64
79.32
75.09
68.40
60.51
52.51
45.84
41.62
40.02
39.96
38.96
34.95
27.23
18.71
13.91
17.47
30.82
50.82
70.72
84.17
87.54
79.84
63.50
41.14
16.03
-7.27
-24.02
-32.06
-33.30
-30.05
-24.65
-17.36
-12.57
-10.70
-12.68
-20.50
-35.41
-58.45
-88.19
-124.61
-154.27
-169.73
-168.28
-152.79
-129.97
-105.46
-91.68
-86.21
-85.30
-85.64
-87.62
-93.61
-100.37
-107.98
-107.90
-96.17
-71.99
-39.93
-5.21
26.97
53.33
72.90
85.06
90.72
90.34
86.36
80.71
75.38
70.60
63.99
54.87
42.16
25.96
6.42
-14.54
-35.35
-54.58
-67.36
-75.07
-79.76
-83.78
-88.65
-95.92
-105.84
-117.27
-126.73
-129.23
-120.52
-97.97
-63.40
-22.89
15.06
43.36
58.84
62.98
60.31
54.85
49.35
44.16
38.51
31.89
24.96
19.36
16.40
16.43
18.19
20.39
21.72
21.82
21.27
21.60
23.97
28.73
35.52
42.89
49.57
54.21
55.91
54.52
50.51
44.84
38.22
31.50
24.95
19.29
14.48
10.26
6.35
1.69
-1.87
-3.89
-3.53
-0.26
6.87
17.46
30.20
43.28
55.15
65.15
73.35
81.01
85.85
89.87
94.60
100.40
106.13
109.32
106.76
95.53
77.14
51.84
23.75
-1.49
-18.48
-24.19
-19.26
-7.75
4.05
10.19
6.55
-6.78
-26.76
-48.39
-66.47
-77.21
-79.11
-73.04
-61.17
-45.17
-26.93
-8.48
8.59
23.01
33.52
38.79
37.82
30.66
18.51
3.93
-10.48
-22.72
-31.86
-38.11
-42.38
-45.65
-48.36
-50.31
-50.96
-50.36
-48.99
-47.42
-45.88
-44.14
-41.57
-37.38
-31.06
-22.97
-15.11
-10.10
-10.25
-16.44
-27.82
-41.87
-54.94
-63.32
-61.05
-46.33
-23.84
-2.70
9.76
12.05
7.80
2.72
1.37
5.21
11.25
16.19
17.74
15.65
11.34
6.83
3.74
2.81
3.86
5.67
7.67
9.44
11.08
12.73
14.22
15.19
15.40
15.02
14.34
14.04
14.69
16.72
19.93
23.43
25.90
26.12
23.50
18.31
11.98
6.54
3.84
4.51
7.48
10.49
11.38
9.32
5.15
0.90
-1.65
-1.83
-0.44
1.11
1.87
2.02
2.72
5.14
9.56
14.89
19.19
20.52
17.89
11.62
3.23
-5.16
-11.53
-14.70
-14.61
-12.27
-9.17
-6.55
-4.73
-2.96
0.13
5.79
14.40
25.13
36.23
45.66
51.82
54.03
52.60
48.50
42.88
36.66
30.29
23.69
16.32
7.43
-3.62
-17.01
-32.15
-47.64
-61.51
-71.74
-77.04
-77.41
-74.26
-69.89
-66.47
-65.17
-65.72
-66.63
-65.97
-62.18
-54.65
-43.97
-31.67
-19.74
-10.19
-4.59
-3.79
-7.63
-14.98
-24.09
-32.92
-39.57
-42.31
-40.22
-33.72
-24.56
-15.31
-8.33
-4.95
-4.89
-6.70
-7.92
-6.79
-3.31
0.87
3.78
4.27
2.63
0.34
-1.07
0.22
4.83
11.56
18.07
22.36
23.78
23.60
24.33
28.28
38.08
54.92
77.69
103.23
127.59
146.72
157.40
157.58
138.66
97.37
40.14
-19.43
-70.01
-108.70
-139.83
-170.59
-202.83
-232.50
-250.95
-250.02
-226.40
-183.09
-124.44
-59.88
0.90
51.14
88.09
113.76
132.23
146.73
157.92
164.34
163.32
153.52
135.96
113.75
92.11
76.46
70.35
74.35
86.17
101.06
113.77
119.61
115.24
99.81
75.14
45.27
15.79
-7.54
-20.59
-21.80
-12.67
2.69
19.19
32.47
40.02
41.57
38.56
33.07
27.34
23.17
21.62
22.70
25.28
27.05
25.14
16.65
-0.14
-24.79
-54.62
-85.12
-111.01
-127.02
-129.21
-115.69
-88.08
-51.43
-12.90
20.45
44.21
58.01
65.32
71.15
79.96
92.62
106.71
118.47
124.60
123.55
115.06
99.63
77.91
52.22
25.10
-0.87
-23.68
-43.16
-60.64
-78.69
-99.81
-125.74
-145.98
-149.19
-130.38
-95.45
-56.58
-22.67
-2.12
8.24
11.21
7.91
-3.70
-27.36
-61.28
-103.64
-150.91
-188.44
-205.31
-199.15
-175.51
-144.52
-115.23
-92.38
-77.07
-66.98
-58.55
-49.79
-40.86
-32.62
-26.71
-24.55
-26.32
-31.40
-37.47
-41.68
-42.93
-41.90
-40.16
-39.68
-41.82
-46.62
-53.79
-62.25
-70.71
-78.18
-83.07
-82.63
-73.70
-55.95
-28.80
4.62
39.02
69.11
90.96
103.17
106.50
103.00
94.86
84.55
74.28
66.41
63.29
66.31
75.87
90.78
108.22
123.60
130.85
123.65
98.44
57.49
9.49
-32.77
-58.02
-61.62
-47.45
-25.11
-4.42
9.77
19.89
31.26
49.64
76.90
109.78
142.27
169.55
190.54
207.29
222.91
237.81
248.91
250.87
239.15
213.08
176.75
137.50
102.27
75.36
56.45
41.76
26.31
6.50
-18.37
-46.37
-72.82
-97.03
-118.96
-140.83
-165.77
-196.50
-233.99
-276.47
-319.33
-356.07
-380.57
-388.77
-380.89
-361.18
-336.37
-313.02
-295.32
-284.04
-276.92
-270.32
-260.04
-242.68
-216.18
-179.98
-134.99
-83.32
-28.04
26.91
76.84
117.31
144.95
158.73
160.72
155.45
148.00
141.48
135.52
126.80
111.86
89.99
64.34
40.76
24.82
19.45
24.42
37.83
58.08
84.84
118.60
158.38
200.41
238.42
265.82
277.84
272.39
249.37
209.91
157.56
98.00
38.81
-11.96
-48.33
-68.95
-77.90
-82.51
-89.03
-96.74
-98.84
-86.77
-55.69
-7.49
49.74
105.29
150.73
183.21
207.85
232.56
262.16
295.28
326.03
348.27
359.91
364.87
354.46
326.78
286.34
240.01
190.57
135.34
70.95
-0.84
-71.94
-128.14
-162.92
-175.35
-171.22
-161.18
-155.10
-157.85
-168.36
-181.93
-193.16
-197.85
-194.11
-180.82
-158.80
-129.78
-96.97
-65.15
-39.61
-23.75
-17.11
-14.86
-11.81
-6.97
-2.99
-4.76
-16.45
-38.66
-66.94
-93.64
-111.04
-113.73
-102.91
-85.08
-68.71
-59.99
-60.53
-64.69
-65.82
-58.21
-41.37
-19.73
0.65
15.86
25.88
33.32
41.02
49.48
57.15
59.27
53.04
38.10
16.26
-9.14
-34.94
-59.13
-81.69
-98.20
-109.66
-119.27
-130.46
-144.58
-158.98
-167.37
-161.83
-136.95
-92.58
-36.10
21.72
70.88
105.49
124.44
129.44
122.63
105.46
79.40
46.70
12.00
-19.36
-43.69
-60.86
-74.06
-87.46
-103.10
-119.36
-131.69
-133.97
-121.64
-93.91
-54.53
-10.60
30.06
61.51
82.69
96.07
106.65
119.27
135.03
151.24
162.15
160.88
143.86
112.81
74.25
37.09
8.63
-7.70
-13.48
-13.91
-14.37
-18.17
-25.58
-35.93
-49.05
-65.25
-83.98
-102.31
-115.05
-116.72
-103.02
-76.67
-45.11
-17.13
0.67
6.14
1.46
-8.70
-19.48
-27.27
-30.79
-29.99
-25.42
-18.01
-8.95
0.49
9.37
17.43
25.34
33.88
43.72
54.87
66.62
77.81
87.33
94.65
100.06
105.03
111.00
119.58
132.12
148.90
168.22
185.89
195.87
189.87
165.52
125.63
77.87
31.87
-4.51
-27.94
-39.97
-45.14
-48.44
-51.74
-55.15
-57.91
-59.86
-61.77
-64.91
-70.06
-76.63
-83.04
-86.82
-86.55
-82.04
-74.60
-66.27
-58.94
-53.63
-50.25
-47.94
-45.20
-41.27
-36.09
-30.73
-26.64
-25.10
-26.79
-31.58
-39.18
-47.02
-53.20
-54.06
-47.64
-33.93
-14.85
6.52
27.34
45.01
58.85
69.36
77.82
85.02
90.95
94.95
96.13
93.77
86.63
75.02
60.47
44.96
30.00
16.17
3.04
-10.24
-24.51
-42.23
-65.07
-93.50
-126.23
-160.17
-190.45
-211.41
-218.48
-199.79
-156.70
-99.99
-43.98
0.02
27.79
41.69
47.38
50.11
52.74
54.52
54.79
55.62
61.29
74.92
96.24
119.69
136.36
137.66
118.00
77.50
22.54
-37.67
-94.74
-143.05
-179.80
-203.61
-213.76
-204.37
-176.93
-138.87
-100.88
-72.34
-57.65
-55.59
-61.40
-69.95
-78.20
-86.09
-93.98
-101.52
-107.44
-110.33
-109.55
-105.51
-99.41
-92.47
-85.86
-79.77
-73.54
-66.27
-57.44
-47.42
-37.32
-28.57
-22.32
-19.01
-18.11
-18.31
-18.03
-16.04
-11.63
-4.45
6.12
17.34
28.55
40.14
52.97
67.83
84.91
103.64
123.13
142.43
161.01
179.23
197.75
217.32
238.86
263.57
292.50
325.84
361.76
395.91
422.83
437.63
438.76
429.16
415.01
402.27
393.16
384.54
369.39
341.02
296.56
238.47
172.96
106.75
44.18
-13.17
-64.90
-109.65
-144.23
-165.13
-170.59
-162.33
-145.52
-127.11
-113.56
-109.21
-116.11
-134.53
-164.19
-204.76
-255.02
-311.57
-367.79
-414.27
-441.30
-442.97
-420.69
-384.12
-348.02
-325.70
-322.84
-334.78
-348.93
-351.30
-333.58
-296.23
-246.59
-193.70
-142.92
-94.38
-44.85
8.41
64.66
118.67
162.54
188.61
192.49
175.62
144.80
110.82
85.60
78.69
94.45
130.63
179.25
229.25
270.40
294.51
296.78
276.61
237.91
188.63
139.43
100.82
80.77
83.51
107.10
144.21
184.48
217.54
235.57
235.28
217.71
180.14
125.70
61.57
-2.99
-60.45
-108.12
-148.37
-184.34
-220.66
-257.96
-291.16
-312.60
-315.45
-296.53
-255.82
-199.13
-135.66
-74.99
-23.36
18.58
54.02
87.69
123.03
160.90
198.67
231.12
251.75
255.38
240.47
209.25
167.09
120.50
76.10
38.79
11.13
-6.97
-17.73
-24.70
-32.44
-45.41
-66.75
-95.13
-124.40
-145.02
-147.58
-126.72
-83.49
-25.55
35.12
82.63
105.00
99.84
75.29
44.39
17.10
-2.91
-17.41
-30.48
-46.88
-67.69
-90.92
-113.49
-132.68
-147.59
-158.21
-164.69
-161.55
-147.17
-122.07
-89.02
-55.12
-24.56
-1.64
10.55
11.46
3.33
-10.17
-24.33
-35.13
-40.34
-39.46
-33.92
-25.71
-16.67
-8.30
-2.50
-0.34
-1.65
-5.23
-9.16
-12.21
-14.07
-14.60
-14.28
-14.29
-15.55
-18.33
-22.14
-25.84
-28.73
-30.72
-31.63
-32.00
-33.26
-36.91
-43.40
-51.30
-57.27
-57.18
-47.25
-23.81
14.69
66.67
127.14
188.67
243.01
283.18
305.07
301.76
272.41
223.45
166.63
113.52
70.70
39.14
16.80
1.31
-8.89
-13.81
-13.70
-9.98
-5.11
-1.33
0.20
-0.25
-1.64
-2.97
-3.07
-1.64
0.68
2.34
2.15
-0.85
-6.22
-12.81
-19.32
-24.30
-26.88
-26.94
-25.41
-23.11
-21.08
-19.60
-18.44
-17.13
-14.94
-11.47
-6.59
-1.16
4.24
8.53
11.18
12.23
12.06
11.17
9.71
10.51
14.21
25.07
44.40
71.00
101.40
131.48
158.08
179.85
197.11
208.98
216.71
220.18
218.77
211.62
198.05
177.50
149.33
116.21
79.66
41.09
0.56
-42.42
-88.40
-137.53
-189.09
-241.39
-291.97
-338.88
-380.37
-416.04
-446.36
-472.36
-495.53
-517.74
-540.99
-566.74
-595.08
-623.00
-644.60
-652.27
-639.36
-603.02
-545.70
-474.40
-398.06
-324.67
-258.92
-202.08
-153.12
-110.40
-72.78
-39.67
-10.57
15.32
39.06
61.69
83.74
105.21
125.77
145.04
163.17
181.10
200.27
221.91
246.05
270.80
292.45
306.68
310.59
304.33
291.43
277.44
267.46
263.77
264.92
266.37
262.53
248.86
223.34
186.54
140.74
88.89
33.73
-22.50
-77.90
-130.66
-178.72
-219.70
-251.43
-272.36
-281.88
-280.67
-270.08
-251.66
-226.75
-196.89
-164.52
-133.26
-107.36
-90.14
-82.25
-80.87
-80.51
-75.13
-60.56
-36.00
-3.76
32.33
68.87
104.09
138.03
171.65
205.80
240.59
275.14
307.95
337.18
361.11
378.37
388.21
390.34
384.99
372.93
355.54
334.95
313.70
294.32
278.52
266.66
257.78
250.22
242.40
233.52
223.57
213.05
202.43
191.77
180.92
169.75
158.50
147.74
138.14
130.19
124.01
119.40
116.13
114.22
113.86
115.13
117.41
119.18
118.31
113.02
102.96
89.81
76.96
68.08
65.66
70.09
79.95
93.18
108.21
124.43
141.76
159.88
177.89
194.74
210.24
225.44
242.20
261.57
282.41
300.93
311.97
311.22
297.33
272.59
241.79
210.03
180.51
153.57
127.18
98.53
65.77
29.04
-9.66
-47.53
-82.26
-113.26
-141.91
-171.02
-203.73
-242.41
-287.92
-339.50
-394.93
-450.36
-500.02
-536.46
-552.06
-542.04
-507.53
-456.76
-402.86
-358.81
-331.85
-320.64
-316.76
-309.71
-292.48
-264.46
-230.35
-196.29
-166.02
-139.38
-113.76
-86.87
-58.79
-32.08
-9.96
5.81
16.09
23.98
33.26
46.41
63.27
80.94
94.74
100.08
94.20
77.30
52.58
25.15
0.08
-19.46
-33.30
-43.99
-55.35
-70.25
-88.91
-108.48
-124.23
-131.78
-129.19
-117.94
-102.38
-87.91
-78.99
-77.85
-84.33
-96.56
-112.06
-128.62
-144.66
-159.12
-171.20
-180.00
-184.41
-183.35
-176.36
-164.13
-148.76
-133.21
-120.34
-111.83
-107.75
-106.80
-107.33
-108.36
-109.89
-112.41
-115.80
-118.48
-117.44
-109.40
-92.44
-67.13
-36.67
-5.77
21.05
40.93
53.11
58.58
59.11
56.46
52.01
46.68
41.14
35.89
31.44
28.31
27.18
28.73
33.17
39.95
47.62
54.31
58.46
59.28
56.69
50.84
41.63
28.80
12.42
-6.49
-26.01
-43.88
-58.22
-67.85
-71.79
-68.86
-57.74
-37.97
-11.12
19.04
47.87
72.36
93.11
114.36
141.82
179.75
228.85
286.25
347.22
407.29
463.39
513.49
555.52
586.67
603.72
604.03
586.64
552.56
504.29
444.99
377.64
304.84
228.84
152.05
77.50
8.66
-51.41
-101.29
-142.26
-177.76
-211.72
-245.93
-278.64
-305.22
-320.67
-322.67
-313.21
-297.67
-282.13
-270.72
-264.66
-263.22
-265.65
-272.37
-284.59
-302.89
-325.87
-350.06
-370.99
-384.57
-388.06
-380.23
-361.35
-333.06
-298.34
-261.07
-224.73
-191.12
-159.43
-126.91
-90.70
-49.87
-6.39
35.36
70.45
95.50
110.03
116.73
120.64
127.93
144.34
173.62
216.06
267.79
321.49
368.29
400.52
413.66
406.99
382.65
344.08
294.70
237.52
175.27
110.56
45.73
-17.48
-77.85
-133.97
-183.62
-223.41
-249.62
-259.55
-252.82
-231.55
-199.35
-159.60
-114.20
-63.50
-7.50
52.54
113.12
168.92
214.13
244.15
256.75
252.02
231.74
198.49
154.83
103.10
45.38
-16.27
-79.78
-143.26
-205.34
-265.39
-323.24
-378.37
-429.01
-471.62
-501.26
-513.12
-504.41
-475.80
-431.57
-378.25
-322.42
-268.62
-218.43
-170.94
-124.13
-76.37
-27.31
22.09
70.16
115.25
156.51
194.25
230.05
266.41
305.91
350.17
398.67
448.31
493.38
526.86
542.02
534.51
504.02
455.19
397.13
341.28
298.05
273.19
266.02
270.01
275.87
275.57
265.10
244.66
216.74
183.79
147.02
107.15
65.78
25.62
-10.78
-42.83
-72.65
-103.60
-137.50
-172.73
-204.65
-228.28
-241.27
-245.10
-243.69
-240.58
-236.82
-230.79
-220.31
-204.74
-185.88
-166.43
-147.94
-129.37
-107.61
-79.50
-44.05
-3.49
37.75
74.85
104.64
126.46
141.63
152.02
158.68
161.27
158.33
148.14
129.29
101.21
64.46
21.03
-25.42
-69.65
-105.44
-127.16
-131.35
-118.26
-92.26
-60.61
-31.31
-10.33
0.06
1.79
-0.61
-2.24
-0.30
4.88
10.13
10.91
3.47
-13.87
-40.16
-71.98
-104.10
-130.31
-144.94
-144.38
-128.92
-104.00
-78.87
-63.30
-63.68
-79.77
-105.07
-130.27
-147.86
-155.65
-157.05
-158.09
-163.53
-174.34
-188.33
-202.89
-217.92
-236.44
-262.78
-299.07
-342.65
-386.09
-420.01
-436.97
-434.11
-413.45
-379.86
-337.90
-289.53
-233.66
-167.85
-90.31
-1.41
95.53
194.87
290.08
374.79
444.55
497.74
535.81
562.91
584.11
603.24
621.18
635.57
642.23
637.60
620.66
593.44
559.78
523.13
484.96
444.44
399.83
350.27
297.05
243.35
192.84
148.01
109.32
75.45
44.32
14.18
-15.88
-46.02
-75.88
-104.91
-132.40
-157.39
-178.38
-193.44
-200.20
-196.36
-180.49
-152.98
-116.60
-76.05
-36.52
-1.68
27.55
52.74
76.12
98.66
119.12
134.62
142.33
141.07
131.65
116.12
96.46
74.01
50.05
26.99
9.00
1.19
7.25
27.21
56.64
88.08
113.95
129.28
132.87
126.23
111.49
89.56
59.76
20.91
-26.98
-81.90
-140.21
-198.22
-253.59
-305.93
-356.32
-406.20
-456.27
-506.13
-554.34
-599.03
-638.43
-671.21
-696.37
-712.96
-719.79
-715.32
-697.99
-666.81
-621.91
-564.91
-498.76
-427.19
-353.92
-281.94
-213.04
-147.76
-85.61
-25.47
34.04
94.31
156.47
220.83
286.22
349.61
406.33
451.25
480.40
492.37
488.87
473.93
452.28
427.70
402.11
375.73
347.99
318.33
286.65
253.27
218.72
183.67
149.05
116.19
86.77
62.52
44.87
34.52
31.20
33.65
39.83
47.31
53.86
57.89
58.90
57.49
55.12
53.58
54.52
59.05
67.49
79.16
92.52
105.44
115.88
122.46
124.78
123.25
118.51
110.85
100.07
85.71
67.63
46.31
22.79
-1.67
-25.92
-49.04
-70.18
-88.40
-102.79
-112.81
-118.62
-121.21
-122.00
-122.28
-122.81
-123.59
-124.02
-123.27
-120.52
-115.32
-107.62
-97.78
-86.53
-74.80
-63.46
-53.13
-44.02
-35.95
-28.50
-21.31
-14.30
-7.77
-2.25
1.76
4.00
4.54
3.75
2.12
0.08
-2.00
-3.92
-5.72
-7.82
-11.01
-16.25
-24.29
-35.15
-47.80
-60.34
-70.64
-77.08
-79.13
-77.42
-73.26
-68.00
-62.58
-57.41
-52.50
-47.82
-43.49
-39.71
-36.62
-34.15
-32.02
-29.95
-27.84
-25.85
-24.33
-23.63
-23.90
-25.03
-26.77
-28.78
-30.75
-32.46
-33.68
-34.16
-33.71
-32.22
-29.80
-26.79
-23.70
-21.12
-19.56
-19.31
-20.35
-22.36
-24.68
-26.59
-27.45
-26.87
-24.84
-21.55
-17.36
-12.57
-7.49
-2.45
2.09
5.58
7.62
8.19
7.73
7.06
7.02
8.07
10.04
12.23
13.76
13.97
12.80
10.68
8.34
6.36
4.88
3.60
1.92
-0.69
-4.40
-8.85
-13.23
-16.66
-18.57
-19.08
-19.13
-20.14
-23.40
-29.50
-37.86
-46.89
-54.55
-59.21
-60.24
-58.29
-55.01
-52.49
-52.57
-56.20
-63.24
-72.47
-82.08
-90.47
-96.95
-102.26
-108.33
-117.56
-131.73
-151.24
-174.91
-200.26
-224.10
-243.07
-254.32
-256.52
-251.06
-242.89
-240.03
-251.09
-281.44
-329.76
-387.10
-439.35
-472.42
-477.51
-453.96
-408.29
-350.31
-288.55
-227.49
-167.63
-107.63
-46.81
13.60
70.92
122.77
168.53
209.80
249.52
290.50
334.15
380.25
427.82
476.20
525.32
574.89
622.99
665.21
695.43
708.24
701.46
677.51
642.46
603.38
565.41
530.31
497.02
463.65
429.34
394.80
361.43
329.85
299.13
267.17
232.08
193.46
152.87
113.19
77.26
46.44
20.05
-4.18
-28.91
-55.81
-84.69
-113.67
-140.13
-162.01
-178.68
-191.02
-200.82
-209.78
-218.69
-227.24
-234.40
-239.09
-240.84
-240.13
-238.20
-236.43
-235.78
-236.25
-236.85
-235.83
-231.38
-222.33
-208.68
-191.75
-173.74
-157.12
-143.75
-134.30
-128.06
-123.16
-117.06
-107.08
-90.97
-67.33
-36.13
1.27
42.16
83.25
121.40
154.26
180.45
199.21
209.97
212.15
205.55
190.97
170.62
147.93
126.47
108.51
94.05
80.87
65.56
45.27
19.19
-11.14
-42.35
-70.66
-92.93
-107.39
-113.60
-112.38
-105.59
-95.68
-84.82
-73.76
-61.00
-43.25
-17.28
17.49
57.38
94.89
121.43
131.01
122.57
99.99
69.76
38.09
9.12
-14.89
-32.19
-40.66
-38.14
-23.82
0.40
29.74
57.92
79.40
91.21
93.65
89.69
83.32
78.27
76.95
80.15
87.20
96.28
104.80
109.93
109.31
101.71
87.50
68.59
47.83
27.99
10.92
-2.88
-13.93
-22.96
-30.20
-35.07
-36.68
-34.58
-29.51
-23.34
-18.43
-16.59
-18.32
-22.74
-27.97
-32.02
-33.52
-32.04
-28.03
-22.52
-16.65
-11.31
-6.72
-2.24
3.85
14.18
31.60
57.70
91.33
127.80
159.48
177.92
176.65
153.62
112.14
59.82
6.05
-40.88
-75.91
-98.10
-110.07
-116.57
-122.69
-132.15
-146.25
-163.58
-180.65
-193.23
-197.94
-193.34
-180.12
-160.60
-137.53
-113.16
-88.81
-65.00
-42.07
-20.65
-1.68
13.86
25.41
33.14
37.85
40.47
41.53
40.96
38.22
32.92
25.32
16.46
7.89
1.02
-3.38
-5.42
-5.92
-6.02
-6.63
-8.16
-10.36
-12.57
-14.07
-14.40
-13.65
-12.38
-11.44
-11.53
-12.98
-15.58
-18.71
-21.61
-23.66
-24.63
-24.64
-24.17
-23.78
-23.92
-24.82
-26.36
-28.12
-29.52
-29.94
-28.98
-26.47
-22.54
-17.52
-11.85
-5.93
-0.14
5.19
9.74
13.21
15.35
16.07
15.53
14.03
11.97
9.68
7.33
4.88
2.21
-0.73
-3.89
-7.01
-9.80
-11.97
-13.41
-14.20
-14.59
-14.93
-15.56
-16.71
-18.41
-20.51
-22.72
-24.79
-26.60
-28.12
-29.38
-30.30
-30.61
-29.89
-27.74
-23.99
-18.83
-12.71
-6.17
0.34
6.59
12.44
17.72
22.18
25.53
27.60
28.38
28.10
27.01
25.37
23.31
20.94
18.48
16.16
14.22
12.76
11.62
10.47
8.98
6.94
4.41
1.59
-1.22
-3.80
-6.08
-8.17
-10.25
-12.54
-15.23
-18.41
-21.91
-25.33
-28.04
-29.35
-28.73
-25.99
-21.34
-15.29
-8.46
-1.43
5.30
11.42
16.64
20.82
23.96
26.16
27.61
28.41
28.63
28.25
27.30
25.92
24.35
22.80
21.35
19.95
18.42
16.67
14.71
12.65
10.66
8.84
7.24
5.86
4.67
3.60
2.45
0.91
-1.47
-5.06
-10.01
-16.06
-22.51
-28.38
-32.65
-34.60
-33.92
-30.78
-25.70
-19.40
-12.58
-5.87
0.25
5.41
9.44
12.30
14.11
15.11
15.59
15.80
15.89
15.86
15.63
15.05
14.04
12.59
10.84
9.06
7.58
6.66
6.34
6.45
6.56
6.18
5.02
3.01
0.42
-2.38
-5.08
-7.65
-10.38
-13.68
-17.93
-23.14
-28.92
-34.55
-39.17
-41.98
-42.32
-39.60
-33.49
-23.92
-11.33
3.21
18.21
31.98
43.17
50.97
55.25
56.33
54.72
50.96
45.55
39.03
32.05
25.24
19.14
14.00
9.75
6.10
2.69
-0.75
-4.34
-7.95
-11.31
-14.08
-16.03
-17.15
-17.69
-18.08
-18.85
-20.37
-22.80
-26.00
-29.58
-32.95
-35.39
-36.22
-34.94
-31.41
-25.92
-19.14
-11.95
-5.13
0.80
5.71
9.67
12.77
15.00
16.28
16.61
16.19
15.41
14.66
14.10
13.61
12.91
11.80
10.32
8.81
7.66
7.12
7.25
7.87
8.79
9.87
11.10
12.49
13.98
15.48
16.78
17.64
17.73
16.72
14.33
10.55
5.71
0.45
-4.41
-8.16
-10.43
-11.18
-10.63
-9.08
-6.76
-3.86
-0.54
2.99
6.43
9.48
11.93
13.73
14.96
15.78
16.34
16.70
16.83
16.60
15.88
14.52
12.46
9.70
6.32
2.49
-1.51
-5.29
-8.46
-10.76
-12.13
-12.73
-12.91
-12.97
-13.14
-13.62
-14.59
-16.32
-19.06
-22.81
-27.16
-31.25
-34.02
-34.69
-33.00
-29.27
-24.18
-18.43
-12.53
-6.80
-1.57
2.79
5.85
7.33
7.26
5.99
4.02
1.78
-0.50
-2.78
-4.97
-6.85
-8.13
-8.54
-8.06
-6.90
-5.42
-3.86
-2.27
-0.52
1.47
3.58
5.44
6.60
6.82
6.31
5.70
5.72
6.75
8.53
10.30
11.07
10.15
7.49
3.73
-0.08
-2.94
-4.24
-3.83
-1.81
1.68
6.62
13.03
20.70
29.02
36.94
43.35
47.38
48.73
47.69
44.96
41.28
37.17
32.79
28.06
22.81
17.01
10.86
4.69
-1.11
-6.24
-10.52
-13.89
-16.32
-17.73
-18.10
-17.53
-16.30
-14.93
-14.01
-13.94
-14.84
-16.48
-18.51
-20.59
-22.53
-24.23
-25.56
-26.25
-26.00
-24.59
-22.08
-18.82
-15.23
-11.67
-8.22
-4.81
-1.33
2.14
5.36
8.06
10.11
11.57
12.57
13.22
13.49
13.28
12.64
11.78
11.06
10.82
11.11
11.69
12.09
11.85
10.71
8.77
6.36
3.88
1.69
-0.13
-1.72
-3.43
-5.67
-8.70
-12.49
-16.71
-20.77
-24.00
-25.78
-25.68
-23.52
-19.40
-13.71
-7.03
-0.04
6.62
12.50
17.35
21.17
24.01
25.98
27.16
27.59
27.28
26.33
24.85
23.03
21.06
19.13
17.40
15.92
14.69
13.65
12.66
11.49
9.89
7.68
4.78
1.33
-2.35
-5.89
-8.99
-11.54
-13.70
-15.79
-18.22
-21.25
-24.87
-28.68
-31.99
-33.99
-34.01
-31.83
-27.72
-22.34
-16.44
-10.55
-4.84
0.77
6.35
11.81
16.74
20.61
23.01
23.83
23.30
21.85
20.01
18.17
16.56
15.29
14.38
13.84
13.65
13.76
14.03
14.23
14.06
13.29
11.86
9.95
7.86
5.95
4.44
3.30
2.33
1.26
-0.04
-1.62
-3.38
-5.31
-7.48
-10.04
-13.08
-16.56
-20.21
-23.61
-26.34
-28.03
-28.47
-27.52
-25.15
-21.41
-16.43
-10.47
-3.95
2.62
8.76
14.06
18.23
21.11
22.63
22.87
22.04
20.51
18.70
16.91
15.32
13.95
12.68
11.39
10.06
8.70
7.32
5.88
4.31
2.56
0.71
-1.06
-2.56
-3.71
-4.61
-5.51
-6.71
-8.35
-10.39
-12.50
-14.29
-15.43
-15.78
-15.56
-15.18
-15.13
-15.74
-17.14
-19.20
-21.64
-24.02
-25.83
-26.59
-25.89
-23.57
-19.76
-14.89
-9.52
-4.19
0.67
4.86
8.30
10.93
12.70
13.62
13.78
13.37
12.61
11.68
10.68
9.63
8.61
7.72
7.08
6.73
6.63
6.67
6.70
6.71
6.75
6.85
6.95
6.86
6.34
5.21
3.54
1.54
-0.49
-2.39
-4.22
-6.18
-8.44
-11.03
-13.76
-16.21
-17.95
-18.61
-17.89
-15.72
-12.15
-7.46
-2.09
3.42
8.57
13.03
16.70
19.58
21.68
22.95
23.32
22.81
21.60
20.05
18.50
17.14
15.97
14.86
13.66
12.39
11.17
10.19
9.55
9.16
8.76
8.06
6.86
5.12
2.96
0.63
-1.66
-3.74
-5.59
-7.24
-8.75
-10.22
-11.75
-13.48
-15.55
-18.03
-20.84
-23.64
-25.90
-27.05
-26.59
-24.34
-20.48
-15.45
-9.86
-4.26
0.93
5.53
9.54
12.99
15.87
18.11
19.52
19.96
19.35
17.84
15.70
13.39
11.35
9.91
9.16
8.92
8.87
8.68
8.18
7.40
6.56
5.89
5.47
5.21
4.84
4.17
3.15
1.96
0.88
0.13
-0.25
-0.45
-0.75
-1.37
-2.44
-3.96
-5.90
-8.19
-10.74
-13.32
-15.57
-16.96
-17.02
-15.43
-12.19
-7.58
-2.08
3.74
9.38
14.42
18.52
21.44
23.02
23.23
22.20
20.22
17.68
14.91
12.18
9.58
7.13
4.79
2.59
0.61
-1.08
-2.49
-3.73
-4.93
-6.13
-7.28
-8.25
-8.94
-9.39
-9.81
-10.40
-11.28
-12.32
-13.30
-14.03
-14.55
-15.11
-16.08
-17.68
-19.86
-22.34
-24.71
-26.64
-27.87
-28.24
-27.61
-25.85
-22.93
-18.90
-14.01
-8.56
-2.91
2.64
7.82
12.37
16.00
18.48
19.65
19.55
18.44
16.74
14.89
13.26
11.98
11.00
10.17
9.33
8.34
7.18
5.86
4.38
2.76
1.01
-0.78
-2.52
-4.10
-5.47
-6.64
-7.66
-8.59
-9.54
-10.66
-12.11
-14.06
-16.52
-19.24
-21.66
-23.21
-23.42
-22.10
-19.45
-15.81
-11.56
-6.94
-2.07
2.93
7.82
12.24
15.75
18.04
18.97
18.71
17.56
15.93
14.18
12.57
11.23
10.20
9.44
8.86
8.40
8.06
7.88
7.91
8.11
8.35
8.33
7.72
6.34
4.23
1.67
-0.94
-3.31
-5.39
-7.33
-9.40
-11.89
-14.92
-18.41
-22.14
-25.66
-28.40
-29.74
-29.16
-26.40
-21.65
-15.44
-8.62
-1.99
3.81
8.49
12.03
14.64
16.48
17.68
18.19
17.97
17.10
15.83
14.55
13.60
13.12
12.98
12.83
12.41
11.66
10.81
10.22
10.10
10.33
10.56
10.27
9.16
7.20
4.69
2.08
-0.25
-2.15
-3.69
-5.07
-6.53
-8.18
-10.06
-12.19
-14.64
-17.49
-20.73
-24.09
-27.03
-28.85
-28.93
-27.00
-23.25
-18.20
-12.44
-6.46
-0.51
5.23
10.54
15.06
18.35
20.14
20.49
19.73
18.41
16.97
15.62
14.33
12.94
11.38
9.73
8.20
6.93
5.92
4.99
3.93
2.59
0.97
-0.82
-2.64
-4.44
-6.19
-7.89
-9.51
-10.98
-12.28
-13.48
-14.84
-16.63
-19.06
-22.13
-25.50
-28.63
-30.83
-31.57
-30.57
-27.89
-23.88
-19.02
-13.79
-8.52
-3.49
1.08
4.98
7.91
9.63
9.94
8.85
6.59
3.60
0.41
-2.42
-4.54
-5.84
-6.49
-6.84
-7.35
-8.41
-10.24
-12.93
-16.39
-20.57
-25.43
-31.04
-37.48
-44.76
-52.74
-61.11
-69.47
-77.44
-84.84
-91.75
-98.38
-104.93
-111.42
-117.52
-122.65
-126.08
-127.23
-125.90
-122.37
-117.45
-112.18
-107.68
-104.85
-104.01
-104.76
-105.95
-105.98
-103.33
-97.21
-87.97
-77.06
-66.59
-58.34
-52.98
-49.36
-44.64
-35.24
-18.17
7.50
39.93
74.91
107.22
132.40
148.11
154.44
153.29
147.34
139.20
131.09
124.91
122.29
124.06
130.04
138.88
148.56
157.31
164.27
169.41
173.04
175.09
174.95
172.04
166.49
159.56
153.18
149.02
147.74
148.91
151.48
154.57
157.72
160.58
162.45
162.03
157.81
149.04
136.45
122.26
109.33
99.77
94.04
90.78
87.78
83.22
76.59
68.79
61.41
55.65
51.72
48.91
46.28
43.44
41.03
40.34
42.61
48.18
56.12
64.56
71.60
76.12
78.41
79.98
82.84
88.45
97.00
107.23
116.91
123.63
125.46
121.23
110.56
93.74
71.90
47.21
22.69
1.54
-13.98
-23.44
-28.41
-31.74
-36.34
-44.25
-56.34
-72.76
-93.41
-118.24
-146.78
-177.54
-207.82
-234.36
-254.37
-266.77
-272.55
-274.19
-274.52
-275.46
-277.31
-278.84
-278.06
-273.04
-262.37
-245.29
-221.46
-191.04
-155.02
-115.54
-75.82
-39.38
-8.96
14.44
31.69
44.75
55.58
65.22
73.61
80.00
83.57
83.91
81.03
75.29
67.41
58.58
50.53
45.13
43.69
46.35
51.89
58.26
63.38
66.02
65.98
63.81
60.15
55.30
49.27
42.10
34.17
26.34
19.58
14.48
10.97
8.38
5.80
2.55
-1.59
-6.39
-11.49
-16.59
-21.61
-26.51
-31.20
-35.39
-38.69
-40.81
-41.69
-41.60
-41.03
-40.48
-40.40
-41.12
-42.74
-45.17
-48.07
-50.83
-52.72
-53.07
-51.46
-47.91
-42.84
-36.94
-30.90
-25.22
-20.10
-15.48
-11.21
-7.15
-3.27
0.34
3.57
6.30
8.42
9.90
10.77
11.23
11.60
12.31
13.67
15.71
18.11
20.28
21.56
21.55
20.26
18.11
15.72
13.65
12.20
11.24
10.41
9.17
7.14
4.17
0.41
-3.84
-8.25
-12.61
-16.86
-21.07
-25.28
-29.43
-33.35
-36.75
-39.34
-40.82
-40.94
-39.53
-36.53
-31.99
-26.16
-19.48
-12.56
-6.09
-0.69
3.31
5.92
7.53
8.73
10.06
11.81
13.84
15.73
16.99
17.29
16.62
15.26
13.65
12.22
11.22
10.73
10.60
10.54
10.24
9.49
8.29
6.74
5.04
3.25
1.29
-0.96
-3.54
-6.28
-8.83
-10.88
-12.40
-13.74
-15.48
-18.13
-21.82
-26.27
-30.91
-35.20
-38.73
-41.29
-42.71
-42.71
-41.00
-37.37
-31.92
-25.14
-17.76
-10.48
-3.69
2.60
8.65
14.72
20.78
26.46
31.08
33.88
34.28
32.17
27.94
22.38
16.47
11.04
6.59
3.28
1.07
-0.23
-0.78
-0.79
-0.60
-0.64
-1.27
-2.49
-3.80
-4.24
-2.77
1.19
7.44
14.91
21.89
26.59
27.59
24.22
16.63
5.72
-7.17
-20.50
-32.78
-42.74
-49.50
-52.65
-52.37
-49.31
-44.45
-38.82
-33.20
-27.94
-22.93
-17.92
-12.72
-7.52
-2.84
0.61
2.29
2.14
0.58
-1.52
-3.18
-3.53
-1.95
1.85
7.86
15.79
24.92
34.16
42.18
47.70
49.83
48.41
43.95
37.47
30.17
23.10
16.98
12.11
8.43
5.55
2.84
-0.43
-4.93
-11.05
-18.75
-27.57
-36.65
-44.93
-51.44
-55.38
-56.37
-54.41
-49.86
-43.36
-35.73
-27.84
-20.41
-13.95
-8.57
-4.07
-0.02
4.06
8.34
12.67
16.60
19.65
21.49
22.18
22.11
21.75
21.44
21.24
20.97
20.40
19.36
17.87
16.05
14.08
12.06
9.98
7.75
5.20
2.19
-1.34
-5.32
-9.49
-13.52
-17.11
-20.11
-22.63
-24.95
-27.43
-30.35
-33.85
-37.87
-42.20
-46.47
-50.06
-52.17
-51.85
-48.33
-41.33
-31.27
-19.32
-7.00
4.26
13.55
20.68
26.00
30.09
33.39
36.02
37.88
38.87
39.02
38.58
37.91
37.26
36.68
36.04
35.15
34.00
32.76
31.79
31.46
31.89
32.79
33.60
33.59
32.24
29.40
25.33
20.48
15.24
9.78
4.03
-2.05
-8.34
-14.48
-20.05
-24.81
-28.88
-32.71
-36.76
-41.11
-45.35
-48.65
-50.11
-49.09
-45.41
-39.35
-31.43
-22.25
-12.41
-2.49
6.88
15.07
21.48
25.76
27.91
28.24
27.34
25.85
24.16
22.43
20.51
18.17
15.28
11.93
8.38
5.03
2.19
-0.05
-1.79
-3.35
-5.09
-7.36
-10.27
-13.68
-17.19
-20.31
-22.66
-24.17
-25.13
-26.11
-27.69
-30.15
-33.35
-36.71
-39.38
-40.51
-39.46
-35.97
-30.24
-22.84
-14.60
-6.39
1.06
7.31
12.21
15.80
18.24
19.66
20.16
19.86
18.97
17.75
16.44
15.18
13.94
12.63
11.20
9.82
8.74
8.28
8.54
9.29
10.05
10.22
9.35
7.33
4.40
1.00
-2.41
-5.53
-8.30
-10.85
-13.41
-16.23
-19.50
-23.35
-27.76
-32.53
-37.16
-40.92
-42.96
-42.59
-39.43
-33.59
-25.60
-16.23
-6.31
3.48
12.59
20.72
27.67
33.32
37.59
40.40
41.82
42.04
41.42
40.39
39.43
38.80
38.52
38.44
38.23
37.69
36.77
35.65
34.67
34.09
33.94
34.01
33.85
33.01
31.28
28.75
25.83
23.00
20.68
19.04
18.07
17.61
17.36
16.84
15.38
12.26
6.97
-0.50
-9.41
-18.56
-26.61
-32.60
-36.20
-37.56
-37.04
-34.90
-31.19
-25.96
-19.49
-12.47
-5.92
-0.89
1.77
1.68
-1.01
-5.45
-10.20
-13.39
-13.26
-8.82
-0.39
10.29
20.67
28.31
31.84
31.37
28.20
23.99
19.95
16.44
13.18
9.69
5.70
1.32
-3.16
-7.49
-11.59
-15.51
-19.34
-23.05
-26.55
-29.73
-32.60
-35.25
-37.81
-40.25
-42.29
-43.46
-43.22
-41.16
-37.19
-31.50
-24.56
-16.89
-9.01
-1.35
5.69
11.76
16.55
19.87
21.77
22.52
22.54
22.23
21.78
21.19
20.27
18.79
16.68
14.03
11.20
8.61
6.62
5.32
4.49
3.65
2.23
-0.19
-3.71
-8.06
-12.70
-17.00
-20.49
-22.96
-24.53
-25.56
-26.56
-27.91
-29.79
-32.10
-34.50
-36.48
-37.50
-37.13
-35.06
-31.26
-25.88
-19.32
-12.01
-4.34
3.46
11.25
18.91
26.13
32.42
37.14
39.80
40.22
38.69
35.87
32.60
29.58
27.24
25.64
24.64
23.97
23.44
22.93
22.39
21.71
20.73
19.21
16.96
13.94
10.36
6.66
3.37
0.88
-0.70
-1.57
-2.19
-3.04
-4.53
-6.89
-10.20
-14.43
-19.38
-24.68
-29.71
-33.65
-35.64
-35.05
-31.70
-25.97
-18.64
-10.67
-2.86
4.25
10.48
15.78
20.10
23.35
25.43
26.36
26.34
25.71
24.87
24.10
23.47
22.96
22.45
21.97
21.58
21.40
21.48
21.68
21.76
21.39
20.38
18.63
16.21
13.34
10.21
7.02
3.96
1.24
-0.97
-2.56
-3.60
-4.31
-5.06
-6.30
-8.37
-11.47
-15.62
-20.64
-26.22
-31.85
-36.89
-40.54
-42.07
-40.96
-37.15
-30.98
-23.21
-14.77
-6.52
0.98
7.45
12.85
17.28
20.77
23.25
24.63
24.83
23.94
22.26
20.23
18.26
16.61
15.29
14.07
12.75
11.20
9.53
7.98
6.79
6.08
5.81
5.83
5.97
6.14
6.36
6.65
7.05
7.48
7.78
7.75
7.19
5.99
4.11
1.59
-1.56
-5.31
-9.64
-14.41
-19.32
-23.86
-27.40
-29.30
-29.12
-26.69
-22.18
-16.01
-8.77
-1.03
6.67
13.89
20.25
25.45
29.24
31.54
32.39
32.05
30.92
29.43
27.99
26.78
25.81
24.92
23.93
22.76
21.44
20.11
18.87
17.66
16.28
14.49
12.07
9.06
5.67
2.21
-1.07
-4.09
-6.88
-9.56
-12.25
-15.08
-18.14
-21.54
-25.35
-29.53
-33.79
-37.61
-40.38
-41.48
-40.62
-37.78
-33.17
-27.06
-19.61
-10.86
-0.98
9.58
20.05
29.46
37.05
42.50
46.01
48.11
49.26
49.63
49.06
47.22
44.03
39.75
35.03
30.61
27.08
24.59
22.85
21.26
19.21
16.29
12.45
7.99
3.34
-1.14
-5.29
-9.19
-13.00
-16.83
-20.66
-24.41
-28.02
-31.57
-35.27
-39.37
-43.94
-48.76
-53.26
-56.64
-58.06
-56.94
-53.12
-46.90
-38.85
-29.56
-19.51
-8.98
1.82
12.54
22.58
31.25
37.92
42.28
44.42
44.74
43.74
41.81
39.20
36.12
32.77
29.49
26.61
24.38
22.85
21.83
21.00
20.07
18.85
17.36
15.62
13.65
11.44
8.91
6.05
2.89
-0.47
-3.95
-7.52
-11.24
-15.15
-19.30
-23.70
-28.36
-33.32
-38.59
-44.01
-49.21
-53.56
-56.39
-57.14
-55.55
-51.73
-46.05
-38.98
-31.00
-22.52
-13.96
-5.75
1.63
7.72
12.13
14.68
15.44
14.73
13.06
11.04
9.22
7.92
7.22
6.98
6.96
7.00
7.05
7.12
7.22
7.29
7.14
6.58
5.47
3.85
1.85
-0.29
-2.39
-4.29
-5.96
-7.47
-9.02
-10.86
-13.23
-16.24
-19.74
-23.29
-26.25
-27.93
-27.80
-25.64
-21.60
-16.11
-9.75
-3.08
3.47
9.60
15.13
19.96
23.93
26.89
28.66
29.12
28.24
26.12
23.10
19.68
16.58
14.59
14.45
16.53
20.75
26.43
32.51
37.75
41.21
42.37
41.22
38.13
33.59
28.04
21.85
15.23
8.34
1.31
-5.74
-12.71
-19.48
-25.93
-31.85
-36.99
-40.99
-43.50
-44.24
-43.06
-40.03
-35.42
-29.62
-23.10
-16.27
-9.49
-3.04
2.84
7.93
12.00
14.89
16.51
16.91
16.26
14.83
12.97
11.01
9.23
7.75
6.57
5.62
4.76
3.87
2.85
1.57
-0.05
-2.05
-4.31
-6.51
-8.27
-9.27
-9.46
-9.11
-8.76
-9.03
-10.36
-12.87
-16.35
-20.35
-24.28
-27.57
-29.70
-30.24
-28.93
-25.67
-20.64
-14.22
-6.96
0.54
7.70
13.99
18.97
22.33
23.96
23.99
22.81
20.92
18.79
16.71
14.66
12.48
9.98
7.14
4.16
1.36
-1.00
-2.86
-4.37
-5.82
-7.47
-9.51
-11.96
-14.73
-17.56
-20.09
-21.87
-22.42
-21.52
-19.27
-16.20
-13.12
-10.87
-10.05
-10.77
-12.66
-15.08
-17.29
-18.64
-18.76
-17.47
-14.81
-10.93
-6.15
-0.90
4.27
8.76
12.13
14.13
14.88
14.75
14.19
13.61
13.21
12.99
12.86
12.73
12.56
12.40
12.29
12.26
12.29
12.28
12.07
11.47
10.34
8.64
6.51
4.15
1.83
-0.32
-2.34
-4.43
-6.87
-9.85
-13.41
-17.27
-20.98
-23.92
-25.49
-25.21
-22.86
-18.50
-12.52
-5.57
1.63
8.35
14.09
18.56
21.71
23.62
24.47
24.39
23.56
22.17
20.48
18.76
17.19
15.85
14.65
13.43
12.08
10.55
8.92
7.29
5.74
4.25
2.72
1.02
-0.94
-3.19
-5.70
-8.38
-11.23
-14.25
-17.58
-21.34
-25.58
-30.17
-34.72
-38.67
-41.36
-42.21
-40.85
-37.22
-31.57
-24.35
-16.15
-7.57
0.86
8.72
15.64
21.31
25.51
28.18
29.41
29.51
28.87
27.93
26.97
26.09
25.16
24.03
22.52
20.61
18.43
16.19
14.07
12.14
10.33
8.43
6.26
3.72
0.86
-2.15
-5.19
-8.19
-11.25
-14.55
-18.29
-22.59
-27.39
-32.43
-37.21
-41.08
-43.34
-43.37
-40.85
-35.85
-28.82
-20.49
-11.67
-3.09
4.76
11.63
17.43
22.10
25.60
27.90
29.03
29.16
28.48
27.18
25.31
22.83
19.71
16.09
12.33
8.96
6.45
5.07
4.69
4.95
5.38
5.58
5.27
4.32
2.72
0.54
-2.01
-4.70
-7.31
-9.74
-12.11
-14.67
-17.71
-21.40
-25.62
-30.00
-33.92
-36.70
-37.79
-36.83
-33.78
-28.92
-22.71
-15.72
-8.44
-1.26
5.55
11.77
17.12
21.32
24.16
25.57
25.78
25.22
24.40
23.67
23.18
22.86
22.53
22.07
21.47
20.84
20.23
19.61
18.79
17.54
15.68
13.19
10.24
7.12
4.09
1.29
-1.34
-4.07
-7.21
-11.05
-15.70
-21.07
-26.89
-32.79
-38.31
-42.89
-45.86
-46.55
-44.40
-39.24
-31.44
-21.85
-11.63
-1.86
6.69
13.71
19.17
23.17
25.70
26.75
26.36
24.84
22.73
20.63
18.99
17.84
16.92
15.77
14.10
11.81
9.03
5.98
2.86
-0.01
-2.14
-2.82
-1.34
2.65
8.91
16.55
24.39
31.34
36.66
39.97
41.04
39.60
35.43
28.68
20.14
11.19
3.43
-1.83
-4.03
-3.48
-0.98
2.50
6.28
10.02
13.68
17.27
20.67
23.54
25.41
25.91
24.93
22.70
19.78
16.78
14.16
12.06
10.36
8.75
6.99
4.95
2.69
0.30
-2.09
-4.37
-6.47
-8.33
-9.96
-11.45
-12.95
-14.60
-16.42
-18.31
-20.13
-21.76
-23.24
-24.73
-26.49
-28.70
-31.48
-34.79
-38.59
-42.69
-46.82
-50.55
-53.28
-54.40
-53.44
-50.22
-44.91
-37.99
-30.06
-21.80
-13.79
-6.52
-0.38
4.42
7.82
9.93
10.97
11.24
10.97
10.34
9.49
8.56
7.67
6.97
6.52
6.26
6.05
5.69
5.05
4.08
2.78
1.18
-0.71
-2.82
-5.09
-7.39
-9.62
-11.70
-13.64
-15.50
-17.34
-19.15
-20.94
-22.73
-24.66
-26.89
-29.54
-32.53
-35.46
-37.71
-38.59
-37.61
-34.65
-29.92
-23.91
-17.16
-10.17
-3.28
3.25
9.22
14.44
18.82
22.31
25.01
27.04
28.50
29.47
29.97
29.98
29.51
28.64
27.47
26.13
24.74
23.37
22.09
20.85
19.56
18.11
16.41
14.40
12.05
9.35
6.29
2.91
-0.66
-4.27
-7.74
-11.05
-14.28
-17.58
-21.04
-24.51
-27.54
-29.46
-29.62
-27.59
-23.38
-17.40
-10.36
-2.98
4.07
10.31
15.44
19.30
21.84
23.19
23.66
23.65
23.58
23.75
24.25
24.97
25.65
26.05
26.02
25.47
24.44
22.91
20.85
18.20
14.95
11.18
7.04
2.74
-1.54
-5.66
-9.54
-13.15
-16.52
-19.74
-22.98
-26.48
-30.38
-34.65
-38.93
-42.59
-44.93
-45.34
-43.59
-39.77
-34.23
-27.38
-19.48
-10.71
-1.24
8.62
18.26
26.94
33.92
38.73
41.34
42.07
41.43
39.92
37.82
35.23
32.18
28.77
25.22
21.83
18.84
16.31
14.12
12.01
9.75
7.26
4.54
1.69
-1.24
-4.23
-7.26
-10.27
-13.11
-15.67
-17.99
-20.29
-22.95
-26.29
-30.34
-34.77
-38.90
-41.92
-43.16
-42.25
-39.15
-34.13
-27.57
-19.94
-11.74
-3.47
4.43
11.58
17.71
22.68
26.46
29.13
30.83
31.80
32.22
32.24
31.92
31.18
29.95
28.21
26.05
23.69
21.34
19.15
17.06
14.89
12.44
9.60
6.45
3.20
0.07
-2.78
-5.40
-7.96
-10.65
-13.53
-16.57
-19.66
-22.76
-25.97
-29.57
-33.80
-38.76
-44.23
-49.69
-54.45
-57.79
-59.08
-57.75
-53.29
-45.21
-33.28
-17.64
0.88
20.78
40.05
56.73
69.31
77.17
80.59
80.58
78.35
74.96
71.04
66.86
62.44
57.83
53.15
48.60
44.35
40.45
36.80
33.16
29.13
24.22
17.89
9.65
-0.76
-13.15
-26.78
-40.28
-51.86
-59.63
-62.12
-58.73
-50.11
-38.03
-24.95
-13.16
-4.12
1.93
5.77
8.67
11.70
15.39
19.68
24.13
28.19
31.37
33.20
33.35
31.68
28.36
23.86
18.87
14.03
9.72
6.01
2.69
-0.52
-3.79
-7.18
-10.66
-14.16
-17.64
-21.09
-24.52
-28.01
-31.68
-35.66
-40.03
-44.65
-49.12
-52.92
-55.49
-56.59
-56.29
-54.98
-53.14
-51.10
-48.89
-46.27
-42.91
-38.44
-32.67
-25.55
-17.18
-7.83
2.03
11.79
20.76
28.32
34.02
37.68
39.23
38.77
36.46
32.58
27.67
22.43
17.56
13.60
10.66
8.51
6.67
4.74
2.49
-0.09
-2.86
-5.73
-8.65
-11.66
-14.76
-17.93
-21.09
-24.04
-26.50
-28.12
-28.59
-27.71
-25.54
-22.42
-18.93
-15.76
-13.60
-13.01
-14.37
-17.72
-22.74
-28.69
-34.49
-38.95
-41.01
-40.10
-36.20
-29.87
-22.05
-13.76
-5.88
1.03
6.74
11.33
15.07
18.38
21.74
25.58
30.19
35.63
41.64
47.69
53.10
57.31
60.03
61.27
61.26
60.30
58.59
56.26
53.42
50.27
47.03
43.92
40.94
37.89
34.42
30.28
25.44
20.18
14.88
9.83
5.05
0.30
-4.79
-10.46
-16.71
-23.33
-29.95
-36.23
-41.90
-46.71
-50.43
-52.75
-53.33
-51.98
-48.68
-43.70
-37.51
-30.75
-23.99
-17.70
-12.13
-7.33
-3.27
0.13
2.87
4.92
6.21
6.76
6.72
6.32
5.89
5.66
5.74
6.08
6.52
6.89
7.12
7.21
7.21
7.11
6.81
6.13
4.85
2.88
0.28
-2.67
-5.60
-8.14
-10.03
-11.17
-11.66
-11.75
-11.76
-12.06
-13.04
-15.10
-18.55
-23.49
-29.63
-36.33
-42.61
-47.50
-50.32
-50.82
-49.17
-45.70
-40.71
-34.40
-26.96
-18.74
-10.39
-2.73
3.49
7.80
10.19
11.00
10.84
10.50
10.77
12.35
15.63
20.46
26.11
31.38
35.12
36.54
35.57
32.82
29.17
25.40
21.93
18.82
15.95
13.22
10.67
8.37
6.25
4.08
1.47
-1.93
-6.34
-11.62
-17.25
-22.32
-25.81
-26.75
-24.62
-19.54
-12.24
-3.89
4.33
11.64
17.72
22.72
26.86
30.21
32.57
33.56
32.95
30.84
27.71
24.25
21.13
18.70
17.02
15.84
14.84
13.76
12.50
11.11
9.70
8.28
6.76
4.86
2.33
-0.97
-4.92
-9.11
-13.03
-16.26
-18.64
-20.35
-21.81
-23.46
-25.61
-28.30
-31.39
-34.58
-37.45
-39.51
-40.25
-39.18
-36.04
-30.91
-24.18
-16.54
-8.64
-1.00
6.10
12.51
18.01
22.20
24.54
24.67
22.82
20.07
18.22
19.17
24.12
32.89
43.93
54.84
63.42
68.46
70.15
69.63
68.30
67.09
66.10
64.82
62.60
59.09
54.44
49.23
44.17
39.84
36.39
33.43
30.09
25.18
17.54
6.43
-8.27
-25.83
-44.87
-63.59
-80.16
-93.07
-101.36
-104.77
-103.55
-98.45
-90.41
-80.44
-69.54
-58.59
-48.34
-39.28
-31.62
-25.21
-19.65
-14.45
-9.32
-4.33
0.11
3.42
5.23
5.64
5.32
5.30
6.60
9.81
14.78
20.54
25.63
28.52
28.11
24.18
17.32
8.71
-0.35
-8.96
-16.83
-24.27
-31.92
-40.41
-50.07
-60.81
-71.94
-82.11
-89.44
-91.93
-88.13
-77.80
-62.18
-43.71
-25.17
-8.70
4.72
15.20
23.39
29.74
34.15
36.08
35.02
31.02
25.01
18.79
14.64
14.59
19.82
30.04
43.57
57.87
70.39
79.38
84.27
85.57
84.19
80.92
76.15
69.94
62.39
53.93
45.33
37.43
30.80
25.50
21.12
16.93
12.30
6.89
0.69
-6.09
-13.24
-20.67
-28.32
-35.93
-42.90
-48.25
-50.87
-50.05
-45.72
-38.67
-30.26
-21.97
-14.96
-9.73
-6.18
-3.89
-2.45
-1.68
-1.67
-2.60
-4.48
-7.01
-9.65
-11.81
-13.14
-13.65
-13.73
-13.98
-14.95
-16.99
-20.25
-24.62
-29.67
-34.48
-37.57
-37.05
-31.21
-19.30
-2.12
17.93
37.51
53.52
64.04
68.76
68.60
64.93
58.94
51.32
42.62
33.65
25.55
19.61
16.68
16.83
19.26
22.75
26.11
28.55
29.90
30.39
30.41
30.18
29.67
28.61
26.61
23.51
19.45
15.01
10.98
8.08
6.70
6.74
7.67
8.84
9.73
10.06
9.82
9.07
7.92
6.39
4.46
2.14
-0.55
-3.60
-7.08
-11.05
-15.61
-20.74
-26.32
-32.15
-38.08
-44.03
-50.05
-56.13
-62.14
-67.63
-71.93
-74.25
-73.98
-70.83
-64.95
-56.88
-47.31
-36.99
-26.54
-16.42
-6.95
1.57
8.89
14.75
18.96
21.43
22.27
21.70
20.07
17.71
14.89
11.82
8.64
5.50
2.58
0.07
-1.86
-3.09
-3.68
-3.79
-3.66
-3.52
-3.55
-3.83
-4.35
-5.12
-6.12
-7.34
-8.74
-10.25
-11.73
-13.08
-14.25
-15.36
-16.65
-18.49
-21.15
-24.71
-28.82
-32.77
-35.56
-36.25
-34.24
-29.46
-22.40
-13.88
-4.83
3.93
11.85
18.61
24.09
28.34
31.49
33.73
35.28
36.30
36.91
37.18
37.10
36.67
35.90
34.85
33.60
32.26
30.93
29.66
28.48
27.34
26.20
24.98
23.65
22.15
20.47
18.63
16.67
14.56
12.31
9.89
7.34
4.77
2.39
0.42
-0.99
-1.90
-2.61
-3.60
-5.51
-8.91
-14.11
-21.03
-29.12
-37.42
-44.86
-50.53
-53.97
-55.20
-54.60
-52.59
-49.48
-45.38
-40.30
-34.38
-27.95
-21.44
-15.30
-9.77
-4.90
-0.55
3.37
6.89
9.88
12.17
13.69
14.43
14.55
14.22
13.59
12.72
11.54
9.93
7.80
5.15
2.16
-0.93
-3.81
-6.29
-8.39
-10.27
-12.22
-14.50
-17.26
-20.54
-24.25
-28.17
-31.98
-35.17
-37.13
-37.19
-34.89
-30.16
-23.35
-15.18
-6.52
1.85
9.39
15.79
20.90
24.61
26.88
27.74
27.38
26.12
24.39
22.59
21.00
19.75
18.86
18.27
17.88
17.59
17.28
16.86
16.29
15.58
14.73
13.70
12.41
10.75
8.61
6.02
3.07
-0.06
-3.18
-6.15
-8.94
-11.60
-14.28
-17.20
-20.55
-24.42
-28.66
-32.85
-36.35
-38.49
-38.71
-36.72
-32.60
-26.69
-19.52
-11.69
-3.76
3.83
10.77
16.87
22.03
26.16
29.19
31.06
31.81
31.61
30.77
29.65
28.58
27.69
26.99
26.36
25.68
24.91
24.10
23.32
22.57
21.80
20.88
19.67
18.04
15.94
13.37
10.40
7.14
3.71
0.28
-3.06
-6.25
-9.33
-12.40
-15.60
-19.11
-22.97
-27.14
-31.38
-35.23
-38.12
-39.49
-38.86
-35.98
-30.91
-23.97
-15.69
-6.73
2.26
10.72
18.29
24.77
30.07
34.16
36.99
38.52
38.79
37.92
36.25
34.17
32.06
30.20
28.63
27.25
25.90
24.41
22.72
20.81
18.69
16.36
13.84
11.12
8.28
5.38
2.46
-0.46
-3.39
-6.34
-9.30
-12.23
-15.12
-18.01
-20.96
-24.01
-27.20
-30.53
-34.00
-37.62
-41.24
-44.57
-47.06
-48.09
-47.07
-43.75
-38.18
-30.80
-22.27
-13.22
-4.26
4.18
11.71
18.05
22.97
26.38
28.35
29.09
28.89
28.06
26.82
25.34
23.75
22.12
20.55
19.13
17.87
16.72
15.59
14.37
13.03
11.57
10.03
8.42
6.72
4.88
2.90
0.83
-1.22
-3.15
-4.97
-6.83
-8.95
-11.58
-14.84
-18.58
-22.40
-25.69
-27.80
-28.16
-26.45
-22.66
-17.08
-10.16
-2.52
5.26
12.64
19.16
24.48
28.32
30.56
31.26
30.69
29.24
27.35
25.40
23.64
22.13
20.80
19.52
18.15
16.60
14.85
12.96
11.01
9.08
7.15
5.17
3.01
0.60
-2.05
-4.82
-7.54
-10.10
-12.54
-15.05
-17.89
-21.25
-25.20
-29.61
-34.15
-38.28
-41.39
-42.88
-42.27
-39.34
-34.26
-27.46
-19.58
-11.31
-3.18
4.44
11.39
17.55
22.78
26.85
29.51
30.55
30.02
28.25
25.87
23.57
21.87
20.95
20.57
20.21
19.38
17.83
15.65
13.24
11.04
9.36
8.21
7.35
6.36
4.82
2.54
-0.39
-3.58
-6.55
-8.97
-10.85
-12.55
-14.73
-18.00
-22.81
-29.28
-37.13
-45.60
-53.23
-57.89
-57.28
-49.67
-34.89
-14.70
7.44
27.59
42.62
51.26
54.11
53.01
49.93
46.24
42.51
38.79
35.08
31.54
28.36
25.51
22.54
18.74
13.59
7.22
0.75
-3.92
-4.78
-0.60
8.39
20.38
32.56
42.10
47.07
46.99
42.68
35.61
27.29
18.80
10.68
3.16
-3.68
-9.75
-15.08
-19.84
-24.45
-29.42
-35.16
-41.70
-48.59
-54.87
-59.38
-61.16
-59.70
-55.20
-48.42
-40.41
-32.17
-24.37
-17.30
-11.00
-5.38
-0.43
3.79
7.16
9.54
10.88
11.23
10.77
9.82
8.74
7.81
7.18
6.77
6.43
6.01
5.45
4.80
4.13
3.41
2.52
1.26
-0.45
-2.53
-4.69
-6.63
-8.10
-9.15
-10.01
-11.03
-12.48
-14.37
-16.56
-18.72
-20.61
-22.11
-23.34
-24.56
-26.10
-28.21
-31.01
-34.38
-37.95
-41.19
-43.42
-43.97
-42.39
-38.57
-32.74
-25.47
-17.48
-9.43
-1.84
4.98
10.86
15.74
19.61
22.55
24.69
26.19
27.25
28.03
28.62
29.09
29.46
29.76
29.95
29.97
29.66
28.93
27.69
25.97
23.88
21.49
18.88
16.04
12.96
9.67
6.27
2.96
-0.10
-2.85
-5.32
-7.69
-10.16
-12.97
-16.19
-19.80
-23.63
-27.29
-30.32
-32.14
-32.28
-30.43
-26.63
-21.18
-14.63
-7.57
-0.56
6.00
11.84
16.73
20.47
22.94
24.14
24.28
23.67
22.71
21.77
21.03
20.59
20.45
20.61
21.11
21.98
23.28
24.97
26.88
28.75
30.22
30.85
30.31
28.37
25.07
20.67
15.60
10.31
5.13
0.19
-4.59
-9.45
-14.65
-20.37
-26.57
-32.92
-38.76
-43.26
-45.58
-45.21
-42.12
-36.74
-29.79
-22.03
-14.08
-6.35
0.90
7.36
12.73
16.74
19.33
20.67
21.14
21.19
21.13
21.08
20.98
20.68
20.06
19.11
17.92
16.64
15.40
14.28
13.26
12.29
11.25
10.01
8.42
6.35
3.78
0.76
-2.52
-5.81
-8.92
-11.75
-14.38
-17.04
-20.04
-23.63
-27.85
-32.55
-37.25
-41.25
-43.80
-44.24
-42.25
-37.93
-31.74
-24.36
-16.47
-8.61
-1.10
5.88
12.20
17.73
22.27
25.67
27.85
28.86
28.91
28.25
27.16
25.84
24.38
22.80
21.11
19.37
17.67
16.14
14.82
13.61
12.36
10.86
9.02
6.80
4.28
1.54
-1.35
-4.37
-7.46
-10.51
-13.43
-16.13
-18.66
-21.20
-23.99
-27.25
-31.04
-35.18
-39.25
-42.63
-44.69
-44.88
-42.93
-38.89
-33.07
-26.00
-18.23
-10.28
-2.54
4.65
10.96
16.12
19.92
22.33
23.52
23.78
23.43
22.73
21.80
20.68
19.40
18.06
16.83
15.85
15.16
14.66
14.11
13.29
12.07
10.50
8.70
6.81
4.88
2.84
0.55
-2.09
-5.04
-8.14
-11.16
-14.01
-16.71
-19.45
-22.46
-25.83
-29.40
-32.69
-35.02
-35.73
-34.35
-30.80
-25.37
-18.59
-11.06
-3.27
4.37
11.54
17.92
23.19
27.07
29.47
30.53
30.58
30.07
29.33
28.49
27.49
26.19
24.53
22.58
20.57
18.75
17.27
16.12
15.11
13.98
12.51
10.57
8.15
5.35
2.30
-0.84
-3.96
-6.98
-9.94
-12.98
-16.31
-20.11
-24.38
-28.85
-32.94
-35.94
-37.24
-36.45
-33.56
-28.85
-22.77
-15.82
-8.41
-0.92
6.26
12.76
18.23
22.37
25.07
26.37
26.45
25.61
24.18
22.49
20.77
19.21
17.83
16.61
15.48
14.37
13.24
12.09
10.87
9.53
7.96
6.08
3.86
1.37
-1.26
-3.87
-6.33
-8.63
-10.84
-13.18
-15.90
-19.22
-23.22
-27.82
-32.71
-37.36
-41.12
-43.34
-43.54
-41.49
-37.24
-31.08
-23.52
-15.10
-6.40
2.06
9.83
16.56
22.00
26.03
28.64
29.96
30.23
29.72
28.71
27.37
25.84
24.19
22.53
20.97
19.68
18.76
18.22
17.94
17.68
17.19
16.26
14.80
12.78
10.27
7.35
4.17
0.88
-2.39
-5.57
-8.68
-11.79
-15.07
-18.67
-22.73
-27.32
-32.33
-37.47
-42.21
-45.82
-47.57
-46.95
-43.77
-38.31
-31.10
-22.85
-14.22
-5.77
2.12
9.16
15.22
20.25
24.31
27.43
29.61
30.80
30.94
30.05
28.33
26.08
23.67
21.37
19.27
17.32
15.39
13.36
11.18
8.96
6.81
4.87
3.15
1.57
-0.08
-2.03
-4.42
-7.26
-10.43
-13.72
-16.93
-19.89
-22.55
-24.95
-27.22
-29.58
-32.24
-35.37
-38.93
-42.63
-45.96
-48.19
-48.59
-46.57
-41.77
-34.19
-24.19
-12.51
-0.13
11.88
22.59
31.35
37.89
42.27
44.75
45.61
45.14
43.52
40.93
37.58
33.75
29.72
25.82
22.29
19.31
16.94
15.13
13.76
12.62
11.49
10.11
8.22
5.63
2.32
-1.44
-5.16
-8.19
-10.02
-10.51
-10.00
-9.17
-8.81
-9.49
-11.38
-14.18
-17.26
-19.87
-21.35
-21.29
-19.56
-16.25
-11.61
-5.93
0.46
7.19
13.80
19.77
24.60
27.91
29.62
29.88
29.09
27.70
26.03
24.24
22.38
20.43
18.42
16.41
14.49
12.70
11.01
9.36
7.70
6.04
4.42
2.84
1.27
-0.42
-2.39
-4.75
-7.50
-10.52
-13.61
-16.57
-19.25
-21.65
-23.88
-26.17
-28.77
-31.84
-35.39
-39.12
-42.50
-44.82
-45.36
-43.68
-39.71
-33.77
-26.47
-18.45
-10.24
-2.15
5.62
12.89
19.35
24.60
28.29
30.27
30.67
29.89
28.44
26.83
25.39
24.26
23.43
22.74
21.98
20.89
19.32
17.23
14.82
12.42
10.46
9.26
8.90
9.19
9.71
9.95
9.51
8.18
5.98
3.13
-0.21
-3.87
-7.87
-12.30
-17.32
-23.00
-29.26
-35.75
-41.93
-47.06
-50.42
-51.42
-49.79
-45.60
-39.22
-31.26
-22.36
-13.14
-4.11
4.33
11.91
18.44
23.77
27.81
30.50
31.90
32.14
31.42
30.05
28.26
26.25
24.17
22.11
20.21
18.58
17.23
16.07
14.92
13.53
11.72
9.44
6.81
4.02
1.23
-1.48
-4.16
-6.89
-9.76
-12.73
-15.74
-18.66
-21.47
-24.24
-27.14
-30.35
-33.98
-37.96
-41.96
-45.46
-47.79
-48.35
-46.72
-42.83
-36.90
-29.42
-21.04
-12.32
-3.80
4.14
11.21
17.19
21.91
25.29
27.36
28.22
28.09
27.27
26.04
24.65
23.29
21.98
20.69
19.37
18.04
16.78
15.73
14.98
14.49
14.03
13.32
12.08
10.21
7.81
5.16
2.55
0.16
-2.06
-4.32
-6.94
-10.16
-14.01
-18.22
-22.30
-25.58
-27.41
-27.32
-25.12
-20.93
-15.13
-8.23
-0.82
6.58
13.53
19.70
24.84
28.75
31.30
32.46
32.32
31.09
29.10
26.69
24.21
21.91
19.95
18.33
16.98
15.77
14.54
13.12
11.41
9.32
6.88
4.13
1.17
-1.87
-4.89
-7.85
-10.69
-13.46
-16.19
-19.00
-22.08
-25.61
-29.73
-34.38
-39.20
-43.54
-46.59
-47.61
-46.14
-42.13
-35.94
-28.18
-19.58
-10.77
-2.24
5.68
12.76
18.81
23.65
27.15
29.28
30.19
30.17
29.58
28.74
27.79
26.69
25.34
23.67
21.75
19.77
17.96
16.44
15.12
13.78
12.15
10.06
7.52
4.68
1.77
-1.03
-3.64
-6.08
-8.48
-10.98
-13.80
-17.14
-21.22
-26.11
-31.62
-37.27
-42.25
-45.68
-46.78
-45.13
-40.76
-34.11
-25.88
-16.88
-7.81
0.80
8.62
15.48
21.28
25.98
29.50
31.85
33.06
33.30
32.77
31.70
30.30
28.72
27.05
25.40
23.86
22.52
21.34
20.25
19.06
17.62
15.79
13.49
10.75
7.63
4.28
0.90
-2.26
-5.00
-7.22
-9.04
-10.70
-12.57
-15.01
-18.31
-22.62
-27.87
-33.76
-39.74
-45.06
-48.91
-50.66
-49.94
-46.71
-41.22
-33.88
-25.18
-15.65
-5.83
3.62
12.08
19.05
24.23
27.64
29.53
30.27
30.22
29.64
28.67
27.36
25.73
23.80
21.65
19.37
17.14
15.11
13.36
11.86
10.44
8.93
7.12
4.93
2.42
-0.34
-3.19
-6.03
-8.81
-11.46
-13.98
-16.37
-18.75
-21.26
-24.11
-27.37
-30.91
-34.28
-36.83
-37.83
-36.67
-33.14
-27.39
-19.95
-11.54
-2.89
5.45
13.09
19.80
25.37
29.61
32.41
33.78
33.93
33.23
32.10
30.80
29.44
27.90
26.05
23.85
21.42
19.00
16.81
14.90
13.17
11.41
9.41
7.06
4.40
1.57
-1.23
-3.88
-6.36
-8.73
-11.18
-13.95
-17.28
-21.29
-25.89
-30.72
-35.16
-38.48
-40.00
-39.29
-36.21
-30.97
-24.02
-15.94
-7.38
1.05
8.83
15.57
20.99
24.97
27.52
28.74
28.80
27.97
26.56
24.91
23.30
21.90
20.75
19.78
18.87
17.89
16.75
15.33
13.59
11.48
9.00
6.22
3.22
0.14
-2.94
-5.96
-8.88
-11.71
-14.50
-17.39
-20.61
-24.38
-28.85
-33.89
-39.04
-43.57
-46.61
-47.47
-45.74
-41.49
-35.14
-27.35
-18.80
-10.06
-1.56
6.38
13.49
19.56
24.42
27.94
30.16
31.20
31.31
30.77
29.82
28.66
27.37
25.96
24.41
22.70
20.87
18.99
17.15
15.42
13.77
12.09
10.17
7.84
4.99
1.69
-1.82
-5.28
-8.43
-11.24
-13.84
-16.53
-19.64
-23.33
-27.60
-32.19
-36.68
-40.55
-43.26
-44.30
-43.29
-40.03
-34.58
-27.30
-18.79
-9.73
-0.80
7.49
14.85
21.07
26.06
29.71
31.95
32.78
32.33
30.90
28.87
26.60
24.34
22.19
20.17
18.26
16.51
14.98
13.75
12.76
11.84
10.74
9.18
7.03
4.29
1.14
-2.14
-5.29
-8.10
-10.49
-12.52
-14.32
-16.09
-18.09
-20.57
-23.74
-27.70
-32.31
-37.13
-41.46
-44.44
-45.34
-43.69
-39.49
-33.09
-25.10
-16.20
-6.97
2.07
10.51
17.96
24.03
28.48
31.23
32.46
32.61
32.23
31.79
31.55
31.42
31.21
30.76
30.09
29.40
28.89
28.56
28.19
27.57
26.83
26.66
28.15
32.30
39.36
48.37
57.20
63.10
63.66
57.49
44.70
26.58
5.05
-17.83
-39.86
-58.50
-70.94
-74.82
-69.29
-56.01
-38.93
-23.03
-12.25
-7.79
-7.92
-9.25
-8.66
-4.92
1.10
7.48
12.68
16.56
20.27
25.40
32.86
42.31
52.32
61.18
67.59
71.24
72.72
72.94
72.49
71.32
68.72
63.91
56.48
46.79
35.91
25.19
15.83
8.35
2.55
-2.52
-8.11
-15.36
-24.79
-35.98
-47.58
-57.87
-65.34
-69.42
-70.63
-70.12
-69.03
-67.67
-65.47
-61.31
-54.29
-44.32
-32.06
-18.64
-5.03
8.08
20.08
30.03
36.49
38.01
33.98
25.52
15.48
7.55
4.79
8.18
16.19
25.34
31.76
32.86
28.34
20.12
11.37
5.10
3.13
5.70
11.86
20.05
28.40
34.85
37.19
33.66
23.65
8.57
-8.19
-22.26
-30.03
-30.05
-23.44
-12.97
-1.65
8.41
16.10
20.67
20.91
15.09
1.72
-19.43
-46.56
-76.08
-103.53
-124.94
-137.82
-141.68
-137.82
-128.75
-117.34
-106.14
-96.82
-90.04
-85.67
-83.12
-81.72
-80.96
-80.71
-81.36
-83.78
-88.96
-97.30
-107.97
-118.78
-126.71
-129.17
-125.04
-115.07
-101.30
-85.84
-69.83
-53.20
-35.24
-15.54
5.45
26.53
46.50
64.91
82.31
99.90
118.82
139.55
161.58
183.46
202.96
217.54
224.84
223.46
213.53
196.99
177.03
157.13
139.74
125.50
113.30
101.29
88.06
73.46
58.62
45.04
33.67
24.34
15.97
7.31
-2.29
-12.54
-22.53
-31.24
-38.23
-43.68
-48.23
-52.47
-56.54
-60.09
-62.51
-63.37
-62.67
-60.89
-58.74
-56.86
-55.64
-55.12
-55.16
-55.58
-56.31
-57.31
-58.49
-59.58
-60.05
-59.19
-56.33
-51.08
-43.50
-34.13
-23.83
-13.59
-4.21
3.78
10.16
14.90
18.10
19.90
20.52
20.25
19.43
18.44
17.55
16.93
16.61
16.52
16.57
16.69
16.83
16.93
16.85
16.40
15.30
13.31
10.30
6.36
1.80
-2.92
-7.37
-11.28
-14.71
-17.98
-21.47
-25.48
-30.07
-34.97
-39.61
-43.28
-45.25
-44.91
-42.01
-36.67
-29.45
-21.14
-12.61
-4.56
2.59
8.68
13.66
17.45
19.98
21.20
21.17
20.17
18.56
16.75
15.06
13.65
12.61
11.94
11.60
11.47
11.37
11.07
10.33
8.99
7.00
4.40
1.33
-2.06
-5.55
-8.87
-11.83
-14.34
-16.59
-18.99
-22.08
-26.18
-31.19
-36.38
-40.63
-42.79
-42.10
-38.44
-32.34
-24.67
-16.35
-8.03
-0.12
7.13
13.50
18.72
22.55
24.92
26.01
26.16
25.74
25.03
24.09
22.87
21.30
19.43
17.42
15.53
14.00
12.91
12.14
11.45
10.56
9.25
7.43
5.16
2.56
-0.20
-3.00
-5.77
-8.52
-11.31
-14.32
-17.78
-21.87
-26.58
-31.56
-36.11
-39.30
-40.26
-38.49
-33.98
-27.24
-19.08
-10.35
-1.76
6.23
13.32
19.34
24.11
27.49
29.39
29.85
29.11
27.58
25.71
23.90
22.41
21.26
20.34
19.50
18.60
17.59
16.50
15.38
14.22
12.93
11.36
9.35
6.87
4.02
1.01
-1.89
-4.55
-6.98
-9.36
-11.95
-15.02
-18.74
-23.01
-27.45
-31.39
-34.01
-34.58
-32.71
-28.44
-22.25
-14.88
-7.09
0.56
7.67
13.97
19.23
23.24
25.85
27.04
27.01
26.01
24.35
22.29
20.03
17.81
15.86
14.39
13.51
13.15
13.05
12.90
12.38
11.35
9.86
8.09
6.33
4.78
3.55
2.52
1.51
0.25
-1.46
-3.70
-6.39
-9.24
-11.85
-13.68
-14.21
-12.99
-9.69
-4.19
3.43
12.90
23.72
35.20
46.49
56.69
65.03
71.12
75.16
77.86
80.25
83.30
87.52
92.83
98.71
104.43
109.52
113.92
117.98
122.25
127.33
133.74
141.74
150.93
159.78
165.39
164.11
152.87
130.68
99.39
63.04
26.32
-7.18
-35.96
-60.40
-81.84
-101.62
-120.55
-138.87
-156.51
-173.18
-188.24
-200.84
-210.06
-215.41
-216.96
-215.04
-209.72
-200.61
-187.06
-168.91
-147.03
-123.20
-99.59
-77.94
-59.17
-43.44
-30.53
-20.13
-11.99
-5.79
-0.97
3.15
7.13
11.23
15.33
18.96
21.51
22.40
21.12
17.48
11.64
4.10
-4.38
-13.19
-22.16
-31.80
-43.10
-56.85
-72.97
-90.01
-105.30
-115.77
-119.01
-114.18
-102.31
-85.81
-67.42
-49.26
-32.43
-17.08
-3.17
9.01
18.64
24.86
27.32
26.56
23.91
21.04
19.42
19.94
22.76
27.29
32.20
35.57
35.29
29.83
18.87
3.55
-13.94
-31.42
-47.52
-61.97
-75.19
-87.35
-97.90
-105.64
-109.50
-109.45
-106.73
-103.31
-100.76
-99.18
-96.85
-90.85
-78.26
-57.46
-29.04
4.15
37.70
66.87
87.79
98.37
98.73
91.28
80.33
71.14
68.40
74.70
89.38
108.65
127.09
139.87
144.65
142.29
136.00
129.51
125.47
124.99
128.07
134.55
144.30
156.68
169.72
179.91
183.19
176.59
159.64
134.69
106.07
78.27
54.41
35.64
21.42
10.56
1.94
-4.99
-10.40
-14.33
-16.95
-18.54
-19.37
-19.60
-19.35
-18.80
-18.25
-18.05
-18.38
-19.12
-19.80
-19.84
-18.84
-16.85
-14.29
-11.81
-9.94
-8.97
-8.84
-9.24
-9.61
-9.27
-7.50
-3.80
1.87
8.90
16.11
22.08
25.66
26.33
24.38
20.62
16.09
11.61
7.53
3.75
-0.12
-4.58
-9.90
-16.10
-22.88
-29.73
-36.12
-41.55
-45.63
-48.00
-48.34
-46.45
-42.37
-36.45
-29.32
-21.83
-14.75
-8.68
-3.95
-0.71
1.04
1.40
0.53
-1.23
-3.38
-5.28
-6.30
-5.99
-4.21
-1.22
2.36
5.76
8.24
9.24
8.60
6.41
2.98
-1.36
-6.28
-11.45
-16.55
-21.22
-25.15
-28.18
-30.43
-32.29
-34.34
-37.10
-40.87
-45.50
-50.32
-54.32
-56.42
-55.76
-52.01
-45.49
-37.05
-27.75
-18.58
-10.24
-3.04
2.92
7.58
10.88
12.75
13.25
12.64
11.32
9.76
8.33
7.20
6.41
5.91
5.69
5.77
6.15
6.71
7.20
7.28
6.67
5.17
2.75
-0.41
-4.08
-7.97
-11.80
-15.34
-18.48
-21.32
-24.09
-27.15
-30.78
-35.04
-39.59
-43.73
-46.55
-47.24
-45.33
-40.86
-34.26
-26.21
-17.35
-8.15
1.07
10.04
18.37
25.56
31.09
34.58
35.95
35.48
33.72
31.34
28.86
26.64
24.84
23.46
22.41
21.59
20.85
20.01
18.86
17.23
15.02
12.23
8.96
5.35
1.54
-2.34
-6.18
-9.91
-13.46
-16.84
-20.12
-23.45
-27.08
-31.21
-35.90
-40.90
-45.65
-49.32
-50.99
-49.97
-45.96
-39.13
-30.11
-19.76
-9.02
1.26
10.43
18.08
24.05
28.34
31.09
32.49
32.73
32.03
30.62
28.80
26.80
24.88
23.19
21.86
20.90
20.22
19.63
18.81
17.42
15.23
12.20
8.52
4.56
0.67
-2.88
-6.08
-9.08
-12.27
-16.02
-20.56
-25.75
-31.03
-35.55
-38.46
-39.21
-37.85
-34.89
-31.11
-27.15
-23.22
-19.10
-14.33
-8.61
-1.91
5.41
12.75
19.46
24.95
28.71
30.43
30.11
28.22
25.77
24.15
24.68
28.12
34.28
42.04
49.68
55.55
58.52
58.31
55.37
50.51
44.59
38.25
31.91
25.83
20.24
15.30
11.04
7.31
3.75
-0.13
-4.74
-10.32
-16.75
-23.58
-30.11
-35.47
-38.83
-39.59
-37.51
-32.78
-25.95
-17.85
-9.33
-1.10
6.24
12.33
16.89
19.73
20.78
20.11
17.98
14.81
11.16
7.56
4.42
1.95
0.18
-1.00
-1.74
-2.16
-2.38
-2.49
-2.68
-3.19
-4.27
-6.05
-8.46
-11.24
-13.99
-16.36
-18.25
-19.82
-21.42
-23.53
-26.54
-30.58
-35.50
-40.72
-45.38
-48.43
-48.87
-46.09
-40.02
-31.24
-20.79
-9.89
0.45
9.55
17.09
23.00
27.26
29.89
30.92
30.56
29.14
27.14
25.01
23.05
21.33
19.78
18.23
16.62
15.01
13.63
12.70
12.28
12.20
12.09
11.42
9.77
6.99
3.26
-0.98
-5.15
-8.82
-11.81
-14.25
-16.59
-19.36
-23.04
-27.81
-33.39
-39.01
-43.59
-46.02
-45.46
-41.67
-35.01
-26.29
-16.56
-6.75
2.40
10.46
17.15
22.41
26.22
28.69
30.01
30.38
30.05
29.23
28.12
26.89
25.70
24.63
23.67
22.81
22.03
21.36
20.81
20.33
19.74
18.79
17.22
14.88
11.84
8.31
4.64
1.08
-2.20
-5.23
-8.22
-11.47
-15.31
-19.97
-25.45
-31.32
-36.75
-40.68
-42.09
-40.34
-35.45
-28.01
-19.04
-9.59
-0.54
7.58
14.53
20.20
24.51
27.37
28.71
28.64
27.40
25.41
23.10
20.83
18.83
17.18
15.81
14.65
13.63
12.74
11.96
11.31
10.67
9.88
8.72
7.05
4.84
2.24
-0.52
-3.20
-5.66
-7.99
-10.45
-13.41
-17.15
-21.80
-27.12
-32.51
-37.10
-39.88
-40.01
-37.01
-31.00
-22.67
-13.06
-3.32
5.63
13.20
19.17
23.53
26.35
27.72
27.77
26.73
24.95
22.86
20.82
19.10
17.77
16.81
16.09
15.52
14.96
14.27
13.33
12.05
10.41
8.45
6.25
3.92
1.50
-1.01
-3.64
-6.46
-9.55
-13.02
-16.97
-21.46
-26.33
-31.12
-35.12
-37.46
-37.37
-34.48
-28.93
-21.33
-12.56
-3.53
5.03
12.61
18.89
23.62
26.65
27.92
27.59
26.00
23.67
21.13
18.84
17.08
15.93
15.29
14.99
14.87
14.82
14.75
14.57
14.15
13.27
11.74
9.45
6.42
2.87
-0.92
-4.65
-8.11
-11.28
-14.27
-17.36
-20.91
-25.20
-30.34
-36.08
-41.80
-46.52
-49.21
-49.02
-45.58
-39.12
-30.38
-20.42
-10.26
-0.67
7.89
15.24
21.28
25.97
29.22
31.03
31.55
31.09
30.06
28.86
27.74
26.77
25.88
24.94
23.88
22.72
21.54
20.42
19.35
18.27
17.00
15.41
13.37
10.88
7.97
4.74
1.28
-2.28
-5.78
-9.10
-12.17
-15.03
-17.89
-21.05
-24.81
-29.35
-34.61
-40.20
-45.41
-49.35
-51.11
-50.03
-45.87
-38.91
-29.87
-19.75
-9.52
0.05
8.53
15.77
21.76
26.54
30.15
32.61
33.93
34.21
33.62
32.41
30.86
29.30
27.96
27.01
26.50
26.39
26.50
26.58
26.39
25.69
24.40
22.56
20.32
17.86
15.33
12.82
10.30
7.69
4.89
1.82
-1.58
-5.26
-9.12
-13.00
-16.73
-20.19
-23.45
-26.71
-30.30
-34.42
-38.98
-43.48
-47.04
-48.67
-47.63
-43.62
-36.97
-28.43
-18.94
-9.37
-0.38
7.66
14.53
20.12
24.39
27.33
28.99
29.51
29.14
28.22
27.09
26.07
25.26
24.67
24.12
23.49
22.73
21.88
21.00
20.08
19.03
17.65
15.81
13.48
10.72
7.67
4.47
1.23
-1.94
-4.95
-7.76
-10.41
-13.03
-15.85
-19.10
-22.90
-27.23
-31.78
-36.03
-39.28
-40.82
-40.09
-36.83
-31.20
-23.72
-15.12
-6.17
2.46
10.29
16.98
22.31
26.14
28.46
29.36
29.10
27.99
26.43
24.76
23.24
22.03
21.15
20.53
20.05
19.57
19.04
18.40
17.67
16.77
15.56
13.88
11.58
8.63
5.13
1.35
-2.39
-5.85
-8.87
-11.45
-13.78
-16.15
-18.87
-22.22
-26.32
-31.05
-35.95
-40.33
-43.34
-44.24
-42.56
-38.27
-31.71
-23.57
-14.62
-5.60
2.90
10.46
16.80
21.72
25.11
26.97
27.48
26.96
25.82
24.45
23.15
22.09
21.32
20.81
20.54
20.44
20.44
20.43
20.27
19.77
18.86
17.52
15.83
13.91
11.86
9.69
7.34
4.74
1.88
-1.21
-4.43
-7.66
-10.80
-13.74
-16.45
-18.91
-21.24
-23.65
-26.47
-30.05
-34.63
-40.06
-45.82
-50.97
-54.41
-55.20
-52.84
-47.40
-39.49
-30.01
-19.90
-9.92
-0.60
7.78
15.03
21.02
25.63
28.80
30.55
31.07
30.64
29.65
28.44
27.32
26.43
25.80
25.36
25.07
24.87
24.75
24.66
24.51
24.10
23.28
21.92
20.03
17.74
15.22
12.63
10.06
7.48
4.82
2.00
-1.00
-4.14
-7.30
-10.35
-13.21
-15.85
-18.36
-20.95
-23.96
-27.69
-32.33
-37.67
-43.06
-47.48
-49.77
-49.07
-45.09
-38.25
-29.47
-19.85
-10.29
-1.35
6.72
13.79
19.72
24.29
27.35
28.95
29.42
29.17
28.65
28.09
27.50
26.76
25.77
24.58
23.37
22.38
21.78
21.57
21.60
21.59
21.30
20.58
19.39
17.76
15.76
13.47
10.96
8.30
5.58
2.80
-0.03
-2.97
-6.08
-9.38
-12.85
-16.44
-20.10
-23.82
-27.64
-31.67
-35.96
-40.50
-45.05
-49.14
-52.05
-52.97
-51.26
-46.67
-39.48
-30.46
-20.61
-10.93
-2.15
5.35
11.47
16.24
19.74
22.02
23.13
23.16
22.33
20.96
19.43
18.08
17.10
16.50
16.12
15.75
15.22
14.52
13.77
13.11
12.63
12.29
11.90
11.19
9.93
8.02
5.56
2.80
0.07
-2.45
-4.74
-7.05
-9.67
-12.84
-16.61
-20.86
-25.41
-30.05
-34.49
-38.29
-40.85
-41.43
-39.46
-34.80
-27.88
-19.56
-10.87
-2.69
4.50
10.52
15.39
19.15
21.74
23.05
23.05
21.86
19.85
17.54
15.49
14.05
13.28
12.96
12.73
12.24
11.43
10.41
9.48
8.82
8.39
7.88
6.85
4.94
2.01
-1.78
-5.97
-9.95
-12.93
-14.12
-12.93
-9.27
-3.79
2.18
6.91
8.90
7.48
3.11
-2.74
-8.11
-11.27
-11.26
-8.07
-2.47
4.42
11.55
18.18
23.83
28.21
31.06
32.11
31.26
28.68
24.89
20.72
16.99
14.29
12.83
12.37
12.37
12.24
11.50
9.97
7.72
4.96
1.95
-1.19
-4.44
-7.90
-11.62
-15.56
-19.54
-23.40
-27.05
-30.58
-34.21
-38.22
-42.75
-47.76
-53.03
-58.29
-63.29
-67.89
-71.95
-75.28
-77.51
-78.04
-76.21
-71.47
-63.64
-53.06
-40.43
-26.83
-13.32
-0.77
10.25
19.46
26.80
32.25
35.86
37.73
38.06
37.26
35.78
34.11
32.59
31.30
30.12
28.89
27.50
25.99
24.56
23.41
22.64
22.13
21.60
20.71
19.19
16.94
14.04
10.71
7.19
3.64
0.12
-3.47
-7.28
-11.49
-16.24
-21.55
-27.34
-33.31
-38.91
-43.38
-45.94
-45.92
-43.02
-37.41
-29.68
-20.69
-11.36
-2.46
5.42
11.95
17.00
20.58
22.82
23.88
23.96
23.22
21.93
20.36
18.81
17.56
16.77
16.43
16.36
16.38
16.29
16.04
15.58
14.83
13.65
11.86
9.34
6.08
2.28
-1.75
-5.63
-9.16
-12.30
-15.18
-18.07
-21.18
-24.68
-28.55
-32.75
-37.16
-41.63
-45.94
-49.69
-52.31
-53.09
-51.39
-46.84
-39.55
-30.07
-19.26
-8.02
2.91
12.98
21.79
29.07
34.90
40.10
46.39
56.02
70.92
91.52
116.11
141.04
161.90
175.06
178.80
173.41
160.48
141.88
119.19
93.79
67.38
42.31
21.24
6.32
-1.70
-3.80
-2.26
0.13
1.11
-0.64
-5.54
-13.44
-23.97
-36.55
-50.19
-63.40
-74.29
-81.05
-82.58
-78.89
-71.17
-61.30
-51.20
-42.25
-35.03
-29.48
-25.23
-21.96
-19.55
-18.04
-17.50
-17.86
-18.88
-20.23
-21.60
-22.81
-23.88
-24.97
-26.24
-27.76
-29.41
-30.94
-32.09
-32.72
-32.91
-32.92
-33.02
-33.45
-34.17
-34.96
-35.52
-35.61
-35.17
-34.33
-33.41
-32.76
-32.75
-33.67
-35.74
-39.00
-43.26
-47.99
-52.33
-55.20
-55.58
-52.81
-46.80
-38.07
-27.60
-16.53
-5.84
3.88
12.39
19.69
25.77
30.55
33.81
35.37
35.24
33.70
31.25
28.51
26.01
24.05
22.68
21.82
21.35
21.23
21.45
22.00
22.76
23.55
24.13
24.34
24.10
23.38
22.24
20.68
18.72
16.34
13.56
10.47
7.18
3.85
0.56
-2.71
-6.10
-9.86
-14.21
-19.21
-24.66
-29.99
-34.42
-37.08
-37.26
-34.57
-29.11
-21.37
-12.14
-2.32
7.28
16.04
23.60
29.79
34.59
38.08
40.43
41.84
42.53
42.65
42.29
41.43
40.03
38.14
35.90
33.49
31.13
28.88
26.68
24.36
21.74
18.74
15.41
11.96
8.67
5.75
3.35
1.47
0.01
-1.18
-2.20
-3.06
-3.75
-4.28
-4.74
-5.28
-6.11
-7.47
-9.50
-12.32
-15.96
-20.33
-25.17
-29.97
-34.02
-36.54
-36.90
-34.78
-30.23
-23.60
-15.40
-6.24
3.32
12.68
21.30
28.69
34.47
38.46
40.64
41.22
40.53
38.93
36.80
34.50
32.29
30.38
28.90
27.85
27.15
26.63
26.09
25.35
24.29
22.95
21.42
19.80
18.11
16.28
14.14
11.56
8.50
5.10
1.58
-1.82
-4.93
-7.75
-10.44
-13.22
-16.35
-20.02
-24.32
-29.12
-34.09
-38.64
-41.99
-43.40
-42.27
-38.46
-32.23
-24.31
-15.60
-7.05
0.58
6.77
11.30
14.13
15.42
15.38
14.33
12.59
10.50
8.40
6.56
5.20
4.43
4.20
4.39
4.79
5.25
5.64
5.93
6.06
5.94
5.45
4.45
2.89
0.84
-1.56
-4.11
-6.66
-9.12
-11.48
-13.81
-16.20
-18.79
-21.65
-24.80
-28.01
-30.84
-32.68
-32.90
-31.05
-27.01
-21.05
-13.73
-5.72
2.33
9.88
16.54
22.02
26.09
28.59
29.45
28.82
27.03
24.57
21.94
19.50
17.42
15.62
13.96
12.28
10.56
8.87
7.32
5.98
4.78
3.64
2.49
1.33
0.27
-0.62
-1.35
-2.05
-2.95
-4.28
-6.18
-8.74
-12.03
-16.13
-21.14
-26.96
-33.17
-38.91
-43.14
-44.84
-43.48
-39.11
-32.39
-24.30
-15.80
-7.63
-0.22
6.15
11.37
15.27
17.76
18.83
18.61
17.39
15.51
13.33
11.10
8.93
6.90
5.04
3.42
2.20
1.54
1.49
1.94
2.59
3.04
2.94
2.10
0.53
-1.61
-4.08
-6.62
-8.97
-10.94
-12.40
-13.37
-14.05
-14.79
-15.97
-17.87
-20.48
-23.51
-26.32
-28.11
-28.07
-25.63
-20.60
-13.26
-4.25
5.61
15.50
24.78
33.01
39.87
45.14
48.62
50.25
50.17
48.74
46.56
44.21
42.17
40.63
39.58
38.89
38.37
37.87
37.27
36.45
35.23
33.44
30.92
27.60
23.46
18.56
13.00
6.89
0.36
-6.40
-13.20
-19.82
-26.05
-31.74
-36.85
-41.51
-46.00
-50.65
-55.65
-60.89
-65.84
-69.68
-71.51
-70.66
-66.90
-60.53
-52.27
-42.99
-33.60
-24.77
-16.93
-10.30
-4.91
-0.77
2.17
3.96
4.70
4.63
4.04
3.31
2.73
2.48
2.60
2.99
3.57
4.20
4.85
5.44
5.94
6.29
6.54
6.73
6.93
7.16
7.39
7.48
7.31
6.80
5.94
4.87
3.75
2.75
1.98
1.36
0.64
-0.60
-2.80
-6.26
-10.80
-15.84
-20.37
-23.38
-24.13
-22.41
-18.51
-13.08
-6.85
-0.46
5.61
10.97
15.28
18.25
19.76
19.90
18.94
17.32
15.45
13.66
12.14
10.99
10.22
9.81
9.70
9.81
10.03
10.26
10.43
10.46
10.26
9.68
8.56
6.81
4.44
1.61
-1.44
-4.44
-7.19
-9.61
-11.76
-13.80
-15.97
-18.52
-21.63
-25.35
-29.53
-33.75
-37.34
-39.55
-39.66
-37.21
-32.15
-24.89
-16.20
-7.03
1.78
9.57
15.98
20.89
24.29
26.25
26.85
26.23
24.64
22.45
20.11
18.00
16.40
15.36
14.71
14.20
13.54
12.58
11.30
9.80
8.18
6.51
4.83
3.16
1.62
0.43
-0.16
0.04
1.04
2.64
4.43
5.95
6.75
6.49
5.02
2.35
-1.36
-5.75
-10.28
-14.23
-16.87
-17.55
-15.95
-12.16
-6.69
-0.35
6.00
11.65
16.19
19.47
21.51
22.40
22.23
21.07
19.03
16.26
13.00
9.52
6.16
3.24
1.00
-0.37
-0.86
-0.63
0.02
0.73
1.17
1.14
0.58
-0.42
-1.72
-3.21
-4.80
-6.50
-8.32
-10.28
-12.40
-14.63
-16.91
-19.10
-21.14
-22.99
-24.75
-26.59
-28.84
-31.70
-35.21
-39.03
-42.50
-44.72
-44.79
-42.17
-36.74
-28.95
-19.59
-9.59
0.17
9.04
16.62
22.71
27.27
30.39
32.19
32.86
32.58
31.48
29.72
27.50
25.08
22.78
20.89
19.58
18.86
18.55
18.36
18.05
17.46
16.58
15.51
14.38
13.28
12.26
11.27
10.15
8.69
6.70
4.08
0.97
-2.37
-5.58
-8.34
-10.57
-12.46
-14.42
-16.93
-20.38
-24.91
-30.32
-36.09
-41.40
-45.34
-47.10
-46.11
-42.24
-35.85
-27.60
-18.40
-9.10
-0.38
7.34
13.85
19.05
22.94
25.52
26.88
27.12
26.48
25.25
23.72
22.16
20.74
19.56
18.63
17.92
17.38
16.96
16.58
16.10
15.37
14.23
12.62
10.58
8.25
5.77
3.27
0.76
-1.77
-4.33
-6.84
-9.16
-11.16
-12.75
-13.96
-14.92
-15.82
-16.85
-18.11
-19.61
-21.23
-22.66
-23.44
-23.03
-20.90
-16.69
-10.34
-2.07
7.57
17.81
27.79
36.68
43.85
48.99
52.06
53.23
52.62
50.30
46.18
40.22
32.63
23.96
15.03
6.69
-0.52
-6.51
-11.62
-16.36
-21.18
-26.32
-31.76
-37.35
-42.89
-48.21
-53.11
-57.41
-61.08
-64.24
-67.19
-70.15
-72.79
-74.10
-72.46
-66.25
-54.61
-37.98
-18.03
2.63
21.29
35.75
44.79
48.41
47.79
44.95
42.35
42.06
45.31
52.00
60.92
70.12
77.55
81.48
80.86
75.40
65.74
53.39
40.37
28.74
19.80
13.75
9.70
6.25
2.14
-3.35
-10.37
-18.64
-27.68
-36.81
-45.04
-51.11
-53.71
-51.87
-45.32
-34.49
-20.37
-4.18
12.95
30.04
46.25
60.82
73.14
82.80
89.69
93.95
96.03
96.45
95.70
94.05
91.30
86.87
80.05
70.57
59.05
47.16
37.22
31.50
31.44
37.29
48.11
62.29
77.87
92.79
104.88
111.76
111.18
101.55
82.63
56.03
25.04
-6.11
-33.42
-54.14
-67.41
-74.14
-76.25
-75.82
-74.31
-72.48
-70.68
-69.29
-68.95
-70.34
-73.82
-79.01
-84.94
-90.41
-94.61
-97.35
-99.00
-100.05
-100.69
-100.70
-99.69
-97.54
-94.69
-92.05
-90.68
-91.21
-93.58
-96.93
-99.92
-101.12
-99.46
-94.50
-86.38
-75.79
-63.64
-50.85
