1530632186.00
64.000000
-0.00
-0.00
-0.00
-0.00
-0.00
-0.00
-0.00
-0.00
-0.00
-0.00
0.00
0.01
0.01
-0.00
-0.03
-0.05
-0.05
0.00
0.13
0.36
0.66
1.01
1.37
1.72
2.06
2.40
2.79
3.24
3.80
4.42
5.06
5.67
6.21
6.69
7.17
7.72
8.38
9.26
10.27
11.32
12.29
13.12
13.88
14.72
15.85
17.42
19.64
22.33
25.22
28.01
30.54
32.89
35.36
38.39
42.29
47.44
53.51
59.99
66.29
72.07
77.38
82.71
88.75
96.03
105.08
115.45
126.34
136.90
146.56
155.34
163.86
173.44
182.76
194.09
208.10
224.93
243.41
260.62
272.23
273.55
261.19
234.24
195.09
147.67
96.38
44.49
-6.45
-56.20
-104.94
-152.42
-197.84
-239.80
-277.30
-309.67
-336.47
-357.08
-370.52
-375.59
-371.19
-356.91
-333.82
-304.04
-270.16
-234.77
-199.90
-166.85
-136.11
-107.69
-81.39
-57.01
-34.56
-14.22
3.77
19.32
32.52
43.59
52.79
60.18
65.68
69.50
71.65
72.11
71.03
68.64
65.30
61.28
56.72
51.60
45.88
39.50
32.59
25.45
18.44
11.84
5.73
-0.11
-6.03
-12.35
-19.15
-26.30
-33.45
-40.35
-47.17
-54.43
-62.86
-73.04
-85.11
-98.70
-113.47
-129.62
-147.98
-169.50
-194.08
-219.72
-242.58
-258.10
-262.80
-255.56
-237.74
-212.20
-181.91
-149.10
-115.53
-83.37
-55.83
-36.48
-27.52
-28.20
-34.21
-39.37
-38.37
-29.30
-14.33
1.73
14.16
20.95
23.69
26.36
32.70
43.93
57.84
69.91
75.75
73.23
63.58
50.38
37.69
28.08
21.74
17.06
12.04
5.77
-1.07
-6.80
-9.94
-10.31
-9.14
-8.29
-9.08
-11.62
-14.75
-16.81
-16.58
-13.86
-9.52
-5.04
-1.80
-0.35
-0.20
-0.01
1.77
6.05
12.07
17.27
17.84
10.38
-6.00
-28.41
-50.69
-66.33
-71.58
-67.54
-59.38
-52.97
-50.78
-49.93
-43.78
-26.14
4.41
43.16
82.02
114.50
139.63
161.78
186.61
215.65
243.25
258.06
249.11
212.55
155.08
91.66
38.60
5.49
-9.52
-17.61
-32.32
-61.14
-100.98
-140.05
-165.09
-170.04
-160.20
-149.23
-150.95
-171.25
-204.31
-235.52
-249.51
-237.43
-200.76
-149.86
-97.32
-51.52
-13.47
21.69
59.99
103.18
146.44
179.07
189.48
173.00
136.32
95.27
67.56
63.57
80.46
104.69
119.73
115.06
93.72
70.83
63.78
82.17
122.60
171.04
212.13
236.33
241.82
234.91
225.03
217.82
212.51
203.57
179.15
133.33
79.99
36.20
13.76
20.28
53.45
100.44
143.06
165.90
164.28
145.21
120.91
102.86
95.69
94.68
90.24
75.54
51.88
29.32
19.87
28.17
48.95
69.55
77.13
66.50
43.76
22.44
15.90
28.24
50.03
63.98
54.81
18.15
-35.98
-87.53
-116.64
-113.51
-83.01
-42.20
-10.94
-2.40
-18.28
-50.35
-86.67
-118.70
-144.59
-167.69
-191.83
-216.27
-234.33
-236.31
-214.92
-169.96
-109.82
-48.46
0.64
30.18
42.27
45.88
51.18
63.11
78.23
87.03
80.44
56.90
25.11
0.33
-3.94
15.69
49.78
81.06
94.04
83.72
58.15
32.68
20.40
23.57
32.15
30.28
6.45
-38.41
-89.96
-127.57
-135.36
-110.55
-65.58
-21.79
0.91
-6.73
-39.18
-80.07
-110.83
-120.02
-108.47
-87.25
-70.28
-65.55
-70.28
-73.49
-63.90
-38.63
-6.79
15.10
13.25
-14.08
-53.76
-84.95
-91.30
-70.65
-36.33
-8.55
-1.75
-15.18
-33.44
-35.55
-7.66
48.17
114.42
166.66
185.23
163.93
111.78
47.49
-9.49
-47.01
-63.66
-66.59
-65.89
-68.86
-76.49
-83.99
-84.58
-73.94
-53.03
-27.74
-5.55
8.71
15.76
21.08
31.10
48.33
68.99
84.46
85.96
70.60
43.93
17.80
4.23
8.42
25.65
44.30
52.86
47.30
33.75
24.55
30.32
52.59
81.99
103.60
105.80
87.16
57.42
31.52
20.32
23.65
30.41
25.24
-1.69
-47.63
-97.74
-132.89
-140.07
-120.06
-86.52
-58.03
-47.55
-55.60
-70.76
-77.85
-67.50
-41.77
-12.94
4.76
3.97
-10.90
-26.18
-27.08
-6.53
30.16
67.75
89.42
86.20
61.66
29.92
6.83
0.58
7.02
12.67
4.10
-22.51
-56.85
-79.34
-72.26
-30.63
33.12
94.94
131.06
129.82
96.85
51.33
15.04
1.90
12.76
37.13
61.38
76.27
81.16
81.29
84.55
96.17
115.23
137.26
153.39
155.44
139.42
106.09
61.51
14.43
-27.29
-59.31
-81.22
-95.87
-105.58
-110.70
-109.60
-100.20
-82.06
-57.90
-32.94
-12.90
-1.77
0.04
-4.74
-11.73
-17.03
-18.68
-17.12
-14.53
-13.31
-15.06
-19.65
-25.65
-31.07
-34.30
-34.74
-32.92
-30.09
-27.52
-26.05
-25.76
-26.10
-26.32
-25.87
-24.54
-22.56
-20.38
-18.34
-16.61
-15.06
-13.43
-11.54
-9.44
-7.35
-5.54
-4.15
-3.07
-1.91
-0.23
2.22
5.36
8.61
11.28
12.85
13.26
13.03
13.11
14.41
17.41
21.82
26.53
30.19
31.71
30.74
27.75
23.85
20.02
16.65
13.23
8.47
1.03
-10.08
-25.37
-44.94
-68.17
-93.15
-116.23
-131.58
-134.49
-122.43
-97.02
-63.91
-30.91
-4.84
11.00
17.44
18.12
16.73
15.51
14.66
13.36
11.14
8.62
7.14
7.73
10.44
14.06
17.00
17.89
16.44
13.41
10.20
8.20
8.11
9.75
12.11
13.99
14.51
13.46
11.34
9.06
7.50
7.12
7.80
8.96
9.93
10.17
9.56
8.34
6.97
5.88
5.28
5.13
5.15
5.03
4.51
3.55
2.21
0.66
-0.95
-2.56
-4.20
-5.94
-7.88
-10.09
-12.56
-15.28
-18.23
-21.44
-24.96
-28.85
-33.18
-37.97
-43.23
-48.91
-55.00
-61.51
-68.50
-76.05
-84.23
-93.09
-102.51
-112.31
-122.11
-131.47
-139.95
-147.10
-152.49
-155.68
-156.18
-153.42
-146.97
-136.37
-121.42
-102.35
-79.93
-55.39
-30.17
-5.60
17.33
38.17
56.91
73.73
88.70
101.60
111.95
119.27
123.40
124.76
124.44
123.88
124.33
126.43
129.88
133.68
136.61
137.90
137.58
136.58
136.23
137.83
142.25
149.79
160.08
171.88
182.92
189.92
189.21
177.93
155.33
123.52
87.13
51.71
21.78
-0.71
-16.64
-28.56
-38.97
-48.94
-57.87
-64.25
-67.00
-66.43
-64.29
-62.85
-63.65
-66.63
-70.04
-71.50
-69.36
-63.70
-56.43
-50.25
-47.24
-47.60
-49.59
-50.39
-47.76
-41.37
-33.04
-25.81
-22.23
-22.93
-26.24
-29.16
-29.04
-25.04
-18.62
-12.63
-9.70
-10.77
-14.52
-18.21
-19.22
-16.48
-11.04
-5.45
-2.28
-2.61
-5.49
-8.51
-9.26
-6.73
-1.97
2.61
4.62
3.18
-0.60
-4.23
-5.40
-3.26
0.93
4.65
5.57
2.94
-1.94
-6.45
-8.19
-6.29
-1.96
2.24
3.92
2.22
-1.65
-5.17
-6.00
-3.43
1.18
5.21
6.31
3.84
-0.70
-4.57
-5.43
-2.72
1.93
5.72
6.28
3.09
-2.26
-6.95
-8.56
-6.41
-1.90
2.34
3.98
2.30
-1.42
-4.68
-5.28
-2.63
1.90
5.77
6.79
4.48
0.37
-2.86
-3.05
0.13
4.92
8.50
8.69
5.23
-0.03
-4.22
-5.13
-2.47
1.97
5.43
5.78
2.77
-1.89
-5.56
-6.20
-3.50
0.91
4.49
5.18
2.67
-1.50
-4.76
-5.07
-2.05
2.70
6.57
7.39
4.72
0.11
-3.77
-4.64
-1.97
2.75
6.78
7.81
5.23
0.49
-3.78
-5.29
-3.45
0.29
3.40
3.75
0.95
-3.49
-7.00
-7.57
-4.94
-0.75
2.41
2.61
-0.29
-4.53
-7.52
-7.35
-3.97
0.77
4.22
4.47
1.50
-2.84
-5.94
-5.90
-2.72
1.76
4.92
4.91
1.72
-2.79
-6.03
-6.18
-3.24
0.97
3.90
3.78
0.67
-3.60
-6.47
-6.13
-2.61
2.24
5.76
6.05
3.02
-1.60
-5.23
-5.90
-3.40
0.67
3.86
4.33
1.94
-1.68
-4.12
-3.67
-0.40
3.86
6.62
6.21
2.84
-1.52
-4.24
-3.65
-0.04
4.48
7.22
6.43
2.38
-2.87
-6.60
-7.01
-4.15
0.09
3.15
3.28
0.51
-3.36
-5.88
-5.36
-1.94
2.51
5.45
5.20
1.99
-2.22
-4.80
-4.09
-0.37
4.24
7.06
6.42
2.75
-1.74
-4.29
-3.29
0.79
5.65
8.49
7.72
3.83
-0.87
-3.66
-3.01
0.49
4.51
6.37
4.69
0.19
-4.68
-7.20
-5.99
-1.84
2.77
5.11
3.76
-0.56
-5.43
-8.17
-7.39
-3.77
0.39
2.56
1.47
-2.12
-5.91
-7.44
-5.58
-1.22
3.24
5.32
3.95
0.06
-3.91
-5.48
-3.62
0.69
5.00
6.83
5.16
0.98
-3.24
-5.00
-3.22
1.11
5.50
7.41
5.72
1.37
-3.11
-5.14
-3.53
0.77
5.25
7.26
5.56
1.01
-3.87
-6.41
-5.30
-1.30
3.18
5.53
4.41
0.51
-3.86
-6.20
-5.20
-1.54
2.56
4.65
3.46
-0.34
-4.57
-6.79
-5.75
-2.12
1.91
3.93
2.72
-1.00
-5.01
-6.87
-5.39
-1.39
2.82
4.75
3.24
-0.82
-5.03
-6.88
-5.26
-1.15
2.99
4.67
2.88
-1.26
-5.19
-6.38
-3.89
1.07
5.82
7.77
5.93
1.51
-2.86
-4.63
-2.87
1.23
5.10
6.33
4.14
-0.20
-4.13
-5.33
-3.12
1.15
4.91
5.90
3.54
-0.75
-4.36
-5.09
-2.41
2.14
5.87
6.50
3.54
-1.43
-5.62
-6.67
-4.03
0.75
4.85
5.91
3.35
-1.25
-5.12
-5.92
-3.16
1.55
5.37
5.97
2.86
-2.24
-6.41
-7.21
-4.10
1.25
5.88
7.27
4.76
-0.05
-4.26
-5.39
-2.78
2.01
6.14
7.16
4.45
-0.44
-4.70
-5.93
-3.51
1.05
5.05
6.16
3.80
-0.53
-4.17
-4.92
-2.33
2.03
5.53
6.00
3.09
-1.52
-5.14
-5.59
-2.58
2.14
5.81
6.25
3.22
-1.48
-5.04
-5.29
-2.03
2.90
6.66
7.11
4.01
-0.84
-4.66
-5.35
-2.68
1.61
4.88
5.11
2.12
-2.40
-5.86
-6.29
-3.49
0.88
4.28
4.74
2.02
-2.25
-5.56
-5.94
-3.18
1.07
4.22
4.32
1.18
-3.50
-7.05
-7.39
-4.26
0.58
4.46
5.23
2.55
-1.94
-5.60
-6.34
-3.79
0.48
3.92
4.51
1.94
-2.23
-5.50
-5.90
-3.12
1.29
4.81
5.47
2.94
-1.27
-4.69
-5.29
-2.70
1.62
5.16
5.92
3.51
-0.57
-3.80
-4.19
-1.40
2.99
6.45
7.00
4.36
0.20
-2.95
-3.16
-0.30
3.89
6.80
6.50
2.86
-2.35
-6.45
-7.45
-5.04
-0.86
2.52
3.12
0.65
-3.25
-6.07
-5.88
-2.54
2.22
5.80
6.25
3.49
-0.72
-3.76
-3.73
-0.64
3.64
6.42
5.83
1.89
-3.45
-7.45
-8.15
-5.45
-1.11
2.30
2.94
0.76
-2.54
-4.53
-3.61
0.03
4.45
7.06
6.18
2.07
-3.12
-6.59
-6.41
-2.67
2.57
6.48
7.09
4.30
-0.07
-3.47
-4.09
-1.92
1.36
3.45
2.87
-0.12
-3.67
-5.46
-4.08
-0.01
4.63
7.18
6.01
1.51
-4.05
-7.79
-7.81
-4.26
0.75
4.42
4.85
2.10
-1.96
-4.78
-4.65
-1.71
2.22
4.69
4.16
0.84
-3.32
-5.81
-5.00
-1.14
3.71
6.86
6.52
2.86
-2.06
-5.51
-5.62
-2.53
1.79
4.71
4.54
1.52
-2.33
-4.52
-3.54
0.21
4.56
6.92
5.74
1.49
-3.61
-6.84
-6.53
-3.05
1.48
4.44
4.26
1.31
-2.38
-4.34
-3.21
0.47
4.54
6.48
4.91
0.46
-4.58
-7.52
-6.82
-2.96
1.83
4.86
4.55
1.35
-2.52
-4.43
-2.97
1.26
5.92
8.37
7.23
3.23
-1.30
-3.76
-2.86
0.64
4.43
6.00
4.16
-0.29
-4.98
-7.35
-6.12
-2.01
2.64
5.25
4.39
0.63
-3.84
-6.46
-5.77
-2.22
2.03
4.44
3.56
-0.14
-4.50
-6.93
-5.91
-1.90
2.94
5.98
5.64
2.33
-1.83
-4.28
-3.52
-0.06
3.99
6.14
5.04
1.33
-2.78
-4.82
-3.52
0.40
4.61
6.55
4.92
0.44
-4.50
-7.26
-6.46
-2.73
1.66
4.18
3.48
0.21
-3.40
-4.89
-3.08
1.17
5.43
7.09
4.95
-0.03
-5.31
-8.13
-7.14
-3.13
1.46
3.99
3.16
-0.24
-3.85
-5.13
-2.94
1.76
6.43
8.37
6.37
1.36
-4.07
-7.15
-6.48
-2.78
1.63
4.20
3.68
0.71
-2.55
-3.88
-2.27
1.42
4.95
6.06
3.82
-0.75
-5.19
-7.05
-5.23
-0.71
4.02
6.38
5.13
1.13
-3.26
-5.53
-4.49
-0.94
2.81
4.39
2.76
-1.12
-4.86
-6.08
-3.79
0.91
5.49
7.43
5.68
1.29
-3.23
-5.36
-4.03
-0.30
3.35
4.50
2.23
-2.22
-6.20
-7.20
-4.30
1.23
6.55
8.89
7.06
2.13
-3.21
-6.21
-5.55
-2.07
1.86
3.81
2.76
-0.38
-3.36
-4.02
-1.62
2.68
6.42
7.35
4.73
-0.14
-4.55
-5.96
-3.45
1.69
6.65
8.67
6.65
1.74
-3.30
-5.80
-4.65
-0.93
2.85
4.30
2.62
-1.02
-4.27
-5.02
-2.72
1.33
4.68
5.23
2.44
-2.30
-6.44
-7.68
-5.32
-0.65
3.76
5.58
3.99
0.15
-3.51
-4.75
-2.85
1.01
4.41
5.18
2.74
-1.58
-5.24
-6.05
-3.44
1.19
5.23
6.38
3.99
-0.60
-4.78
-6.22
-4.21
-0.07
3.62
4.57
2.12
-2.34
-6.16
-7.01
-4.24
0.70
5.10
6.53
4.27
-0.32
-4.55
-6.03
-4.03
0.11
3.81
4.79
2.42
-1.94
-5.76
-6.85
-4.64
-0.44
3.32
4.50
2.56
-1.16
-4.20
-4.45
-1.46
3.28
7.16
7.97
5.21
0.40
-3.77
-5.01
-2.76
1.46
4.97
5.49
2.46
-2.59
-6.99
-8.44
-6.32
-2.03
1.85
3.05
0.94
-3.13
-6.60
-7.23
-4.41
0.43
4.64
5.90
3.60
-0.80
-4.62
-5.50
-2.83
1.89
5.95
6.97
4.38
-0.26
-4.18
-5.04
-2.27
2.55
6.64
7.69
5.16
0.61
-3.22
-4.10
-1.59
2.68
5.97
6.14
2.89
-1.95
-5.57
-5.80
-2.45
2.59
6.47
7.01
4.01
-0.70
-4.32
-4.80
-2.01
2.22
5.22
5.09
1.85
-2.58
-5.52
-5.15
-1.59
3.11
6.22
5.90
2.29
-2.55
-5.78
-5.53
-1.91
3.01
6.38
6.26
2.71
-2.25
-5.81
-5.97
-2.76
1.88
5.18
5.17
1.80
-3.02
-6.56
-6.85
-3.79
0.79
4.20
4.43
1.34
-3.33
-6.88
-7.29
-4.33
0.27
3.83
4.29
1.35
-3.31
-6.99
-7.56
-4.65
0.14
4.11
5.10
2.68
-1.55
-4.94
-5.37
-2.47
2.14
5.81
6.46
3.86
-0.27
-3.27
-3.14
0.17
4.80
8.02
7.89
4.40
-0.49
-4.08
-4.46
-1.64
2.44
5.14
4.62
0.92
-4.03
-7.53
-7.67
-4.39
0.44
4.10
4.58
1.71
-2.76
-6.14
-6.41
-3.39
1.18
4.68
5.15
2.50
-1.48
-4.17
-3.74
-0.24
4.40
7.56
7.45
4.18
-0.33
-3.49
-3.60
-0.77
3.10
5.52
4.86
1.29
-3.32
-6.46
-6.47
-3.45
0.79
3.73
3.62
0.48
-3.84
-6.73
-6.38
-2.79
2.15
5.75
6.12
3.18
-1.25
-4.55
-4.85
-2.10
1.92
4.69
4.46
1.29
-2.94
-5.69
-5.20
-1.60
3.20
6.56
6.64
3.49
-1.04
-4.32
-4.51
-1.62
2.47
5.13
4.53
0.80
-4.05
-7.21
-6.78
-2.85
2.47
6.29
6.57
3.32
-1.47
-5.03
-5.41
-2.67
1.29
3.86
3.38
0.09
-3.98
-6.20
-4.97
-0.64
4.61
7.97
7.61
3.71
-1.62
-5.57
-6.16
-3.40
0.83
3.93
4.14
1.53
-2.09
-4.36
-3.74
-0.47
3.55
5.89
5.01
1.20
-3.55
-6.62
-6.25
-2.59
2.41
6.01
6.30
3.23
-1.36
-4.85
-5.40
-2.98
0.64
3.08
2.77
-0.03
-3.44
-5.11
-3.68
0.36
4.88
7.32
6.15
1.83
-3.39
-6.72
-6.35
-2.55
2.48
5.86
5.67
2.08
-2.73
-5.89
-5.52
-1.84
2.98
6.12
5.81
2.32
-2.26
-5.30
-5.19
-2.23
1.62
4.00
3.53
0.62
-2.86
-4.70
-3.67
-0.26
3.60
5.63
4.53
0.77
-3.64
-6.23
-5.49
-1.77
2.87
5.81
5.35
1.82
-2.64
-5.23
-4.23
-0.03
5.00
7.87
6.76
2.16
-3.37
-6.69
-5.90
-1.49
3.93
7.18
6.38
2.04
-3.28
-6.51
-5.85
-1.87
2.96
5.74
4.87
0.95
-3.64
-6.23
-5.38
-1.75
2.42
4.61
3.56
-0.11
-4.28
-6.59
-5.81
-2.48
1.44
3.77
3.33
0.57
-2.71
-4.49
-3.64
-0.66
2.72
4.50
3.63
0.65
-2.62
-4.13
-2.81
0.72
4.45
6.09
4.50
0.37
-3.99
-6.00
-4.27
0.48
5.73
8.55
7.32
2.70
-2.69
-5.81
-4.93
-0.70
4.28
7.02
5.91
1.66
-3.19
-5.83
-4.87
-1.12
2.99
4.88
3.42
-0.52
-4.56
-6.32
-4.76
-0.79
3.35
5.34
4.14
0.51
-3.47
-5.58
-4.74
-1.54
2.11
4.11
3.39
0.48
-2.84
-4.57
-3.69
-0.76
2.46
4.02
2.96
-0.16
-3.55
-5.25
-4.26
-1.15
2.25
3.91
2.83
-0.38
-3.77
-5.18
-3.52
0.50
4.67
6.55
4.88
0.46
-4.24
-6.46
-4.76
0.07
5.37
8.16
6.89
2.33
-2.82
-5.61
-4.51
-0.33
4.37
6.79
5.57
1.54
-2.90
-5.24
-4.35
-1.05
2.45
3.97
2.60
-0.76
-4.02
-5.13
-3.30
0.51
4.16
5.52
3.68
-0.45
-4.60
-6.38
-4.65
-0.23
4.52
6.96
5.69
1.36
-3.67
-6.70
-6.22
-2.77
1.43
3.84
3.15
0.01
-3.41
-4.77
-3.04
0.89
4.69
6.00
3.85
-0.72
-5.21
-7.09
-5.27
-0.75
3.98
6.32
5.07
1.10
-3.18
-5.25
-3.91
0.02
4.17
6.07
4.55
0.49
-3.76
-5.74
-4.31
-0.34
3.83
5.80
4.49
0.78
-2.99
-4.43
-2.54
1.70
5.86
7.46
5.42
0.70
-4.26
-6.93
-6.07
-2.44
1.70
3.93
3.08
-0.10
-3.42
-4.60
-2.66
1.43
5.30
6.59
4.33
-0.44
-5.26
-7.67
-6.58
-2.85
1.20
3.21
2.17
-1.02
-4.07
-4.77
-2.28
2.29
6.46
7.89
5.68
0.98
-3.68
-5.84
-4.47
-0.58
3.40
5.02
3.29
-0.84
-4.97
-6.69
-4.98
-0.78
3.58
5.69
4.50
0.92
-2.72
-4.07
-2.21
1.82
5.55
6.62
4.22
-0.41
-4.62
-6.00
-3.75
0.75
4.80
5.97
3.51
-1.19
-5.43
-6.83
-4.67
-0.33
3.58
4.75
2.54
-1.72
-5.47
-6.49
-4.16
0.18
4.01
5.13
2.92
-1.31
-5.06
-6.06
-3.66
0.83
4.90
6.23
4.14
-0.09
-3.95
-5.17
-3.06
1.08
4.78
5.85
3.75
-0.12
-3.25
-3.54
-0.59
4.03
7.65
8.11
4.98
-0.14
-4.51
-5.86
-3.55
0.99
5.17
6.64
4.62
0.29
-3.90
-5.64
-4.04
-0.12
3.78
5.36
3.62
-0.54
-4.83
-6.93
-5.79
-2.27
1.39
2.89
1.25
-2.58
-6.28
-7.55
-5.48
-1.14
3.08
4.85
3.35
-0.25
-3.51
-4.17
-1.51
3.16
7.30
8.56
6.17
1.37
-3.31
-5.45
-4.17
-0.53
3.05
4.27
2.32
-1.67
-5.26
-6.19
-3.78
0.66
4.51
5.44
2.86
-1.72
-5.52
-6.11
-2.93
2.41
6.95
8.14
5.24
-0.22
-5.38
-7.61
-6.03
-1.92
2.13
3.73
2.10
-1.50
-4.59
-5.01
-2.24
2.24
5.86
6.50
3.78
-0.64
-4.05
-4.32
-1.12
3.79
7.64
8.21
5.14
0.08
-4.24
-5.59
-3.47
0.60
4.06
4.76
2.22
-2.12
-5.79
-6.69
-4.38
-0.30
3.09
3.73
1.23
-2.91
-6.14
-6.41
-3.37
1.38
5.20
5.98
3.38
-0.94
-4.33
-4.64
-1.52
3.34
7.20
7.76
4.55
-0.88
-5.73
-7.58
-5.72
-1.50
2.50
3.95
2.15
-1.59
-4.79
-5.33
-2.74
1.47
4.76
5.11
2.33
-1.81
-4.62
-4.10
-0.21
5.10
8.96
9.21
5.68
0.20
-4.35
-5.72
-3.44
0.91
4.68
5.62
3.18
-1.25
-5.16
-6.35
-4.26
-0.26
3.15
3.82
1.23
-3.14
-6.72
-7.32
-4.52
0.13
3.94
4.73
2.10
-2.31
-5.83
-6.29
-3.37
1.25
4.89
5.46
2.73
-1.56
-4.76
-4.88
-1.82
2.63
5.80
5.82
2.69
-1.71
-4.76
-4.61
-1.33
3.24
6.49
6.62
3.68
-0.54
-3.52
-3.56
-0.71
3.23
5.83
5.45
2.23
-1.99
-4.75
-4.42
-1.18
3.08
5.84
5.40
1.92
-2.69
-5.82
-5.71
-2.45
2.03
5.09
4.89
1.43
-3.40
-6.91
-7.17
-4.08
0.57
4.10
4.51
1.56
-3.04
-6.66
-7.25
-4.49
0.00
3.65
4.39
1.86
-2.40
-5.84
-6.37
-3.58
0.99
4.77
5.66
3.22
-1.01
-4.46
-5.01
-2.28
2.17
5.76
6.43
3.89
-0.17
-3.13
-3.04
0.16
4.57
7.48
7.01
3.26
-1.65
-4.88
-4.53
-0.79
4.18
7.47
7.15
3.33
-1.94
-5.86
-6.50
-3.83
0.33
3.40
3.56
0.80
-3.12
-5.71
-5.27
-1.89
2.53
5.44
5.10
1.66
-2.92
-5.95
-5.63
-2.10
2.58
5.65
5.22
1.41
-3.72
-7.37
-7.57
-4.32
0.44
4.02
4.50
1.88
-1.92
-4.31
-3.51
0.26
4.94
7.75
6.92
2.68
-2.77
-6.59
-6.87
-3.71
0.86
4.13
4.25
1.35
-2.62
-5.02
-4.18
-0.33
4.44
7.43
6.92
3.10
-1.97
-5.61
-6.03
-3.33
0.66
3.49
3.53
0.97
-2.34
-4.01
-2.58
1.60
6.42
9.22
8.30
3.95
-1.66
-5.70
-6.23
-3.31
1.07
4.21
4.29
1.40
-2.55
-5.04
-4.49
-1.17
2.92
5.29
4.41
0.68
-3.77
-6.32
-5.35
-1.22
3.87
7.13
6.73
2.86
-2.33
-6.02
-6.32
-3.29
1.10
4.22
4.34
1.58
-2.24
-4.70
-4.29
-1.23
2.65
5.01
4.39
1.10
-2.91
-5.19
-4.18
-0.18
4.77
8.03
7.86
4.38
-0.50
-4.22
-5.02
-2.96
0.22
2.25
1.69
-1.17
-4.49
-6.03
-4.50
-0.40
4.21
6.83
5.96
1.99
-2.98
-6.31
-6.31
-3.23
0.91
3.53
3.06
-0.15
-4.04
-6.13
-4.98
-1.12
3.24
5.52
4.29
0.12
-4.66
-7.31
-6.18
-1.73
3.75
7.39
7.34
3.81
-1.09
-4.60
-4.91
-2.14
1.77
4.36
4.08
1.22
-2.35
-4.38
-3.56
-0.38
3.22
4.99
3.69
-0.10
-4.31
-6.49
-5.25
-1.07
3.89
6.92
6.32
2.39
-2.73
-6.27
-6.39
-3.25
1.15
4.20
4.25
1.51
-2.14
-4.37
-3.79
-0.80
2.70
4.45
3.19
-0.51
-4.55
-6.50
-4.96
-0.46
4.77
7.98
7.46
3.48
-1.81
-5.62
-6.13
-3.41
0.60
3.42
3.44
0.94
-2.26
-3.92
-2.79
0.59
4.24
5.90
4.38
0.35
-4.03
-6.31
-5.11
-1.02
3.77
6.64
6.01
2.24
-2.59
-5.87
-5.91
-2.91
1.18
3.84
3.48
0.37
-3.50
-5.63
-4.46
-0.43
4.31
7.13
6.43
2.62
-2.12
-5.11
-4.71
-1.31
2.95
5.43
4.57
0.82
-3.68
-6.36
-5.73
-2.23
2.04
4.58
3.98
0.76
-2.92
-4.60
-3.00
1.15
5.56
7.65
6.19
1.94
-2.69
-5.13
-4.06
-0.21
4.08
6.23
4.91
0.79
-3.90
-6.62
-6.01
-2.61
1.44
3.65
2.62
-1.15
-5.55
-8.06
-7.22
-3.44
1.17
4.06
3.71
0.50
-3.52
-5.81
-4.87
-1.14
3.27
5.81
5.00
1.35
-2.97
-5.36
-4.36
-0.49
4.06
6.72
6.11
2.80
-1.00
-2.87
-1.59
2.10
5.93
7.52
5.84
1.77
-2.31
-4.03
-2.39
1.63
5.65
7.26
5.43
1.11
-3.35
-5.54
-4.35
-0.62
3.37
5.24
3.81
-0.17
-4.50
-6.76
-5.72
-2.04
2.13
4.36
3.40
-0.15
-4.20
-6.35
-5.35
-1.82
2.12
4.10
2.93
-0.71
-4.64
-6.47
-4.98
-0.95
3.36
5.45
4.06
-0.08
-4.67
-7.16
-6.18
-2.38
2.01
4.51
3.74
0.29
-3.73
-5.90
-4.92
-1.37
2.66
4.78
3.72
0.11
-3.94
-6.00
-4.78
-0.87
3.54
5.99
5.12
1.50
-2.68
-4.93
-3.90
-0.24
3.87
5.97
4.82
1.17
-2.76
-4.52
-2.93
1.17
5.42
7.31
5.64
1.31
-3.25
-5.47
-4.10
0.02
4.50
6.81
5.73
2.05
-1.96
-3.90
-2.68
0.85
4.39
5.60
3.45
-1.13
-5.78
-8.05
-6.81
-2.85
1.56
3.97
3.19
-0.01
-3.39
-4.57
-2.51
1.80
5.94
7.48
5.45
0.95
-3.51
-5.43
-3.83
0.23
4.23
5.68
3.60
-0.97
-5.55
-7.69
-6.33
-2.36
1.91
4.19
3.45
0.54
-2.42
-3.30
-1.30
2.52
5.88
6.59
3.92
-0.92
-5.45
-7.30
-5.55
-1.31
3.00
5.01
3.79
0.34
-3.01
-4.03
-1.94
2.11
5.64
6.37
3.52
-1.62
-6.42
-8.35
-6.42
-1.76
3.04
5.44
4.36
0.77
-2.93
-4.38
-2.62
1.30
4.97
6.09
3.84
-0.58
-4.61
-5.89
-3.60
0.98
5.28
6.89
4.98
0.80
-3.11
-4.42
-2.42
1.58
5.01
5.63
2.80
-2.10
-6.45
-7.94
-5.84
-1.40
2.86
4.62
3.08
-0.58
-3.92
-4.70
-2.23
2.22
6.10
7.19
4.81
0.34
-3.61
-4.74
-2.39
2.02
5.85
6.76
4.06
-0.85
-5.35
-7.08
-5.25
-1.09
2.89
4.33
2.38
-1.85
-5.96
-7.65
-6.03
-2.17
1.62
3.07
1.42
-2.23
-5.52
-6.25
-3.77
0.62
4.41
5.40
3.03
-1.21
-4.65
-5.03
-1.80
3.45
7.94
9.25
6.70
1.70
-3.05
-5.15
-3.81
-0.28
2.98
3.78
1.54
-2.41
-5.60
-5.96
-3.02
1.70
5.62
6.55
4.04
-0.42
-4.21
-5.14
-2.75
1.50
5.02
5.65
2.94
-1.61
-5.42
-6.28
-3.71
0.86
4.85
6.09
4.01
0.00
-3.49
-4.40
-2.28
1.48
4.47
4.74
2.01
-2.12
-5.12
-5.05
-1.68
3.22
6.92
7.30
4.07
-1.02
-5.14
-6.04
-3.34
1.29
5.11
5.87
3.12
-1.55
-5.52
-6.62
-4.43
-0.48
2.75
3.27
0.86
-2.83
-5.26
-4.56
-0.73
4.32
7.77
7.54
3.55
-2.22
-6.82
-7.93
-5.22
-0.41
3.67
4.80
2.55
-1.50
-4.77
-5.25
-2.66
1.37
4.35
4.44
1.58
-2.39
-4.89
-4.13
-0.25
4.71
7.94
7.51
3.48
-2.10
-6.34
-7.13
-4.34
0.23
3.90
4.70
2.48
-1.04
-3.41
-2.89
0.47
4.80
7.52
6.86
2.87
-2.51
-6.55
-7.29
-4.62
-0.36
2.87
3.21
0.62
-3.10
-5.40
-4.50
-0.56
4.44
7.76
7.52
3.77
-1.52
-5.58
-6.43
-3.97
-0.01
2.90
2.93
0.09
-3.82
-6.30
-5.71
-2.23
2.19
5.02
4.66
1.46
-2.50
-4.59
-3.27
1.00
5.97
8.82
7.87
3.50
-1.99
-5.74
-5.82
-2.39
2.45
5.89
6.00
2.79
-1.84
-5.20
-5.44
-2.59
1.48
4.21
3.90
0.73
-3.34
-5.74
-4.89
-1.12
3.47
6.23
5.57
1.87
-2.72
-5.58
-5.13
-1.75
2.44
4.92
4.24
0.88
-3.01
-4.92
-3.50
0.61
5.11
7.35
5.87
1.26
-4.11
-7.48
-7.19
-3.66
0.96
4.01
3.88
0.86
-3.06
-5.41
-4.73
-1.41
2.53
4.67
3.69
0.13
-3.83
-5.67
-4.08
0.28
5.03
7.49
6.21
1.82
-3.33
-6.48
-6.13
-2.81
1.28
3.61
2.87
-0.23
-3.47
-4.46
-2.14
2.51
7.00
8.76
6.65
1.60
-3.83
-6.97
-6.51
-3.21
0.63
2.54
1.42
-1.87
-5.07
-5.87
-3.40
1.22
5.49
7.00
4.85
0.23
-4.26
-6.10
-4.30
0.03
4.36
6.14
4.37
0.08
-4.23
-6.05
-4.28
0.10
4.58
6.62
5.07
0.90
-3.41
-5.26
-3.52
0.83
5.27
7.25
5.65
1.47
-2.78
-4.63
-3.06
0.89
4.74
6.11
4.09
-0.18
-4.27
-5.87
-4.11
-0.10
3.77
5.23
3.44
-0.52
-4.30
-5.69
-3.87
0.09
3.83
5.11
3.09
-1.15
-5.22
-6.81
-4.95
-0.68
3.62
5.53
4.03
0.06
-4.02
-5.83
-4.32
-0.38
3.62
5.30
3.64
-0.44
-4.58
-6.40
-4.90
-1.04
2.81
4.32
2.57
-1.35
-4.99
-6.04
-3.71
0.77
4.77
5.89
3.40
-1.29
-5.42
-6.50
-3.77
1.31
5.89
7.43
5.20
0.65
-3.43
-4.61
-2.27
2.06
5.67
6.30
3.55
-0.92
-4.34
-4.56
-1.33
3.51
7.13
7.37
4.05
-0.93
-4.68
-5.08
-2.00
2.64
5.97
5.94
2.47
-2.45
-5.99
-6.12
-2.83
1.90
5.30
5.40
2.23
-2.27
-5.36
-5.12
-1.62
3.17
6.51
6.46
3.07
-1.73
-5.22
-5.44
-2.39
2.04
5.19
5.17
1.98
-2.55
-5.77
-5.85
-2.84
1.39
4.24
3.92
0.52
-4.08
-7.22
-7.06
-3.62
1.22
4.77
5.07
2.02
-2.63
-6.22
-6.77
-4.07
0.18
3.46
3.85
1.17
-2.92
-5.95
-6.06
-3.17
1.00
3.96
3.97
1.06
-2.93
-5.49
-4.91
-1.36
3.18
6.10
5.76
2.48
-1.63
-3.90
-2.71
1.45
6.27
8.90
7.64
2.97
-2.73
-6.54
-6.63
-3.31
1.22
4.23
4.02
0.94
-2.95
-5.09
-4.05
-0.33
3.85
5.93
4.56
0.41
-4.15
-6.43
-4.96
-0.41
4.81
7.85
7.08
2.94
-2.30
-5.87
-6.07
-3.18
0.80
3.41
3.20
0.54
-2.66
-4.17
-2.79
0.84
4.66
6.42
5.02
1.23
-2.71
-4.44
-2.85
1.21
5.38
7.12
5.27
0.70
-4.11
-6.48
-5.14
-0.92
3.64
5.81
4.26
-0.17
-4.97
-7.42
-6.15
-1.98
2.64
5.01
3.81
-0.21
-4.64
-6.85
-5.53
-1.40
3.16
5.55
4.42
0.46
-3.99
-6.36
-5.32
-1.58
2.58
4.65
3.47
-0.14
-3.78
-4.94
-2.58
2.27
7.00
8.96
7.00
2.13
-2.98
-5.58
-4.40
-0.35
4.04
6.11
4.64
0.52
-3.82
-5.88
-4.56
-0.85
2.84
4.15
2.22
-1.72
-5.16
-5.80
-2.93
2.00
6.27
7.45
4.83
-0.21
-4.94
-6.87
-5.21
-1.17
2.68
4.03
2.13
-1.78
-5.25
-6.08
-3.65
0.70
4.47
5.48
3.22
-0.89
-4.26
-4.71
-1.80
2.94
6.78
7.46
4.44
-0.77
-5.45
-7.23
-5.40
-1.30
2.54
3.86
1.97
-1.88
-5.29
-6.12
-3.83
0.28
3.78
4.61
2.37
-1.45
-4.32
-4.25
-0.96
3.84
7.49
7.91
4.87
0.15
-3.48
-3.91
-0.86
3.88
7.53
7.93
4.78
-0.23
-4.37
-5.43
-2.99
1.33
4.91
5.56
2.84
-1.75
-5.63
-6.63
-4.30
-0.09
3.46
4.21
1.69
-2.67
-6.34
-7.22
-4.84
-0.66
2.81
3.48
0.96
-3.21
-6.46
-6.75
-3.77
0.84
4.46
5.08
2.53
-1.42
-4.11
-3.61
0.11
5.11
8.61
8.58
4.98
-0.26
-4.35
-5.22
-2.74
1.29
4.22
4.17
1.17
-2.94
-5.55
-4.92
-1.24
3.45
6.47
6.03
2.33
-2.57
-5.92
-5.93
-2.75
1.58
4.42
4.06
0.76
-3.38
-5.76
-4.77
-0.81
3.93
6.80
6.24
2.74
-1.50
-3.82
-2.76
1.14
5.59
7.94
6.65
2.29
-2.89
-6.15
-5.85
-2.39
2.06
4.84
4.29
0.71
-3.83
-6.74
-6.44
-3.23
0.86
3.33
2.68
-0.69
-4.76
-7.08
-6.20
-2.57
1.73
4.22
3.44
-0.16
-4.45
-6.85
-5.85
-1.88
2.90
5.82
5.35
1.94
-2.19
-4.38
-3.12
1.00
5.65
8.13
7.01
2.95
-1.70
-4.29
-3.48
-0.00
3.84
5.55
3.91
-0.30
-4.80
-7.16
-6.17
-2.56
1.51
3.63
2.61
-0.89
-4.77
-6.66
-5.38
-1.58
2.58
4.72
3.64
0.06
-3.83
-5.61
-4.10
-0.08
4.15
6.18
4.90
1.21
-2.56
-4.00
-2.13
2.02
6.01
7.45
5.44
1.19
-2.76
-4.00
-1.71
2.79
6.86
8.04
5.53
0.64
-3.93
-5.73
-3.88
0.37
4.41
5.77
3.55
-1.10
-5.69
-7.79
-6.42
-2.60
1.30
2.93
1.35
-2.44
-6.07
-7.24
-5.03
-0.57
3.67
5.29
3.42
-0.75
-4.62
-5.73
-3.23
1.59
6.06
7.67
5.62
1.25
-2.74
-3.92
-1.61
2.75
6.47
7.23
4.51
-0.12
-3.94
-4.74
-2.14
2.25
5.74
6.19
3.26
-1.43
-5.24
-6.10
-3.67
0.47
3.76
4.17
1.38
-3.06
-6.62
-7.23
-4.55
-0.11
3.51
4.20
1.53
-3.00
-6.77
-7.61
-4.96
-0.28
3.83
5.15
3.09
-0.97
-4.49
-5.28
-2.79
1.55
5.15
5.82
3.12
-1.37
-4.93
-5.31
-2.11
2.95
6.97
7.61
4.47
-0.63
-4.75
-5.52
-2.54
2.39
6.36
7.07
4.20
-0.48
-4.16
-4.74
-1.99
2.33
5.52
5.65
2.65
-1.63
-4.55
-4.24
-0.79
3.85
6.96
6.68
3.10
-1.76
-5.12
-5.11
-1.85
2.64
5.64
5.33
1.88
-2.67
-5.63
-5.30
-1.94
2.38
5.02
4.31
0.52
-4.27
-7.44
-7.27
-3.96
0.52
3.55
3.35
0.02
-4.57
-7.83
-7.92
-4.84
-0.40
2.78
2.86
-0.14
-4.32
-6.99
-6.28
-2.27
2.99
6.63
6.68
3.25
-1.55
-4.84
-4.67
-1.16
3.56
6.72
6.50
3.17
-1.13
-3.70
-2.96
0.65
4.88
7.06
5.68
1.35
-3.60
-6.42
-5.61
-1.72
2.95
5.70
5.02
1.44
-2.81
-5.11
-4.09
-0.36
3.77
5.75
4.24
0.03
-4.46
-6.56
-4.93
-0.34
4.73
7.53
6.65
2.79
-1.71
-4.22
-3.37
0.21
4.26
6.32
5.09
1.29
-2.84
-4.81
-3.36
0.75
5.21
7.39
5.94
1.56
-3.34
-6.05
-5.08
-1.05
3.67
6.34
5.40
1.38
-3.45
-6.43
-6.06
-2.82
1.15
3.33
2.33
-1.36
-5.61
-7.99
-7.16
-3.64
0.47
2.77
1.97
-1.36
-5.09
-6.84
-5.40
-1.45
2.80
4.95
3.84
0.34
-3.20
-4.37
-2.10
2.57
7.12
8.98
7.08
2.49
-2.19
-4.33
-2.76
1.49
5.87
7.73
5.93
1.39
-3.40
-5.88
-4.89
-1.31
2.49
4.10
2.45
-1.53
-5.49
-7.09
-5.41
-1.44
2.43
3.94
2.25
-1.49
-4.83
-5.52
-2.85
1.89
6.13
7.53
5.38
1.00
-3.01
-4.28
-2.01
2.52
6.74
8.23
6.08
1.42
-3.25
-5.45
-4.13
-0.23
3.86
5.68
4.09
-0.08
-4.56
-6.88
-5.89
-2.36
1.48
3.22
1.78
-2.02
-5.89
-7.47
-5.74
-1.68
2.36
4.00
2.30
-1.67
-5.45
-6.68
-4.48
0.01
4.31
6.07
4.49
0.75
-2.71
-3.61
-1.21
3.29
7.38
8.74
6.52
1.84
-2.89
-5.31
-4.43
-1.18
2.24
3.66
2.29
-0.88
-3.64
-3.96
-1.29
3.00
6.38
6.69
3.42
-1.82
-6.19
-7.29
-4.48
0.63
5.16
6.60
4.24
-0.44
-4.66
-5.97
-3.69
0.77
4.72
5.79
3.33
-1.23
-5.23
-6.38
-4.03
0.37
4.14
4.97
2.26
-2.46
-6.46
-7.33
-4.42
0.79
5.50
7.18
5.01
0.30
-4.29
-6.27
-4.71
-0.77
3.05
4.41
2.49
-1.55
-5.24
-6.29
-3.97
0.48
4.52
5.79
3.54
-0.99
-5.24
-6.80
-4.79
-0.38
3.91
5.67
3.97
-0.12
-4.16
-5.76
-4.01
0.04
3.96
5.45
3.64
-0.37
-4.18
-5.52
-3.65
0.25
3.78
4.85
2.90
-0.71
-3.54
-3.60
-0.59
3.86
7.15
7.25
4.02
-0.76
-4.32
-4.59
-1.42
3.31
6.80
6.93
3.49
-1.70
-5.89
-6.91
-4.46
-0.17
3.39
4.23
2.08
-1.53
-4.21
-4.18
-1.37
2.51
5.01
4.43
0.91
-3.58
-6.33
-5.49
-1.22
4.34
8.19
8.17
4.19
-1.70
-6.45
-7.72
-5.16
-0.52
3.38
4.34
2.04
-1.89
-4.89
-5.01
-2.15
2.02
5.03
5.16
2.45
-1.31
-3.69
-3.13
0.20
4.38
6.94
6.27
2.61
-2.08
-5.18
-4.92
-1.46
3.24
6.43
6.16
2.40
-2.96
-7.14
-8.04
-5.48
-1.16
2.30
2.94
0.58
-3.09
-5.62
-5.26
-2.05
2.16
4.91
4.58
1.42
-2.56
-4.77
-3.63
0.48
5.36
8.20
7.24
2.76
-3.02
-7.17
-7.65
-4.48
0.37
4.13
4.73
2.05
-2.14
-5.27
-5.46
-2.63
1.43
4.27
4.19
1.34
-2.34
-4.37
-3.23
0.67
5.15
7.57
6.41
2.21
-2.67
-5.42
-4.47
-0.38
4.45
7.15
6.08
1.81
-3.31
-6.43
-5.91
-2.22
2.36
5.10
4.35
0.56
-4.08
-6.94
-6.42
-2.92
1.42
4.04
3.47
0.23
-3.50
-5.13
-3.30
1.33
6.30
8.81
7.33
2.51
-3.17
-6.75
-6.53
-2.93
1.75
4.74
4.41
1.15
-2.92
-5.20
-4.25
-0.58
3.62
5.81
4.62
0.68
-3.74
-6.05
-4.89
-0.90
3.62
6.07
5.06
1.20
-3.25
-5.64
-4.58
-0.65
3.89
6.37
5.30
1.20
-3.70
-6.74
-6.37
-3.03
1.13
3.58
2.95
-0.15
-3.52
-4.70
-2.55
2.01
6.49
8.33
6.37
1.59
-3.44
-6.04
-4.92
-0.91
3.54
5.82
4.61
0.63
-3.85
-6.30
-5.42
-1.91
2.06
4.08
3.01
-0.38
-3.83
-5.05
-3.07
1.10
5.04
6.44
4.44
0.24
-3.60
-4.67
-2.11
2.82
7.44
9.16
6.96
1.92
-3.33
-6.11
-5.16
-1.31
3.03
5.29
4.17
0.39
-3.80
-5.91
-4.72
-0.97
3.08
4.97
3.51
-0.53
-4.82
-6.87
-5.48
-1.48
2.80
4.83
3.39
-0.70
-5.10
-7.27
-5.98
-2.04
2.24
4.39
3.21
-0.53
-4.59
-6.56
-5.29
-1.57
2.34
4.07
2.53
-1.41
-5.42
-7.07
-5.21
-0.72
3.98
6.34
5.13
1.19
-3.12
-5.26
-4.05
-0.29
3.71
5.56
4.29
0.87
-2.37
-3.21
-0.89
3.33
7.03
7.96
5.51
1.03
-2.94
-4.16
-1.98
2.23
5.92
6.81
4.20
-0.62
-5.10
-6.92
-5.22
-1.14
2.86
4.42
2.64
-1.42
-5.32
-6.70
-4.67
-0.34
3.87
5.63
4.14
0.54
-2.75
-3.52
-1.17
2.95
6.32
6.77
3.77
-1.21
-5.57
-7.08
-5.08
-0.87
3.02
4.36
2.43
-1.58
-5.26
-6.40
-4.27
-0.01
4.02
5.64
4.16
0.74
-2.28
-2.85
-0.43
3.58
6.74
6.99
3.93
-0.91
-4.95
-6.02
-3.61
0.78
4.58
5.59
3.22
-1.16
-5.04
-6.25
-4.17
-0.12
3.47
4.45
2.26
-1.82
-5.37
-6.26
-3.92
0.35
4.12
5.23
3.10
-0.99
-4.62
-5.66
-3.48
0.61
4.18
5.08
2.71
-1.55
-5.21
-6.05
-3.50
1.01
4.88
5.86
3.39
-1.02
-4.73
-5.49
-2.75
1.93
5.89
6.87
4.31
-0.25
-4.21
-5.31
-3.02
1.19
4.78
5.60
3.16
-1.11
-4.72
-5.60
-3.30
0.71
3.98
4.45
1.71
-2.76
-6.42
-7.21
-4.70
-0.39
3.17
3.94
1.59
-2.26
-5.01
-4.67
-1.06
3.99
7.72
8.03
4.74
-0.26
-4.15
-4.79
-2.00
2.39
5.62
5.63
2.26
-2.67
-6.47
-7.13
-4.48
-0.28
2.93
3.33
0.94
-2.47
-4.42
-3.28
0.70
5.49
8.45
7.83
3.81
-1.58
-5.56
-6.23
-3.53
0.71
3.89
4.16
1.44
-2.52
-5.26
-5.01
-1.77
2.64
5.69
5.59
2.38
-2.08
-5.16
-5.03
-1.72
2.85
5.96
5.71
2.09
-2.93
-6.61
-6.93
-3.82
0.85
4.35
4.79
2.15
-1.70
-4.15
-3.49
0.11
4.61
7.39
6.69
2.73
-2.45
-6.15
-6.54
-3.69
0.52
3.49
3.49
0.65
-3.15
-5.36
-4.36
-0.43
4.34
7.29
6.75
3.12
-1.39
-4.03
-3.16
0.75
5.39
7.99
6.90
2.60
-2.63
-6.00
-5.80
-2.37
2.11
4.91
4.30
0.53
-4.35
-7.64
-7.62
-4.45
-0.08
2.94
2.91
-0.02
-3.96
-6.43
-5.85
-2.47
1.77
4.38
3.85
0.51
-3.61
-5.99
-5.15
-1.51
2.80
5.26
4.41
0.79
-3.42
-5.65
-4.55
-0.76
3.46
5.60
4.39
0.60
-3.45
-5.25
-3.63
0.52
4.82
6.76
5.20
1.06
-3.27
-5.25
-3.73
0.41
4.79
6.92
5.63
1.79
-2.26
-4.06
-2.52
1.48
5.57
7.27
5.51
1.22
-3.18
-5.11
-3.41
0.98
5.56
7.68
6.01
1.33
-3.93
-7.07
-6.67
-3.32
0.74
3.01
2.20
-1.00
-4.35
-5.47
-3.25
1.38
5.96
7.90
5.99
1.11
-4.24
-7.35
-6.86
-3.45
0.57
2.73
1.80
-1.44
-4.75
-5.79
-3.58
0.91
5.24
7.02
5.25
1.01
-3.21
-4.93
-3.13
1.15
5.40
7.10
5.21
0.72
-3.91
-6.12
-4.75
-0.69
3.64
5.70
4.26
0.09
-4.49
-6.96
-6.09
-2.56
1.41
3.44
2.38
-1.03
-4.57
-5.92
-4.04
0.18
4.40
6.23
4.64
0.63
-3.35
-4.83
-2.77
1.77
6.25
8.11
6.27
1.75
-3.00
-5.49
-4.64
-1.34
2.17
3.71
2.42
-0.72
-3.56
-4.06
-1.63
2.53
6.00
6.59
3.64
-1.48
-6.04
-7.54
-5.13
-0.18
4.49
6.18
3.93
-0.94
-5.61
-7.43
-5.45
-0.89
3.59
5.59
4.28
0.84
-2.40
-3.39
-1.60
1.73
4.37
4.49
1.75
-2.42
-5.65
-5.97
-2.98
1.85
5.93
6.97
4.31
-0.68
-5.30
-7.09
-5.14
-0.69
3.71
5.63
4.17
0.44
-3.18
-4.54
-2.98
0.30
3.03
3.26
0.63
-3.38
-6.33
-6.21
-2.72
2.48
6.68
7.59
4.72
-0.37
-4.93
-6.58
-4.68
-0.62
3.05
4.16
2.18
-1.49
-4.37
-4.47
-1.44
3.19
6.80
7.27
4.19
-0.87
-5.22
-6.57
-4.32
0.09
4.07
5.37
3.42
-0.44
-3.73
-4.37
-1.92
2.13
5.25
5.41
2.33
-2.29
-5.78
-6.03
-2.80
2.12
5.97
6.61
3.78
-0.77
-4.31
-4.80
-1.99
2.35
5.56
5.65
2.46
-2.24
-5.81
-6.26
-3.43
0.96
4.30
4.68
1.94
-2.20
-5.15
-5.02
-1.75
2.83
6.04
5.96
2.49
-2.52
-6.37
-7.05
-4.33
0.12
3.71
4.42
1.99
-1.97
-4.91
-4.89
-1.73
2.88
6.33
6.71
3.88
-0.43
-3.62
-3.79
-0.87
3.32
6.17
5.80
2.20
-2.79
-6.51
-7.06
-4.32
-0.08
3.05
3.16
0.12
-4.28
-7.44
-7.43
-4.20
0.46
3.85
4.11
1.25
-2.80
-5.32
-4.49
-0.50
4.48
7.63
7.09
3.19
-1.78
-4.87
-4.22
-0.17
4.93
8.14
7.65
3.83
-0.99
-3.98
-3.40
0.39
5.12
8.01
7.34
3.46
-1.50
-4.83
-4.84
-1.78
2.33
4.91
4.32
0.77
-3.76
-6.76
-6.62
-3.56
0.51
3.08
2.65
-0.47
-4.26
-6.24
-4.96
-0.90
3.73
6.24
5.03
0.57
-4.84
-8.36
-8.19
-4.55
0.43
3.94
4.11
1.03
-3.36
-6.39
-6.22
-2.94
1.55
4.63
4.56
1.49
-2.60
-5.12
-4.43
-0.80
3.68
6.38
5.75
2.23
-1.98
-4.27
-3.16
0.74
5.13
7.36
6.09
2.06
-2.32
-4.44
-3.02
1.09
5.42
7.39
5.83
1.68
-2.58
-4.42
-2.79
1.29
5.28
6.69
4.56
-0.00
-4.41
-6.15
-4.20
0.31
4.76
6.51
4.47
-0.31
-5.20
-7.51
-5.99
-1.60
3.10
5.34
3.75
-0.85
-5.97
-8.82
-7.90
-3.83
1.03
3.92
3.34
-0.20
-4.45
-6.80
-5.81
-2.05
2.29
4.71
3.95
0.73
-2.72
-4.05
-2.23
1.77
5.61
6.95
4.93
0.71
-3.18
-4.35
-1.99
2.67
7.01
8.48
6.11
1.01
-4.24
-7.02
-6.13
-2.43
1.72
3.83
2.74
-0.77
-4.45
-5.95
-4.22
-0.18
3.87
5.60
4.08
0.37
-3.11
-4.03
-1.59
2.97
7.03
8.12
5.37
0.03
-5.21
-7.74
-6.51
-2.57
1.58
3.49
2.19
-1.23
-4.37
-4.93
-2.14
2.68
6.93
8.17
5.59
0.47
-4.49
-6.73
-5.29
-1.27
2.74
4.28
2.42
-1.73
-5.63
-6.87
-4.63
-0.14
4.02
5.45
3.43
-0.66
-4.14
-4.67
-1.64
3.43
7.74
8.86
6.10
0.95
-3.87
-5.85
-4.15
-0.01
4.07
5.67
3.90
-0.24
-4.38
-6.26
-4.95
-1.43
2.04
3.24
1.35
-2.57
-6.14
-7.14
-4.80
-0.35
3.67
4.92
2.71
-1.59
-5.27
-5.97
-3.00
2.12
6.57
7.91
5.49
0.82
-3.32
-4.50
-2.09
2.42
6.29
7.15
4.31
-0.80
-5.52
-7.43
-5.71
-1.55
2.58
4.38
2.99
-0.52
-3.88
-4.99
-3.11
0.62
3.93
4.82
2.77
-0.87
-3.68
-3.68
-0.51
4.21
7.77
7.97
4.38
-1.34
-6.31
-8.05
-5.87
-1.20
3.26
5.04
3.32
-0.73
-4.68
-6.28
-4.75
-1.17
2.24
3.51
2.10
-0.79
-2.98
-2.74
0.19
4.28
7.16
6.97
3.52
-1.56
-5.68
-6.76
-4.42
-0.14
3.59
4.70
2.75
-0.88
-3.84
-4.13
-1.39
2.93
6.35
6.85
3.99
-0.72
-4.73
-5.88
-3.63
0.57
4.15
4.93
2.38
-2.03
-5.75
-6.61
-4.13
0.20
3.82
4.62
2.21
-1.82
-4.82
-4.76
-1.36
3.62
7.46
8.01
4.97
0.01
-4.18
-5.46
-3.44
0.30
3.24
3.37
0.45
-3.82
-6.86
-6.66
-3.08
2.08
6.05
6.73
3.84
-0.90
-4.81
-5.85
-3.74
-0.03
2.85
3.19
0.92
-2.34
-4.34
-3.58
-0.24
3.89
6.42
5.73
2.02
-2.80
-6.08
-5.91
-2.29
2.89
6.82
7.36
4.26
-0.72
-4.82
-5.88
-3.54
0.59
3.97
4.65
2.39
-1.31
-4.16
-4.53
-2.39
0.74
2.73
2.17
-0.72
-4.22
-6.09
-4.94
-1.09
3.51
6.34
5.75
2.00
-2.82
-5.88
-5.29
-1.17
4.31
8.15
8.22
4.51
-0.91
-5.07
-5.88
-3.25
0.91
3.94
4.03
1.24
-2.67
-5.30
-5.17
-2.47
1.05
3.20
2.68
-0.13
-3.44
-5.07
-3.75
0.09
4.48
7.03
6.29
2.57
-2.09
-5.07
-4.61
-0.90
3.97
7.16
6.74
2.81
-2.45
-6.03
-5.85
-2.01
3.23
6.75
6.44
2.44
-2.90
-6.48
-6.29
-2.59
2.26
5.31
4.79
1.12
-3.43
-6.12
-5.41
-1.81
2.49
5.00
4.36
1.13
-2.68
-4.77
-3.93
-0.72
2.90
4.75
3.66
0.16
-3.77
-5.84
-4.76
-1.03
3.32
5.83
5.02
1.31
-3.19
-5.84
-5.00
-1.08
3.71
6.57
5.77
1.71
-3.35
-6.60
-6.33
-2.90
1.52
4.35
4.12
1.28
-2.15
-3.89
-2.77
0.54
3.98
5.34
3.58
-0.52
-4.71
-6.58
-4.89
-0.36
4.68
7.55
6.71
2.63
-2.47
-5.84
-5.82
-2.72
1.40
4.00
3.57
0.55
-3.01
-4.70
-3.19
0.86
5.21
7.28
5.68
1.08
-4.18
-7.37
-6.91
-3.27
1.37
4.39
4.27
1.48
-1.89
-3.41
-1.87
1.95
5.80
7.24
5.17
0.52
-4.28
-6.70
-5.53
-1.61
2.67
4.75
3.34
-0.85
-5.52
-8.11
-7.23
-3.45
1.02
3.63
3.00
-0.34
-4.20
-6.08
-4.66
-0.62
3.77
5.95
4.68
0.76
-3.39
-5.20
-3.47
0.89
5.37
7.39
5.79
1.57
-2.72
-4.47
-2.60
1.89
6.42
8.37
6.65
2.30
-2.14
-4.11
-2.53
1.59
5.74
7.34
5.27
0.49
-4.50
-7.08
-5.99
-2.03
2.37
4.60
3.34
-0.70
-5.17
-7.52
-6.47
-2.77
1.26
3.18
1.90
-1.66
-5.08
-6.01
-3.56
1.11
5.48
7.14
5.26
1.09
-2.81
-4.06
-1.85
2.60
6.78
8.30
6.29
1.83
-2.68
-4.88
-3.78
-0.28
3.41
5.03
3.61
-0.04
-3.77
-5.39
-3.94
-0.26
3.48
5.02
3.40
-0.50
-4.41
-6.03
-4.36
-0.32
3.73
5.40
3.66
-0.53
-4.75
-6.56
-4.88
-0.64
3.73
5.75
4.30
0.28
-3.97
-6.05
-4.84
-1.24
2.50
4.05
2.44
-1.40
-5.20
-6.69
-4.95
-0.99
2.87
4.37
2.59
-1.40
-5.25
-6.62
-4.58
-0.20
4.07
5.80
4.01
-0.28
-4.62
-6.54
-4.97
-0.88
3.30
5.15
3.64
-0.27
-4.23
-5.86
-4.21
-0.23
3.72
5.34
3.74
-0.05
-3.67
-4.84
-2.74
1.54
5.58
7.14
5.43
1.64
-1.83
-2.80
-0.65
3.27
6.46
6.81
3.84
-0.91
-4.85
-5.80
-3.30
1.13
4.89
5.75
3.20
-1.34
-5.31
-6.52
-4.35
-0.09
3.78
5.09
3.18
-0.66
-4.00
-4.67
-2.12
2.24
5.88
6.63
3.98
-0.54
-4.34
-5.20
-2.63
1.78
5.36
5.91
2.94
-1.98
-6.18
-7.39
-5.03
-0.54
3.45
4.62
2.31
-2.18
-6.26
-7.60
-5.47
-1.12
2.96
4.51
2.91
-0.51
-3.30
-3.38
-0.36
4.18
7.64
7.97
4.91
0.18
-3.55
-4.21
-1.55
2.68
5.84
5.90
2.65
-2.15
-5.81
-6.29
-3.37
1.18
4.66
4.97
1.86
-2.95
-6.76
-7.42
-4.60
0.10
4.03
5.00
2.56
-1.84
-5.68
-6.80
-4.65
-0.60
2.96
3.95
1.92
-1.72
-4.51
-4.44
-1.22
3.51
7.09
7.44
4.33
-0.45
-4.12
-4.55
-1.51
3.17
6.70
6.97
3.74
-1.24
-5.26
-6.26
-3.93
0.13
3.40
3.93
1.46
-2.40
-5.20
-5.05
-1.87
2.65
5.98
6.23
3.32
-1.01
-4.14
-4.17
-0.98
3.62
6.97
7.06
3.70
-1.36
-5.46
-6.56
-4.34
-0.36
2.87
3.39
0.97
-2.77
-5.31
-4.76
-1.07
3.88
7.38
7.47
4.10
-0.81
-4.46
-4.86
-1.94
2.42
5.51
5.44
2.25
-2.14
-5.04
-4.62
-1.00
3.86
7.31
7.48
4.40
-0.11
-3.50
-3.96
-1.47
2.22
4.68
4.18
0.77
-3.80
-7.07
-7.30
-4.50
-0.37
2.68
2.96
0.51
-2.94
-4.99
-4.08
-0.45
3.94
6.56
5.81
2.00
-2.83
-6.05
-5.97
-2.80
1.46
4.23
3.78
0.26
-4.40
-7.60
-7.57
-4.33
0.27
3.70
4.13
1.53
-2.39
-5.14
-4.94
-1.77
2.61
5.71
5.76
2.78
-1.37
-4.15
-3.84
-0.57
3.73
6.50
6.05
2.62
-1.78
-4.55
-4.06
-0.64
3.61
6.04
4.98
0.71
-4.64
-8.34
-8.55
-5.34
-0.63
2.95
3.52
1.09
-2.59
-4.99
-4.46
-1.11
3.17
5.90
5.52
2.37
-1.52
-3.61
-2.41
1.55
6.07
8.52
7.44
3.42
-1.26
-3.99
-3.33
0.10
4.05
5.94
4.44
0.17
-4.58
-7.27
-6.52
-2.93
1.29
3.61
2.64
-1.08
-5.40
-7.79
-6.86
-3.11
1.33
3.91
3.18
-0.38
-4.66
-7.10
-6.25
-2.59
1.73
4.17
3.31
-0.29
-4.42
-6.51
-5.18
-1.09
3.45
5.85
4.77
0.98
-3.13
-4.96
-3.25
1.12
5.67
7.78
6.24
1.99
-2.45
-4.44
-2.76
1.66
6.31
8.53
7.06
2.71
-2.11
-4.78
-3.94
-0.27
4.01
6.36
5.42
1.72
-2.64
-5.26
-4.83
-1.85
1.67
3.43
2.21
-1.36
-5.17
-6.89
-5.35
-1.26
3.13
5.39
4.29
0.63
-3.29
-4.98
-3.23
1.12
5.65
7.75
6.13
1.56
-3.56
-6.60
-6.17
-2.86
1.11
3.29
2.40
-0.93
-4.57
-6.17
-4.60
-0.65
3.44
5.33
3.94
0.23
-3.43
-4.64
-2.40
2.23
6.72
8.52
6.59
1.98
-2.77
-5.09
-3.82
0.08
4.18
5.94
4.20
-0.19
-4.88
-7.39
-6.53
-3.03
0.90
2.94
2.02
-1.02
-3.98
-4.60
-2.02
2.71
7.09
8.66
6.39
1.31
-4.00
-6.88
-6.06
-2.36
1.80
3.87
2.61
-1.11
-4.94
-6.37
-4.28
0.32
4.94
6.99
5.34
0.96
-3.60
-5.80
-4.54
-0.76
3.11
4.70
3.07
-0.67
-4.09
-4.85
-2.14
2.76
7.23
8.71
6.27
1.05
-4.26
-7.03
-6.12
-2.46
1.52
3.39
2.17
-1.13
-4.18
-4.71
-1.97
2.79
6.99
8.22
5.62
0.45
-4.62
-7.05
-5.80
-1.94
2.05
3.79
2.40
-0.97
-3.93
-4.26
-1.35
3.40
7.31
8.06
5.00
-0.40
-5.37
-7.46
-5.83
-1.78
2.11
3.52
1.73
-1.96
-5.05
-5.32
-2.21
2.83
7.13
8.33
5.73
0.69
-4.14
-6.31
-5.00
-1.36
2.18
3.34
1.40
-2.43
-5.76
-6.40
-3.76
0.81
4.78
5.88
3.52
-0.89
-4.67
-5.52
-2.77
2.10
6.39
7.69
5.25
0.44
-4.09
-5.95
-4.34
-0.50
3.06
4.10
2.01
-1.85
-4.99
-5.27
-2.24
2.56
6.46
7.24
4.37
-0.61
-5.05
-6.63
-4.74
-0.74
2.83
3.78
1.58
-2.38
-5.58
-5.90
-2.87
1.96
5.98
6.96
4.43
-0.08
-3.91
-4.81
-2.30
2.11
5.73
6.32
3.40
-1.51
-5.73
-6.99
-4.74
-0.45
3.30
4.32
2.15
-1.69
-4.61
-4.50
-1.04
4.10
8.12
8.78
5.62
0.27
-4.46
-6.24
-4.47
-0.60
2.76
3.45
1.01
-3.03
-6.11
-6.14
-2.84
2.10
5.97
6.66
3.91
-0.54
-3.94
-4.17
-0.99
3.83
7.49
7.82
4.49
-0.80
-5.27
-6.67
-4.53
-0.37
3.18
4.02
1.73
-2.18
-5.21
-5.36
-2.38
2.07
5.39
5.58
2.46
-2.23
-5.80
-6.21
-3.24
1.33
4.77
5.03
1.88
-2.88
-6.52
-6.93
-3.88
0.87
4.57
5.12
2.23
-2.39
-6.07
-6.71
-4.03
0.34
3.77
4.23
1.46
-2.91
-6.28
-6.62
-3.65
0.99
4.71
5.49
3.09
-0.84
-3.72
-3.64
-0.51
3.85
6.84
6.61
3.21
-1.40
-4.52
-4.29
-0.82
3.87
7.00
6.66
2.91
-2.29
-6.21
-6.87
-4.18
0.10
3.37
3.74
1.14
-2.66
-5.11
-4.39
-0.59
4.33
7.67
7.56
4.08
-0.80
-4.33
-4.59
-1.60
2.69
5.59
5.23
1.68
-3.12
-6.50
-6.67
-3.68
0.55
3.49
3.44
0.54
-3.25
-5.38
-4.26
-0.22
4.58
7.44
6.67
2.62
-2.54
-6.07
-6.18
-3.07
1.28
4.28
4.27
1.49
-2.12
-4.07
-2.91
0.94
5.35
7.75
6.60
2.36
-2.82
-6.25
-6.26
-3.11
1.16
3.96
3.64
0.45
-3.60
-5.99
-5.15
-1.44
3.08
5.84
5.31
1.86
-2.44
-5.01
-4.36
-0.95
3.11
5.24
4.00
-0.07
-4.68
-7.11
-5.81
-1.28
4.13
7.58
7.29
3.57
-1.44
-4.99
-5.28
-2.53
1.27
3.57
2.80
-0.64
-4.65
-6.68
-5.29
-1.04
3.81
6.63
5.92
2.22
-2.20
-4.72
-3.87
-0.24
3.87
5.85
4.33
-0.06
-4.97
-7.77
-6.98
-3.11
1.64
4.67
4.42
1.25
-2.84
-5.36
-4.79
-1.45
2.71
5.28
4.83
1.82
-1.73
-3.40
-1.91
2.05
6.19
7.96
6.16
1.66
-3.05
-5.29
-3.83
0.40
4.82
6.72
4.85
0.10
-4.98
-7.66
-6.62
-2.64
1.84
4.18
3.02
-0.96
-5.43
-7.76
-6.56
-2.49
2.13
4.68
3.77
0.07
-4.10
-6.11
-4.61
-0.32
4.37
6.79
5.63
1.70
-2.55
-4.46
-2.75
1.69
6.31
8.42
6.72
2.12
-2.80
-5.30
-4.13
-0.19
4.00
5.77
3.95
-0.47
-4.94
-6.84
-5.07
-0.68
3.76
5.69
4.11
0.07
-3.87
-5.25
-3.17
1.19
5.28
6.64
4.45
-0.04
-4.21
-5.58
-3.32
1.28
5.56
7.04
4.87
0.31
-4.00
-5.60
-3.65
0.60
4.57
5.88
3.77
-0.52
-4.43
-5.65
-3.44
0.88
4.77
5.92
3.61
-0.89
-5.04
-6.48
-4.43
-0.10
4.01
5.52
3.61
-0.56
-4.56
-6.01
-4.06
0.17
4.21
5.69
3.70
-0.68
-5.01
-6.84
-5.17
-1.00
3.26
5.19
3.76
-0.10
-4.06
-5.77
-4.29
-0.61
2.93
4.06
1.99
-2.14
-5.92
-7.04
-4.73
-0.20
4.05
5.70
3.92
-0.11
-3.97
-5.37
-3.51
0.41
3.95
4.87
2.47
-1.98
-5.97
-7.15
-4.74
-0.00
4.46
6.22
4.34
-0.04
-4.45
-6.43
-4.99
-1.09
2.91
4.71
3.37
-0.07
-3.31
-4.11
-1.74
2.61
6.44
7.50
5.13
0.72
-3.13
-4.09
-1.56
2.98
6.81
7.56
4.61
-0.54
-5.14
-6.80
-4.79
-0.49
3.50
4.83
2.78
-1.36
-5.11
-6.26
-4.14
-0.02
3.67
4.82
2.87
-0.83
-3.81
-3.98
-0.92
3.79
7.47
7.90
4.64
-0.68
-5.27
-6.73
-4.46
0.02
3.99
5.09
2.71
-1.65
-5.28
-5.91
-2.98
1.94
6.11
7.20
4.64
-0.09
-4.33
-5.81
-3.94
-0.14
3.09
3.62
1.04
-3.11
-6.24
-6.30
-2.94
2.14
6.17
6.94
4.02
-0.98
-5.34
-6.80
-4.83
-0.90
2.53
3.47
1.56
-1.75
-4.14
-3.84
-0.72
3.58
6.56
6.36
2.83
-2.22
-6.08
-6.59
-3.45
1.59
5.73
6.70
4.10
-0.47
-4.31
-5.26
-2.90
1.19
4.43
4.77
1.92
-2.53
-6.05
-6.65
-4.04
0.22
3.64
4.23
1.73
-2.31
-5.36
-5.49
-2.46
2.10
5.58
6.02
3.19
-1.18
-4.46
-4.65
-1.54
3.12
6.66
7.10
4.27
-0.04
-3.17
-3.24
-0.22
4.02
6.80
6.28
2.60
-2.22
-5.40
-5.10
-1.51
3.25
6.38
6.02
2.36
-2.49
-5.74
-5.61
-2.33
1.98
4.63
3.94
0.28
-4.18
-6.72
-5.72
-1.61
3.31
6.22
5.41
1.25
-4.01
-7.49
-7.33
-3.71
1.29
4.86
5.11
2.10
-2.23
-5.20
-5.00
-1.72
2.74
5.81
5.80
2.82
-1.24
-3.95
-3.71
-0.73
3.10
5.36
4.53
0.91
-3.54
-6.33
-5.83
-2.31
2.24
5.16
4.68
0.99
-3.84
-6.96
-6.45
-2.44
2.87
6.50
6.41
2.74
-2.24
-5.52
-5.12
-1.30
3.59
6.55
5.69
1.41
-3.83
-6.98
-6.19
-1.91
3.41
6.75
6.29
2.41
-2.57
-5.85
-5.71
-2.51
1.61
4.09
3.46
0.17
-3.74
-5.86
-4.86
-1.25
2.95
5.39
4.80
1.65
-2.09
-4.17
-3.33
-0.05
3.74
5.77
4.80
1.29
-2.81
-5.23
-4.65
-1.51
2.30
4.49
3.79
0.62
-3.10
-5.09
-4.05
-0.47
3.61
5.80
4.69
0.76
-3.88
-6.63
-5.92
-2.11
2.63
5.58
5.02
1.32
-3.34
-6.16
-5.39
-1.45
3.35
6.07
5.00
0.70
-4.31
-6.99
-5.59
-0.78
4.77
7.87
6.78
2.16
-3.27
-6.34
-5.26
-0.73
4.56
7.46
6.24
1.61
-3.73
-6.68
-5.52
-0.96
4.28
7.12
5.87
1.28
-3.96
-6.78
-5.52
-0.96
4.17
6.81
5.37
0.71
-4.42
-6.96
-5.35
-0.49
4.80
7.43
5.84
0.97
-4.34
-6.98
-5.39
-0.53
4.74
7.29
5.61
0.70
-4.54
-7.03
-5.29
-0.36
4.84
7.21
5.35
0.36
-4.82
-7.13
-5.16
-0.02
5.35
7.87
6.11
1.07
-4.41
-7.35
-6.28
-2.08
2.68
5.23
4.24
0.53
-3.54
-5.50
-4.26
-0.74
2.80
4.11
2.33
-1.46
-4.93
-5.83
-3.38
1.22
5.48
6.98
4.84
0.22
-4.29
-6.20
-4.53
-0.40
3.66
5.21
3.37
-0.70
-4.53
-5.82
-3.81
0.24
3.86
4.80
2.46
-1.79
-5.39
-6.03
-3.11
1.93
6.41
7.94
5.77
1.23
-3.07
-4.78
-3.13
0.62
3.96
4.67
2.15
-2.22
-5.87
-6.60
-3.87
0.87
5.02
6.34
4.24
0.08
-3.62
-4.65
-2.43
1.64
5.01
5.46
2.43
-2.61
-7.02
-8.45
-6.23
-1.69
2.57
4.25
2.66
-0.85
-3.77
-3.94
-0.95
3.67
7.26
7.72
4.69
-0.18
-4.22
-5.27
-2.92
1.25
4.66
5.15
2.28
-2.45
-6.43
-7.44
-4.90
-0.23
3.96
5.42
3.54
-0.25
-3.38
-3.61
-0.51
4.27
7.98
8.38
5.15
0.10
-3.91
-4.60
-1.69
2.99
6.60
6.95
3.74
-1.26
-5.32
-6.29
-3.89
0.23
3.47
3.84
1.11
-3.09
-6.23
-6.40
-3.46
0.92
4.18
4.43
1.54
-2.81
-6.03
-6.21
-3.22
1.22
4.53
4.81
1.93
-2.37
-5.53
-5.63
-2.61
1.76
4.91
5.00
2.02
-2.21
-5.09
-4.83
-1.50
3.00
6.05
5.87
2.57
-1.91
-4.97
-4.81
-1.58
2.79
5.71
5.46
2.21
-2.12
-4.95
-4.63
-1.39
2.77
5.33
4.67
1.10
-3.34
-6.09
-5.56
-2.09
2.23
4.87
4.25
0.75
-3.57
-6.21
-5.62
-2.20
2.03
4.57
3.90
0.41
-3.92
-6.60
-6.09
-2.67
1.69
4.52
4.19
0.92
-3.41
-6.29
-6.01
-2.68
1.85
5.04
5.13
2.18
-1.97
-4.74
-4.35
-0.85
3.84
7.09
7.11
4.00
-0.33
-3.30
-3.18
-0.15
3.82
6.18
5.40
1.84
-2.39
-4.75
-3.78
0.00
4.37
6.75
5.71
1.86
-2.56
-5.00
-4.10
-0.50
3.53
5.51
4.14
0.15
-4.20
-6.43
-5.31
-1.55
2.54
4.52
3.14
-0.84
-5.15
-7.28
-5.97
-1.94
2.54
4.90
3.78
-0.17
-4.70
-7.19
-6.19
-2.23
2.43
5.18
4.50
0.92
-3.36
-5.69
-4.58
-0.57
4.08
6.71
5.89
2.23
-1.92
-3.97
-2.59
1.44
5.70
7.61
5.98
1.77
-2.51
-4.31
-2.57
1.60
5.63
7.01
4.76
0.04
-4.51
-6.40
-4.65
-0.41
3.72
5.24
3.16
-1.44
-6.02
-8.03
-6.39
-2.01
2.63
4.99
3.84
-0.05
-4.39
-6.69
-5.69
-2.08
2.02
4.26
3.54
0.65
-2.27
-3.03
-0.80
3.32
6.92
7.73
4.99
0.02
-4.55
-6.26
-4.24
0.25
4.53
6.04
3.80
-1.01
-5.74
-7.82
-6.18
-1.85
2.70
4.99
3.99
0.64
-2.74
-3.87
-1.91
2.04
5.58
6.45
3.89
-0.85
-5.27
-7.00
-5.21
-1.08
2.94
4.60
3.12
-0.33
-3.38
-3.92
-1.38
2.88
6.35
6.83
3.80
-1.29
-5.80
-7.39
-5.35
-0.98
3.17
4.82
3.22
-0.45
-3.81
-4.71
-2.52
1.48
4.91
5.61
3.04
-1.41
-5.19
-6.07
-3.47
1.16
5.17
6.26
3.80
-0.77
-4.87
-6.22
-4.27
-0.41
2.89
3.59
1.35
-2.31
-4.90
-4.48
-0.90
4.06
7.67
7.79
4.17
-1.29
-5.64
-6.51
-3.53
1.50
5.62
6.46
3.63
-1.18
-5.21
-6.29
-4.06
-0.14
3.00
3.52
1.29
-2.11
-4.33
-3.75
-0.41
3.92
6.79
6.43
2.88
-2.01
-5.50
-5.60
-2.17
2.91
6.81
7.35
4.27
-0.67
-4.76
-5.90
-3.82
-0.17
2.56
2.60
-0.05
-3.63
-5.69
-4.67
-0.80
3.87
6.69
5.92
1.80
-3.51
-7.10
-6.95
-3.12
2.31
6.39
7.02
4.05
-0.65
-4.37
-5.16
-2.89
0.71
3.22
2.98
0.10
-3.62
-5.78
-4.84
-1.02
3.70
6.73
6.34
2.67
-2.31
-5.90
-6.19
-3.17
1.30
4.61
4.90
2.18
-1.75
-4.39
-4.05
-0.86
3.26
5.76
5.01
1.29
-3.32
-6.15
-5.50
-1.66
3.26
6.57
6.52
3.31
-1.05
-3.95
-3.72
-0.59
3.44
5.89
5.16
1.53
-3.04
-6.08
-5.99
-2.94
1.18
3.95
3.77
0.83
-2.98
-5.21
-4.31
-0.58
3.93
6.62
5.85
1.95
-2.94
-6.08
-5.72
-2.13
2.57
5.63
5.26
1.64
-3.18
-6.51
-6.60
-3.64
0.41
2.99
2.49
-0.79
-4.82
-7.11
-6.19
-2.47
1.97
4.65
4.22
1.22
-2.22
-3.73
-2.11
1.92
6.15
8.18
6.86
2.98
-1.20
-3.24
-1.97
1.83
5.85
7.60
5.81
1.17
-4.04
-7.22
-6.94
-3.70
0.36
2.77
2.16
-0.94
-4.45
-6.00
-4.43
-0.46
3.68
5.56
4.07
0.02
-4.24
-6.26
-4.88
-0.94
3.26
5.26
3.98
0.32
-3.39
-4.70
-2.59
1.92
6.33
8.04
5.91
0.91
-4.38
-7.26
-6.42
-2.67
1.63
3.95
3.08
-0.15
-3.50
-4.70
-2.84
1.05
4.64
5.79
3.79
-0.08
-3.34
-3.85
-1.03
3.66
7.59
8.43
5.59
0.50
-4.09
-5.72
-3.64
0.83
4.98
6.28
3.84
-1.08
-5.80
-7.77
-5.99
-1.63
2.66
4.35
2.41
-1.98
-6.26
-7.92
-5.99
-1.64
2.60
4.39
2.92
-0.57
-3.56
-3.86
-0.93
3.74
7.46
7.94
4.64
-0.83
-5.68
-7.42
-5.34
-0.80
3.53
5.25
3.55
-0.34
-3.99
-5.16
-3.18
0.73
4.17
5.05
2.76
-1.38
-4.97
-5.91
-3.71
0.25
3.50
4.05
1.59
-2.25
-4.85
-4.23
-0.27
5.11
9.00
9.23
5.61
0.12
-4.30
-5.32
-2.63
1.96
5.62
6.13
3.13
-1.70
-5.67
-6.63
-4.20
0.02
3.43
3.94
1.19
-3.28
-6.90
-7.66
-5.19
-1.03
2.33
2.94
0.59
-3.09
-5.64
-5.26
-1.92
2.58
5.69
5.64
2.50
-1.82
-4.76
-4.54
-1.28
3.14
6.12
5.95
2.77
-1.51
-4.32
-3.96
-0.57
3.90
6.86
6.62
3.37
-0.91
-3.61
-3.06
0.52
5.04
7.84
7.19
3.32
-1.70
-5.16
-5.26
-2.11
2.34
5.46
5.42
2.29
-2.13
-5.28
-5.39
-2.51
1.62
4.51
4.47
1.54
-2.53
-5.36
-5.28
-2.37
1.63
4.35
4.15
1.16
-2.87
-5.54
-5.23
-2.03
2.27
5.18
4.99
1.72
-2.82
-6.09
-6.25
-3.24
1.15
4.38
4.61
1.82
-2.24
-5.06
-4.93
-1.95
2.03
4.55
4.02
0.71
-3.42
-5.91
-5.22
-1.72
2.56
5.08
4.37
0.82
-3.51
-6.10
-5.46
-2.02
2.17
4.63
3.91
0.47
-3.63
-5.92
-5.03
-1.48
2.60
4.74
3.61
-0.21
-4.49
-6.68
-5.40
-1.29
3.36
5.92
5.02
1.31
-2.87
-4.91
-3.52
0.51
4.75
6.62
4.94
0.66
-3.74
-5.67
-3.99
0.27
4.61
6.51
4.93
0.91
-3.04
-4.49
-2.52
1.72
5.71
7.06
4.95
0.67
-3.17
-4.15
-1.58
3.13
7.20
8.14
5.18
-0.28
-5.43
-7.68
-6.07
-1.81
2.49
4.29
2.63
-1.41
-5.40
-6.94
-5.16
-1.12
2.74
4.14
2.26
-1.65
-5.08
-5.67
-2.71
2.36
6.84
8.24
5.78
0.82
-3.97
-6.07
-4.60
-0.74
3.01
4.31
2.37
-1.60
-5.12
-5.99
-3.48
1.13
5.36
6.94
5.13
1.07
-2.91
-4.65
-3.43
-0.31
2.55
3.23
1.22
-2.27
-5.01
-5.08
-2.02
2.73
6.63
7.40
4.40
-0.91
-5.73
-7.47
-5.24
-0.40
4.27
6.20
4.49
0.41
-3.46
-4.83
-3.03
0.62
3.74
4.34
2.08
-1.61
-4.42
-4.52
-1.74
2.37
5.36
5.37
2.20
-2.50
-6.08
-6.41
-3.13
2.09
6.42
7.46
4.66
-0.40
-4.84
-6.22
-3.89
0.63
4.60
5.69
3.36
-0.91
-4.56
-5.53
-3.44
0.19
3.01
3.23
0.73
-2.92
-5.42
-5.14
-2.08
2.10
5.06
5.13
2.28
-1.78
-4.61
-4.37
-1.00
3.72
7.09
7.06
3.45
-1.87
-6.00
-6.66
-3.53
1.53
5.58
6.33
3.45
-1.28
-5.12
-5.99
-3.72
0.00
2.68
2.62
-0.07
-3.60
-5.58
-4.49
-0.65
3.96
6.76
6.07
2.14
-2.95
-6.46
-6.44
-2.91
2.18
6.07
6.78
4.15
-0.03
-3.15
-3.36
-0.62
3.25
5.68
4.92
1.09
-3.89
-7.37
-7.57
-4.52
-0.10
3.11
3.34
0.69
-2.95
-5.06
-4.02
-0.12
4.58
7.49
7.03
3.58
-0.76
-3.39
-2.78
0.63
4.69
6.84
5.61
1.49
-3.34
-6.28
-5.80
-2.32
2.05
4.69
4.00
0.27
-4.51
-7.73
-7.67
-4.43
0.13
3.44
3.77
1.17
-2.57
-4.97
-4.35
-0.91
3.44
6.17
5.65
2.22
-2.00
-4.38
-3.34
0.66
5.34
7.98
6.99
2.87
-2.11
-5.24
-4.92
-1.58
2.61
5.06
4.23
0.50
-4.06
-6.97
-6.70
-3.54
0.56
3.19
2.86
-0.09
-3.75
-5.68
-4.50
-0.63
3.83
6.40
5.68
2.20
-1.82
-3.86
-2.55
1.38
5.60
7.51
5.79
1.20
-3.83
-6.67
-5.91
-2.17
2.27
4.82
4.04
0.46
-3.78
-6.18
-5.36
-1.82
2.34
4.66
3.84
0.48
-3.23
-4.78
-2.91
1.59
6.30
8.55
6.98
2.36
-2.90
-6.10
-5.78
-2.52
1.48
3.71
2.87
-0.42
-4.02
-5.58
-4.00
-0.06
3.98
5.74
4.16
0.14
-3.95
-5.66
-3.92
0.32
4.58
6.33
4.44
-0.11
-4.84
-7.20
-5.98
-2.07
2.17
4.29
3.20
-0.20
-3.55
-4.47
-2.04
2.62
6.90
8.26
5.68
0.34
-5.05
-7.76
-6.59
-2.54
1.90
4.16
3.14
-0.24
-3.58
-4.57
-2.31
2.08
6.10
7.36
4.94
-0.05
-5.08
-7.63
-6.61
-2.91
1.15
3.18
2.17
-0.96
-3.93
-4.53
-1.99
2.49
6.42
7.48
4.94
0.14
-4.30
-5.93
-3.93
0.42
4.49
5.84
3.65
-0.82
-5.00
-6.52
-4.54
-0.26
3.84
5.48
3.93
0.42
-2.63
-3.07
-0.41
3.91
7.35
7.79
4.85
0.11
-3.79
-4.74
-2.35
1.76
4.96
5.15
1.96
-3.00
-7.10
-8.16
-5.71
-1.20
2.77
3.96
1.74
-2.57
-6.46
-7.64
-5.42
-1.04
2.97
4.33
2.32
-1.73
-5.30
-6.09
-3.47
1.14
5.12
6.19
3.78
-0.61
-4.33
-5.11
-2.41
2.25
6.19
7.15
4.66
0.24
-3.46
-4.25
-1.66
2.74
6.34
6.97
4.27
-0.18
-3.75
-4.36
-1.71
2.57
5.86
6.16
3.23
-1.26
-4.68
-5.05
-2.17
2.21
5.49
5.64
2.49
-2.24
-5.89
-6.44
-3.70
0.61
3.82
3.89
0.60
-4.34
-8.23
-8.93
-6.08
-1.31
2.71
3.82
1.59
-2.44
-5.69
-6.06
-3.14
1.49
5.23
6.00
3.48
-0.64
-3.70
-3.62
-0.25
4.58
8.09
8.24
4.99
0.33
-2.93
-2.84
0.52
5.07
7.97
7.36
3.45
-1.61
-5.04
-5.05
-1.89
2.29
4.81
3.94
0.02
-4.86
-8.00
-7.70
-4.18
0.49
3.66
3.58
0.39
-4.01
-7.04
-6.95
-3.82
0.53
3.61
3.70
0.95
-2.76
-4.91
-3.85
0.15
5.00
8.00
7.42
3.55
-1.46
-4.84
-4.77
-1.44
3.02
5.83
5.17
1.25
-3.81
-7.25
-7.25
-3.97
0.61
3.88
4.12
1.53
-1.95
-3.83
-2.60
1.34
5.84
8.29
7.11
2.76
-2.54
-6.05
-6.07
-2.89
1.39
4.20
3.96
0.99
-2.68
-4.64
-3.48
0.28
4.50
6.66
5.34
1.09
-3.89
-7.00
-6.66
-3.28
1.11
4.00
3.89
1.11
-2.43
-4.39
-3.46
-0.13
3.56
5.24
3.63
-0.60
-5.16
-7.44
-5.98
-1.36
4.06
7.46
7.17
3.52
-1.29
-4.58
-4.69
-1.95
1.65
3.73
2.95
-0.15
-3.55
-4.99
-3.39
0.50
4.49
6.21
4.55
0.31
-4.17
-6.34
-4.92
-0.65
4.11
6.75
5.88
2.14
-2.24
-4.74
-4.04
-0.77
2.89
4.55
3.08
-0.73
-4.61
-6.14
-4.23
0.19
4.69
6.70
5.05
0.64
-4.05
-6.43
-5.27
-1.44
2.65
4.56
3.21
-0.47
-4.14
-5.50
-3.66
0.35
4.15
5.42
3.23
-1.38
-5.97
-8.04
-6.46
-2.14
2.51
4.86
3.67
-0.25
-4.42
-6.21
-4.36
0.23
4.96
7.11
5.50
1.14
-3.28
-5.09
-3.21
1.18
5.36
6.77
4.55
0.07
-3.90
-4.88
-2.18
2.69
6.90
7.99
5.33
0.46
-3.82
-5.06
-2.67
1.85
5.77
6.73
4.18
-0.38
-4.24
-5.15
-2.62
1.80
5.44
6.08
3.28
-1.39
-5.25
-6.11
-3.55
0.83
4.42
5.07
2.40
-2.01
-5.57
-6.17
-3.49
0.89
4.38
4.92
2.19
-2.22
-5.75
-6.34
-3.65
0.77
4.36
4.99
2.25
-2.36
-6.31
-7.41
-5.12
-0.80
3.10
4.44
2.67
-0.84
-3.68
-3.84
-0.96
3.44
6.82
7.15
4.12
-0.66
-4.57
-5.49
-3.00
1.37
5.01
5.77
3.14
-1.44
-5.43
-6.65
-4.54
-0.42
3.27
4.47
2.67
-0.83
-3.71
-4.02
-1.41
2.66
5.77
5.95
2.90
-1.81
-5.60
-6.37
-3.71
0.84
4.68
5.67
3.35
-0.79
-4.18
-4.75
-2.15
2.05
5.22
5.32
2.12
-2.64
-6.24
-6.61
-3.52
1.29
5.11
5.87
3.31
-0.91
-4.20
-4.64
-2.07
1.80
4.42
3.94
0.40
-4.29
-7.40
-7.01
-3.16
2.19
6.20
6.83
3.96
-0.55
-3.97
-4.33
-1.56
2.52
5.29
4.90
1.40
-3.34
-6.68
-6.79
-3.66
0.87
4.19
4.42
1.57
-2.57
-5.39
-5.08
-1.70
2.84
5.92
5.79
2.65
-1.48
-3.96
-3.11
0.71
5.33
8.06
7.28
3.41
-1.28
-4.09
-3.41
0.28
4.72
7.22
6.26
2.35
-2.28
-4.97
-4.26
-0.67
3.59
5.95
4.94
1.08
-3.48
-6.20
-5.61
-2.20
1.96
4.36
3.53
-0.11
-4.48
-7.09
-6.41
-2.87
1.45
4.01
3.28
-0.32
-4.70
-7.28
-6.50
-2.76
1.82
4.67
4.22
0.87
-3.33
-5.84
-5.12
-1.60
2.68
5.23
4.62
1.30
-2.68
-4.88
-3.89
-0.25
3.97
6.29
5.34
1.64
-2.69
-5.15
-4.31
-0.67
3.63
6.06
5.17
1.41
-3.12
-5.89
-5.40
-2.09
2.00
4.39
3.67
0.34
-3.56
-5.60
-4.47
-0.78
3.30
5.30
3.97
-0.01
-4.38
-6.62
-5.42
-1.49
2.91
5.24
4.20
0.49
-3.65
-5.69
-4.36
-0.34
4.11
6.46
5.41
1.60
-2.78
-5.24
-4.46
-1.11
2.66
4.43
3.01
-0.87
-4.95
-6.79
-5.26
-1.23
2.95
4.83
3.38
-0.43
-4.16
-5.36
-3.09
1.53
5.93
7.62
5.71
1.40
-2.65
-3.98
-1.72
2.85
7.05
8.40
6.06
1.35
-3.07
-4.69
-2.66
1.74
5.85
7.20
4.89
0.13
-4.48
-6.46
-4.85
-0.75
3.36
5.02
3.24
-0.97
-5.19
-7.00
-5.39
-1.39
2.58
4.08
2.13
-2.25
-6.54
-8.28
-6.45
-2.11
2.27
4.23
2.85
-0.80
-4.26
-5.23
-2.96
1.31
5.04
6.00
3.57
-0.84
-4.60
-5.45
-2.80
1.91
6.04
7.27
5.02
0.68
-3.18
-4.31
-2.13
1.97
5.49
6.29
3.89
-0.25
-3.63
-4.18
-1.55
2.69
5.98
6.28
3.31
-1.25
-4.75
-5.15
-2.25
2.22
5.54
5.67
2.38
-2.59
-6.51
-7.27
-4.53
0.05
3.78
4.47
1.69
-2.98
-6.89
-7.78
-5.17
-0.54
3.50
4.74
2.73
-1.00
-3.86
-3.77
-0.48
4.23
7.61
7.56
3.91
-1.44
-5.64
-6.45
-3.58
1.19
4.99
5.57
2.50
-2.49
-6.59
-7.48
-4.68
0.24
4.54
5.98
4.02
0.15
-3.06
-3.51
-0.86
3.27
6.25
6.04
2.42
-2.81
-6.84
-7.50
-4.47
0.52
4.69
5.86
3.65
-0.34
-3.54
-3.94
-1.32
2.61
5.27
4.75
1.07
-3.79
-7.07
-6.76
-2.92
2.38
6.22
6.52
3.25
-1.62
-5.23
-5.57
-2.62
1.69
4.63
4.36
1.01
-3.39
-6.13
-5.46
-1.60
3.34
6.60
6.40
2.94
-1.73
-4.90
-4.81
-1.66
2.51
5.08
4.34
0.61
-3.99
-6.72
-5.80
-1.51
3.94
7.68
7.75
4.21
-0.90
-4.79
-5.56
-3.23
0.38
2.84
2.65
0.07
-3.06
-4.56
-3.26
0.28
4.06
5.82
4.41
0.55
-3.60
-5.58
-4.06
0.33
5.26
8.02
7.01
2.70
-2.57
-5.96
-5.74
-2.28
2.18
4.88
4.20
0.58
-3.81
-6.39
-5.75
-2.42
1.45
3.47
2.44
-0.95
-4.51
-5.90
-3.98
0.43
4.99
7.13
5.56
1.04
-3.98
-6.71
-5.64
-1.39
3.61
6.57
5.93
2.24
-2.21
-4.79
-4.08
-0.75
2.94
4.50
2.74
-1.46
-5.63
-7.20
-5.01
-0.05
5.07
7.60
6.23
1.84
-3.04
-5.68
-4.76
-1.10
2.89
4.70
3.19
-0.69
-4.51
-5.80
-3.56
1.15
5.77
7.68
5.74
0.97
-4.03
-6.52
-5.19
-0.91
3.80
6.27
5.21
1.39
-2.83
-4.99
-3.97
-0.61
2.85
4.19
2.54
-1.05
-4.29
-5.00
-2.50
1.96
5.82
6.72
3.91
-1.24
-5.89
-7.37
-4.73
0.68
5.86
7.93
5.72
0.51
-4.73
-7.10
-5.38
-0.78
3.89
5.88
4.11
-0.27
-4.64
-6.56
-5.11
-1.41
2.17
3.48
1.84
-1.63
-4.73
-5.51
-3.38
0.51
3.96
5.04
3.15
-0.53
-3.77
-4.50
-2.08
2.26
6.08
7.09
4.55
-0.23
-4.53
-5.85
-3.30
1.73
6.42
8.08
5.78
0.83
-3.96
-6.03
-4.49
-0.63
2.98
4.09
2.09
-1.63
-4.64
-4.95
-2.24
1.92
5.06
5.23
2.20
-2.34
-5.77
-5.99
-2.68
2.48
6.73
7.77
5.05
0.11
-4.37
-6.04
-4.25
-0.36
3.14
4.14
2.14
-1.48
-4.32
-4.43
-1.52
2.83
6.06
6.16
2.85
-2.14
-6.08
-6.77
-3.85
0.96
4.89
5.73
3.10
-1.36
-5.00
-5.71
-3.20
0.90
4.02
4.23
1.39
-2.77
-5.68
-5.44
-1.99
2.85
6.39
6.62
3.39
-1.53
-5.46
-6.34
-3.90
0.20
3.40
3.80
1.27
-2.47
-4.89
-4.20
-0.48
4.34
7.51
7.13
3.21
-2.23
-6.34
-7.01
-4.09
0.57
4.17
4.64
1.81
-2.49
-5.55
-5.42
-2.04
2.72
6.17
6.42
3.48
-0.75
-3.65
-3.43
-0.24
3.94
6.47
5.62
1.59
-3.52
-7.01
-7.03
-3.69
1.04
4.47
4.71
1.80
-2.42
-5.30
-5.03
-1.67
2.86
5.92
5.75
2.51
-1.77
-4.41
-3.74
-0.08
4.40
7.02
6.17
2.30
-2.35
-5.08
-4.37
-0.74
3.55
5.88
4.77
0.76
-3.92
-6.68
-6.04
-2.48
1.82
4.29
3.37
-0.52
-5.23
-8.09
-7.40
-3.46
1.57
4.94
4.80
1.34
-3.38
-6.58
-6.39
-2.93
1.76
4.92
4.74
1.38
-3.11
-5.98
-5.45
-1.71
3.13
6.29
5.97
2.41
-2.26
-5.24
-4.72
-0.93
3.96
7.18
6.94
3.51
-0.94
-3.65
-2.99
0.61
4.90
7.18
5.93
1.75
-3.00
-5.60
-4.61
-0.69
3.75
6.00
4.62
0.30
-4.59
-7.38
-6.67
-3.07
1.14
3.41
2.43
-1.12
-4.97
-6.61
-4.82
-0.41
4.28
6.70
5.64
1.90
-2.18
-4.08
-2.59
1.46
5.70
7.56
5.79
1.21
-3.79
-6.61
-5.88
-2.30
1.88
4.19
3.36
0.09
-3.45
-4.92
-3.30
0.53
4.24
5.42
3.10
-1.59
-6.04
-7.58
-5.05
0.39
5.88
8.43
6.61
1.40
-4.34
-7.52
-6.59
-2.35
2.60
5.41
4.68
1.17
-2.81
-4.83
-3.81
-0.58
2.72
4.01
2.49
-0.83
-3.80
-4.43
-2.05
2.19
5.94
7.00
4.58
-0.14
-4.65
-6.46
-4.52
0.13
4.89
7.08
5.49
1.09
-3.49
-5.56
-3.87
0.53
4.98
6.73
4.60
-0.31
-5.28
-7.64
-6.26
-2.21
1.96
3.79
2.38
-1.16
-4.44
-5.31
-3.09
0.95
4.40
5.12
2.51
-2.07
-6.03
-7.02
-4.26
0.92
5.86
7.95
6.19
1.69
-2.96
-5.20
-4.00
-0.38
3.26
4.64
3.01
-0.46
-3.42
-3.80
-1.09
3.30
6.85
7.39
4.37
-0.80
-5.49
-7.38
-5.67
-1.58
2.41
4.01
2.42
-1.21
-4.45
-5.08
-2.46
2.08
6.00
7.02
4.54
-0.06
-4.18
-5.53
-3.45
0.67
4.31
5.25
2.96
-1.14
-4.48
-4.90
-1.95
2.79
6.63
7.27
4.22
-0.97
-5.56
-7.19
-5.24
-1.09
2.69
3.90
1.99
-1.64
-4.52
-4.64
-1.62
2.96
6.51
6.90
3.74
-1.38
-5.78
-7.15
-4.89
-0.46
3.54
4.82
2.79
-1.18
-4.52
-5.11
-2.52
1.71
4.99
5.27
2.34
-2.06
-5.23
-5.14
-1.74
3.04
6.38
6.25
2.63
-2.50
-6.30
-6.73
-3.69
0.96
4.44
4.71
1.60
-3.15
-6.83
-7.37
-4.45
0.29
4.22
5.20
2.87
-1.21
-4.45
-4.78
-1.86
2.67
6.22
6.77
4.11
-0.02
-3.00
-2.93
0.20
4.45
7.15
6.49
2.62
-2.36
-5.67
-5.45
-1.87
2.93
6.06
5.60
1.66
-3.66
-7.47
-7.76
-4.51
0.35
4.01
4.49
1.70
-2.52
-5.53
-5.47
-2.36
1.96
4.93
4.80
1.75
-2.27
-4.70
-3.88
-0.12
4.46
7.19
6.40
2.43
-2.55
-5.82
-5.69
-2.42
1.92
4.68
4.19
0.68
-3.81
-6.71
-6.38
-3.02
1.42
4.44
4.44
1.68
-1.89
-3.76
-2.42
1.70
6.39
8.94
7.71
3.11
-2.57
-6.50
-6.83
-3.76
0.61
3.57
3.35
0.15
-3.96
-6.35
-5.36
-1.33
3.60
6.70
6.29
2.68
-2.06
-5.26
-5.28
-2.41
1.37
3.62
2.93
-0.22
-3.77
-5.30
-3.52
0.91
5.72
8.29
7.14
2.81
-2.45
-5.97
-6.12
-3.22
0.73
3.31
3.11
0.48
-2.72
-4.31
-3.17
0.14
3.63
5.11
3.49
-0.47
-4.58
-6.38
-4.59
0.02
5.07
7.76
6.55
2.07
-3.17
-6.23
-5.39
-1.26
3.65
6.38
5.29
1.07
-3.75
-6.32
-5.19
-1.12
3.41
5.70
4.49
0.58
-3.63
-5.66
-4.39
-0.68
3.18
4.87
3.36
-0.46
-4.36
-6.10
-4.69
-0.98
2.89
4.72
3.56
0.23
-3.21
-4.65
-3.22
0.27
3.79
5.27
3.85
0.31
-3.32
-5.00
-3.81
-0.46
3.08
4.81
3.76
0.62
-2.73
-4.26
-3.06
0.17
3.45
4.71
3.06
-0.63
-4.21
-5.44
-3.41
0.87
4.95
6.37
4.13
-0.63
-5.21
-6.90
-4.56
0.61
5.77
8.01
6.11
1.17
-3.99
-6.52
-5.19
-1.04
3.31
5.26
3.79
-0.02
-3.71
-4.97
-2.99
1.04
4.69
5.68
3.25
-1.36
-5.61
-7.04
-4.72
0.24
5.23
7.59
6.13
1.75
-3.07
-5.76
-5.08
-1.81
1.78
3.39
2.09
-1.16
-4.12
-4.70
-2.25
1.98
5.58
6.37
3.70
-1.14
-5.67
-7.54
-5.92
-1.91
2.06
3.66
1.94
-2.04
-5.87
-7.22
-5.15
-0.72
3.65
5.57
4.13
0.40
-3.19
-4.33
-2.23
1.95
5.73
6.86
4.67
0.48
-3.16
-4.03
-1.50
3.00
6.87
7.81
5.20
0.50
-3.61
-4.75
-2.26
2.45
6.65
7.90
5.42
0.52
-4.15
-6.12
-4.54
-0.59
3.23
4.53
2.44
-1.92
-6.10
-7.73
-5.94
-1.79
2.29
3.97
2.33
-1.55
-5.25
-6.49
-4.45
-0.32
3.44
4.59
2.47
-1.50
-4.73
-4.99
-1.76
3.41
7.78
8.97
6.36
1.43
-3.14
-4.95
-3.29
0.52
3.96
4.79
2.42
-1.81
-5.39
-6.20
-3.74
0.48
3.90
4.46
1.83
-2.30
-5.26
-5.00
-1.36
3.78
7.57
7.89
4.60
-0.40
-4.25
-4.78
-1.81
2.79
6.21
6.30
2.85
-2.33
-6.46
-7.35
-4.69
-0.14
3.59
4.36
1.79
-2.57
-6.15
-6.87
-4.40
-0.26
3.03
3.44
0.71
-3.55
-6.76
-6.91
-3.77
0.96
4.63
5.22
2.49
-1.83
-5.07
-5.22
-2.09
2.53
5.95
6.20
3.15
-1.33
-4.57
-4.61
-1.40
3.15
6.35
6.26
2.90
-1.76
-5.01
-4.92
-1.56
3.11
6.34
6.22
2.83
-1.87
-5.15
-5.12
-1.81
2.83
6.08
6.04
2.73
-1.90
-5.10
-4.96
-1.47
3.41
6.89
6.98
3.63
-1.21
-4.72
-4.91
-1.78
2.72
5.85
5.73
2.47
-1.92
-4.73
-4.25
-0.76
3.62
6.17
5.24
1.15
-3.92
-7.25
-7.14
-3.83
0.62
3.55
3.24
-0.13
-4.58
-7.45
-7.00
-3.39
1.42
4.78
4.92
1.96
-2.15
-4.80
-4.23
-0.61
4.03
6.99
6.49
2.71
-2.29
-5.84
-6.16
-3.40
0.52
3.12
2.84
-0.02
-3.50
-5.19
-3.68
0.54
5.29
7.89
6.77
2.35
-3.08
-6.63
-6.42
-2.70
2.36
5.90
6.02
2.90
-1.42
-4.27
-3.97
-0.83
3.05
5.09
3.82
-0.22
-4.73
-7.06
-5.70
-1.24
3.95
7.02
6.32
2.25
-2.94
-6.46
-6.55
-3.49
0.66
3.30
2.88
-0.19
-3.79
-5.37
-3.55
1.05
6.04
8.66
7.36
2.73
-2.80
-6.35
-6.22
-2.84
1.53
4.20
3.66
0.42
-3.34
-5.11
-3.59
0.50
4.84
6.85
5.21
0.71
-4.19
-6.74
-5.50
-1.17
3.80
6.65
5.89
2.11
-2.39
-5.02
-4.42
-1.23
2.37
4.05
2.69
-0.86
-4.37
-5.51
-3.25
1.45
6.14
8.21
6.40
1.57
-3.75
-6.70
-5.76
-1.62
3.27
6.08
5.28
1.49
-2.99
-5.56
-4.89
-1.63
2.06
3.87
2.77
-0.43
-3.64
-4.77
-3.01
0.69
4.15
5.23
3.12
-1.13
-5.16
-6.60
-4.46
0.22
4.88
6.90
5.08
0.43
-4.36
-6.47
-4.58
0.31
5.39
7.76
6.05
1.28
-3.80
-6.37
-5.15
-1.17
2.98
4.75
3.13
-0.78
-4.54
-5.86
-3.99
-0.10
3.48
4.62
2.73
-0.96
-4.12
-4.71
-2.17
2.18
5.87
6.69
3.97
-0.96
-5.42
-6.95
-4.65
0.23
4.98
7.03
5.33
1.00
-3.45
-5.56
-4.40
-0.99
2.36
3.52
1.85
-1.46
-4.09
-4.09
-1.04
3.58
7.23
7.71
4.53
-0.83
-5.62
-7.43
-5.50
-1.14
3.06
4.76
3.16
-0.55
-4.02
-5.15
-3.35
0.12
2.97
3.27
0.70
-3.28
-6.19
-6.01
-2.43
2.91
7.26
8.28
5.38
0.15
-4.58
-6.27
-4.17
0.29
4.38
5.68
3.51
-0.74
-4.49
-5.48
-3.20
0.94
4.40
5.08
2.59
-1.52
-4.68
-4.79
-1.53
3.40
7.22
7.65
4.27
-1.16
-5.68
-6.84
-4.11
0.83
5.04
6.12
3.56
-0.99
-4.80
-5.73
-3.42
0.49
3.51
3.75
1.09
-2.79
-5.45
-5.12
-1.78
2.80
6.04
6.02
2.64
-2.32
-6.13
-6.68
-3.67
1.18
5.17
6.15
3.74
-0.45
-3.88
-4.56
-2.22
1.56
4.33
4.31
1.44
-2.54
-5.18
-4.73
-1.29
3.27
6.35
6.16
2.73
-2.06
-5.59
-5.95
-3.11
1.16
4.26
4.31
1.27
-2.99
-5.86
-5.45
-1.78
3.21
6.77
6.93
3.63
-1.23
-4.96
-5.65
-3.27
0.39
2.87
2.62
-0.11
-3.43
-5.00
-3.50
0.50
4.83
6.93
5.37
0.79
-4.43
-7.39
-6.33
-1.69
4.12
7.96
7.78
3.72
-1.94
-6.12
-6.67
-3.57
1.15
4.65
5.00
2.21
-1.85
-4.65
-4.57
-1.81
1.77
3.83
2.99
-0.33
-4.23
-6.40
-5.52
-2.02
2.13
4.61
4.04
0.83
-3.05
-5.18
-4.09
-0.16
4.53
7.39
6.75
2.94
-1.94
-5.08
-4.69
-0.99
3.86
6.99
6.55
2.75
-2.19
-5.42
-5.08
-1.44
3.28
6.22
5.60
1.81
-2.88
-5.62
-4.70
-0.62
4.23
6.95
5.88
1.57
-3.52
-6.47
-5.62
-1.59
3.14
5.63
4.31
-0.14
-5.17
-7.83
-6.51
-1.94
3.29
6.16
5.01
0.52
-4.73
-7.69
-6.66
-2.23
3.07
6.25
5.62
1.73
-2.94
-5.55
-4.50
-0.42
4.26
6.78
5.73
1.84
-2.49
-4.64
-3.35
0.56
4.73
6.67
5.22
1.23
-3.01
-5.15
-4.11
-0.72
2.85
4.42
3.05
-0.40
-3.84
-5.19
-3.59
0.05
3.66
5.15
3.70
0.16
-3.42
-5.05
-3.88
-0.73
2.46
3.77
2.44
-0.71
-3.78
-4.94
-3.50
-0.33
2.64
3.59
1.91
-1.39
-4.28
-4.90
-2.68
1.22
4.60
5.47
3.25
-0.90
-4.63
-5.84
-3.87
0.12
3.78
5.02
3.14
-0.68
-4.10
-5.01
-2.82
1.22
4.71
5.54
3.15
-1.13
-4.80
-5.74
-3.38
0.90
4.65
5.76
3.68
-0.24
-3.59
-4.34
-2.04
1.96
5.28
5.95
3.56
-0.54
-4.02
-4.93
-2.87
0.83
3.93
4.59
2.44
-1.18
-4.10
-4.59
-2.38
1.15
3.85
4.05
1.57
-2.19
-5.04
-5.29
-2.76
1.15
4.24
4.81
2.61
-1.03
-4.03
-4.71
-2.79
0.48
3.09
3.50
1.48
-1.71
-4.15
-4.32
-2.04
1.41
4.07
4.46
2.42
-0.80
-3.29
-3.59
-1.58
1.50
3.74
3.74
1.43
-1.84
-4.11
-3.89
-1.13
2.72
5.50
5.53
2.67
-1.55
-4.75
-5.05
-2.19
2.20
5.51
5.64
2.28
-2.82
-6.79
-7.29
-3.92
1.51
5.95
6.88
3.82
-1.43
-5.82
-6.90
-4.18
0.59
4.53
5.35
2.73
-1.64
-5.06
-5.51
-2.75
1.53
4.82
5.26
2.71
-1.22
-4.13
-4.25
-1.44
2.68
5.73
5.89
2.99
-1.42
-4.91
-5.58
-3.19
0.74
3.78
4.03
1.26
-2.91
-5.96
-5.95
-2.71
2.02
5.52
5.78
2.65
-2.00
-5.37
-5.34
-1.83
3.20
6.81
6.88
3.36
-1.66
-5.23
-5.25
-1.76
3.02
6.09
5.42
1.25
-4.06
-7.39
-6.67
-2.18
3.60
7.42
7.16
3.06
-2.46
-6.21
-6.06
-2.19
3.03
6.49
6.13
2.17
-3.08
-6.54
-6.19
-2.27
2.88
6.16
5.57
1.37
-4.05
-7.50
-6.91
-2.55
3.13
6.91
6.69
2.73
-2.55
-5.98
-5.54
-1.53
3.59
6.75
6.08
2.03
-2.98
-5.98
-5.23
-1.24
3.58
6.36
5.46
1.44
-3.34
-6.06
-5.16
-1.18
3.51
6.16
5.22
1.27
-3.37
-6.02
-5.16
-1.35
3.14
5.70
4.91
1.35
-2.82
-5.15
-4.35
-1.02
2.75
4.66
3.62
0.30
-3.23
-4.80
-3.39
0.22
3.92
5.49
3.95
0.15
-3.71
-5.35
-3.76
0.16
4.09
5.69
3.92
-0.25
-4.46
-6.29
-4.72
-0.76
3.19
4.74
2.97
-1.09
-5.01
-6.46
-4.52
-0.28
3.86
5.58
3.99
0.13
-3.67
-5.15
-3.47
0.38
4.14
5.64
4.06
0.40
-3.19
-4.64
-3.22
0.11
3.30
4.45
2.94
-0.22
-3.05
-3.83
-2.07
1.11
3.71
4.06
1.81
-1.79
-4.60
-4.87
-2.23
1.94
5.27
5.75
2.90
-1.82
-5.79
-6.71
-3.90
1.17
5.72
7.21
4.83
-0.03
-4.60
-6.39
-4.61
-0.56
3.17
4.37
2.50
-1.06
-3.92
-4.17
-1.55
2.41
5.26
5.15
1.93
-2.66
-5.99
-6.00
-2.44
2.89
7.16
8.07
5.15
0.04
-4.47
-6.06
-4.15
-0.22
3.17
3.94
1.69
-2.07
-4.84
-4.72
-1.48
3.19
6.64
6.82
3.49
-1.66
-5.90
-7.07
-4.75
-0.52
3.08
4.00
1.95
-1.55
-4.11
-3.93
-0.95
3.11
5.76
5.22
1.54
-3.34
-6.70
-6.57
-2.89
2.37
6.39
7.03
4.09
-0.65
-4.42
-5.17
-2.64
1.44
4.46
4.49
1.44
-2.92
-5.96
-5.82
-2.49
2.18
5.53
5.71
2.79
-1.29
-3.86
-3.20
0.43
4.89
7.46
6.50
2.44
-2.44
-5.44
-4.92
-1.38
2.94
5.34
4.27
0.18
-4.72
-7.80
-7.45
-4.03
0.42
3.35
3.15
0.05
-4.05
-6.72
-6.37
-3.19
1.01
3.82
3.70
0.88
-2.78
-4.87
-3.87
-0.10
4.43
7.20
6.69
3.26
-1.00
-3.53
-2.85
0.60
4.66
6.82
5.70
1.89
-2.37
-4.62
-3.57
0.05
4.01
5.81
4.25
0.06
-4.48
-6.92
-6.00
-2.38
1.73
3.91
2.90
-0.72
-4.82
-7.02
-6.07
-2.53
1.50
3.66
2.71
-0.72
-4.47
-6.09
-4.33
0.10
4.89
7.48
6.55
2.86
-1.22
-3.14
-1.67
2.29
6.30
7.82
5.81
1.34
-2.99
-4.70
-2.82
1.41
5.35
6.49
3.92
-1.12
-5.99
-8.16
-6.63
-2.47
1.84
3.87
2.59
-1.07
-4.81
-6.31
-4.59
-0.57
3.46
5.19
3.70
-0.05
-3.71
-4.98
-2.95
1.28
5.27
6.66
4.58
0.18
-4.04
-5.70
-3.89
0.23
4.17
5.56
3.52
-0.80
-4.89
-6.38
-4.38
-0.02
4.17
5.80
3.94
-0.31
-4.46
-6.13
-4.38
-0.31
3.65
5.12
3.22
-0.95
-4.92
-6.35
-4.33
-0.00
4.10
5.59
3.61
-0.63
-4.52
-5.63
-3.15
1.56
5.81
7.15
4.89
0.51
-3.21
-3.96
-1.23
3.28
6.79
7.03
3.71
-1.41
-5.51
-6.42
-3.80
0.66
4.24
4.82
2.08
-2.41
-6.05
-6.81
-4.33
-0.10
3.47
4.43
2.46
-1.01
-3.69
-3.79
-1.17
2.62
5.20
4.86
1.59
-2.81
-5.79
-5.50
-1.94
2.95
6.41
6.40
2.89
-2.11
-5.69
-5.76
-2.25
2.77
6.31
6.24
2.57
-2.57
-6.16
-6.11
-2.46
2.62
6.16
6.10
2.54
-2.35
-5.68
-5.53
-2.10
2.45
5.34
4.78
1.07
-3.62
-6.57
-6.04
-2.35
2.44
5.66
5.63
2.54
-1.68
-4.52
-4.42
-1.58
2.15
4.40
3.72
0.46
-3.43
-5.54
-4.46
-0.68
3.67
6.01
4.86
0.75
-4.00
-6.59
-5.41
-1.02
4.08
6.93
5.80
1.30
-3.98
-6.93
-5.80
-1.24
4.10
7.13
6.15
1.82
-3.25
-6.14
-5.31
-1.42
3.11
5.64
4.85
1.41
-2.52
-4.66
-3.93
-1.06
1.97
3.12
1.55
-1.91
-5.28
-6.63
-5.20
-1.87
1.30
2.31
0.33
-3.77
-7.94
-10.09
-9.30
-6.33
-3.17
-1.87
-3.28
-6.57
-9.76
-10.93
-9.46
-6.53
-4.41
-5.08
-8.90
-14.24
-18.37
-19.07
-16.17
-11.74
-9.05
-10.59
-16.50
-24.35
-30.43
-31.89
-28.50
-22.85
-18.95
-19.99
-26.44
-35.79
-43.79
-46.40
-41.46
-29.25
-12.00
7.14
25.06
39.28
48.20
51.24
48.86
42.55
34.59
27.33
22.64
21.39
23.52
28.31
34.80
41.93
48.59
53.66
56.17
55.62
52.23
46.88
40.73
34.90
29.97
25.98
22.50
18.97
14.99
10.53
5.91
1.63
-1.85
-4.31
-5.81
-6.67
-7.29
-7.99
-8.92
-10.01
-11.08
-11.88
-12.28
-12.26
-11.93
-11.46
-11.03
-10.71
-10.53
-10.40
-10.23
-9.95
-9.53
-8.99
-8.38
-7.78
-7.23
-6.75
-6.32
-5.93
-5.56
-5.20
-4.83
-4.47
-4.09
-3.71
-3.32
-2.93
-2.53
-2.13
-1.72
-1.29
-0.85
-0.39
0.10
0.60
1.09
1.54
1.92
2.25
2.55
2.88
3.28
3.77
4.35
4.98
5.63
6.29
6.91
7.53
8.17
8.85
9.57
10.31
11.03
11.70
12.27
12.69
13.06
13.44
13.88
14.31
14.46
14.00
12.48
9.56
5.06
-0.98
-8.32
-16.62
-25.58
-34.95
-44.58
-54.26
-63.62
-72.08
-78.74
-82.67
-83.21
-80.13
-73.81
-65.11
-55.13
-44.56
-34.53
-25.54
-17.65
-10.92
-5.28
-0.79
2.58
4.99
6.55
6.81
4.89
-0.16
-7.87
-15.61
-18.60
-11.75
7.69
38.43
75.16
111.01
140.04
158.86
166.37
162.48
147.15
120.78
85.56
46.35
9.96
-17.25
-32.03
-35.44
-31.82
-26.25
-22.11
-20.43
-20.32
-20.46
-20.18
-19.61
-19.23
-19.24
-19.46
-19.52
-18.94
-17.64
-15.89
-14.11
-12.79
-12.19
-12.23
-12.59
-12.77
-12.37
-11.22
-9.48
-7.50
-5.80
-4.74
-4.49
-4.92
-5.66
-6.19
-6.07
-5.13
-3.49
-1.66
-0.27
0.17
-0.58
-2.28
-4.20
-5.54
-5.66
-4.43
-2.40
-0.56
0.07
-1.12
-4.07
-7.83
-11.23
-13.42
-14.13
-14.11
-14.61
-16.95
-22.19
-31.05
-43.82
-60.17
-78.51
-95.59
-107.11
-109.03
-99.46
-79.76
-55.27
-32.11
-14.95
-4.96
0.00
3.41
8.20
15.35
23.92
32.27
39.53
45.90
51.73
57.99
64.35
69.73
72.89
72.97
70.24
65.87
61.34
57.93
56.20
55.68
55.37
54.36
51.64
47.08
41.42
35.23
29.20
23.74
18.80
14.06
9.21
4.11
-1.04
-5.81
-9.78
-12.62
-14.21
-14.70
-14.46
-13.87
-13.30
-12.92
-12.80
-12.97
-13.31
-13.64
-13.66
-13.20
-12.06
-10.23
-7.92
-5.49
-3.40
-2.00
-1.41
-1.36
-1.59
-1.71
-1.56
-1.33
-1.47
-2.49
-4.71
-8.47
-12.39
-15.35
-16.39
-15.33
-12.95
-10.63
-9.78
-11.31
-14.81
-18.69
-21.11
-19.70
-14.11
-5.76
3.04
9.91
13.02
12.42
9.49
6.06
4.58
6.61
11.98
20.26
29.74
36.79
37.03
25.39
-1.56
-41.26
-85.96
-125.24
-147.50
-145.77
-121.10
-80.16
-33.93
6.95
38.11
59.52
72.74
81.76
89.76
98.21
110.48
129.81
148.03
163.18
182.90
201.38
211.86
210.56
187.82
146.35
94.56
42.07
-2.07
-34.73
-60.17
-81.69
-99.74
-118.98
-138.92
-154.17
-161.48
-158.78
-147.39
-132.36
-117.20
-103.72
-92.24
-79.75
-63.72
-43.32
-18.34
11.69
41.42
64.60
77.81
81.52
79.69
75.56
70.94
67.36
65.55
64.35
63.02
60.92
57.32
52.80
48.15
44.69
43.82
45.16
46.12
44.53
39.42
31.27
21.95
12.46
3.96
-2.79
-7.76
-12.80
-18.76
-25.42
-32.22
-39.11
-48.79
-63.72
-86.64
-113.09
-142.26
-172.99
-202.96
-229.04
-248.10
-260.05
-263.97
-258.63
-243.46
-220.43
-191.64
-158.80
-123.14
-72.85
-12.89
42.27
81.50
104.00
114.36
118.72
121.90
126.06
130.44
129.92
122.91
108.82
89.92
69.51
51.37
38.41
31.61
29.90
29.22
27.51
25.07
24.49
28.27
38.29
55.42
79.28
108.35
138.69
166.78
189.56
205.07
212.77
213.41
209.01
202.41
196.99
194.91
198.17
207.91
218.35
224.49
223.91
217.44
207.05
195.00
182.83
172.46
163.67
156.77
152.39
150.01
147.65
141.57
133.06
121.65
107.14
89.64
69.90
49.47
29.88
12.26
-2.66
-14.40
-23.50
-30.71
-37.00
-43.19
-49.56
-56.14
-62.64
-68.60
-73.30
-76.72
-79.17
-81.40
-84.46
-89.23
-96.27
-105.62
-116.72
-128.73
-141.19
-153.96
-167.39
-182.08
-198.79
-218.54
-242.65
-272.32
-307.64
-346.50
-383.81
-412.23
-424.60
-416.95
-390.44
-351.36
-308.71
-270.94
-243.40
-227.51
-221.63
-222.66
-226.92
-230.19
-227.47
-213.31
-183.26
-135.81
-73.60
-2.96
68.12
132.43
185.62
226.62
256.67
277.88
292.07
300.40
303.50
301.71
294.91
282.50
263.22
235.55
198.42
151.84
97.30
37.51
-24.19
-84.22
-139.28
-186.71
-224.82
-253.39
-274.02
-289.85
-304.55
-320.95
-339.99
-360.38
-379.18
-392.78
-397.87
-392.27
-375.29
-347.74
-311.69
-270.17
-226.58
-184.10
-144.99
-110.10
-79.13
-50.98
-24.17
2.88
31.47
62.21
94.53
126.63
155.98
179.69
195.45
202.51
202.25
197.42
191.08
185.37
181.34
179.83
180.79
183.26
185.91
187.65
187.57
184.99
179.25
170.20
159.32
148.16
137.96
130.31
127.80
132.68
145.53
164.08
184.54
204.85
224.00
241.59
257.43
271.37
281.78
285.71
279.75
255.39
215.60
174.98
147.54
136.81
138.98
145.76
154.00
163.08
173.58
187.27
203.90
223.02
241.66
257.76
270.39
279.26
283.21
280.54
270.68
253.17
227.72
194.72
156.42
115.73
75.47
37.11
1.32
-30.92
-59.11
-83.48
-104.80
-123.53
-140.12
-155.67
-171.51
-188.33
-205.76
-222.87
-238.20
-249.92
-255.84
-254.41
-246.19
-233.49
-219.49
-207.12
-198.30
-193.31
-190.72
-187.93
-182.35
-173.67
-162.48
-149.56
-136.03
-123.56
-113.92
-108.27
-106.55
-107.54
-112.71
-121.75
-131.99
-140.77
-147.55
-153.17
-157.95
-160.54
-158.38
-156.22
-156.75
-158.54
-159.30
-159.63
-161.98
-167.96
-177.08
-186.95
-205.67
-235.32
-268.84
-296.88
-316.67
-332.46
-350.78
-375.25
-403.30
-440.79
-483.26
-516.25
-528.17
-522.14
-513.27
-518.40
-547.60
-509.07
-370.51
-175.05
10.37
153.95
257.08
332.99
394.60
449.95
501.24
531.73
531.61
506.31
469.82
433.17
401.51
376.70
359.21
349.33
335.91
313.25
285.01
258.28
236.13
217.71
201.56
187.60
177.13
164.72
148.04
129.90
114.49
102.80
93.01
83.17
72.80
63.16
52.97
42.61
34.43
30.35
29.68
30.12
29.39
26.86
23.84
21.40
21.39
26.07
36.88
53.09
71.51
87.07
93.77
86.35
62.38
24.06
-21.38
-63.47
-92.05
-100.96
-90.22
-65.91
-37.27
-12.92
1.13
4.32
-0.24
-8.58
-17.96
-27.36
-36.85
-46.24
-54.41
-59.43
-59.86
-55.70
-48.51
-40.72
-34.07
-29.31
-25.55
-20.86
-13.41
-2.43
11.51
26.61
39.58
48.93
53.90
54.89
53.08
50.85
48.29
45.31
41.62
36.73
30.53
23.21
15.47
8.18
2.01
-2.97
-6.91
-9.90
-12.26
-14.08
-15.49
-16.59
-17.60
-18.93
-21.30
-25.19
-30.09
-35.27
-39.70
-42.42
-42.74
-40.51
-36.16
-30.54
-24.54
-17.90
-10.30
-1.19
10.03
24.19
42.54
66.79
99.21
134.83
170.18
200.83
222.37
231.91
229.12
216.23
196.75
173.78
149.15
124.71
102.06
83.51
71.94
69.55
76.45
90.09
106.05
119.61
128.19
131.05
129.01
123.65
116.45
108.41
100.14
92.14
84.83
78.93
74.56
71.10
67.26
61.39
52.17
39.07
22.68
4.42
-13.82
-30.73
-45.78
-59.10
-70.98
-81.52
-90.77
-99.17
-107.82
-118.24
-131.64
-148.20
-166.61
-184.61
-199.91
-211.16
-218.34
-222.40
-224.46
-225.21
-224.59
-222.08
-217.08
-209.21
-198.38
-184.73
-168.61
-150.71
-131.95
-113.37
-95.82
-79.69
-64.80
-50.73
-37.32
-24.95
-14.68
-7.63
-4.24
-3.86
-5.18
-7.35
-10.69
-16.65
-26.45
-39.60
-53.21
-62.90
-64.91
-58.16
-44.78
-29.07
-15.14
-5.06
1.73
7.24
13.35
20.57
27.90
33.78
37.13
38.11
37.81
37.72
39.01
42.13
46.82
52.53
58.76
65.09
71.16
76.41
80.12
81.53
80.26
76.51
71.14
65.29
60.00
55.75
52.35
49.12
45.25
40.36
34.75
29.59
26.59
27.15
31.64
38.91
46.44
51.21
50.89
44.74
33.94
21.28
10.26
4.03
4.59
12.24
25.74
42.83
60.94
77.98
92.83
105.36
116.27
126.66
137.66
150.19
164.94
182.30
202.28
224.35
247.17
268.24
284.57
293.33
292.35
280.52
258.02
226.46
188.82
149.13
111.62
80.34
58.26
46.38
43.22
44.98
46.61
43.17
30.93
7.58
-26.58
-68.79
-114.73
-160.07
-201.57
-237.55
-267.89
-293.54
-317.56
-341.70
-365.16
-385.58
-400.85
-410.02
-413.07
-410.23
-401.76
-391.75
-382.51
-373.32
-361.84
-346.97
-329.43
-310.49
-290.91
-270.66
-255.44
-248.12
-246.51
-245.92
-243.82
-240.95
-239.33
-240.12
-242.86
-253.70
-274.61
-301.21
-326.25
-345.45
-358.36
-365.58
-366.44
-310.00
-180.17
-5.34
165.09
299.37
391.83
449.67
480.95
489.50
475.45
431.33
358.33
271.55
194.33
146.12
134.25
153.16
188.75
225.24
245.32
242.60
222.97
198.37
177.78
163.62
153.89
145.71
137.89
127.13
113.31
99.47
89.51
85.39
86.09
89.60
94.45
100.12
104.60
106.83
107.33
107.37
107.68
108.29
109.54
112.48
118.56
126.77
134.00
135.49
126.26
103.22
67.39
24.47
-17.89
-49.06
-63.87
-64.15
-56.40
-47.68
-41.92
-38.75
-35.12
-28.62
-18.60
-7.68
0.39
2.74
-1.34
-11.04
-23.83
-36.93
-47.79
-52.37
-46.91
-29.51
-2.03
29.02
53.91
63.61
53.94
27.01
-8.48
-42.89
-70.20
-89.77
-105.12
-120.70
-138.96
-154.24
-165.72
-172.69
-175.47
-174.29
-167.95
-153.99
-130.37
-97.41
-58.17
-18.09
18.99
52.37
80.94
102.69
114.34
112.15
93.96
61.51
18.16
-25.29
-58.99
-78.19
-83.60
-79.31
-70.21
-60.01
-50.70
-43.46
-37.52
-33.12
-30.56
-29.34
-28.24
-26.25
-23.28
-19.78
-16.60
-13.36
-10.32
-7.90
-6.32
-4.83
-1.68
5.75
20.93
43.02
71.50
103.80
136.17
164.48
186.31
200.36
206.23
204.41
196.75
185.61
172.40
157.78
141.06
122.36
101.71
79.63
58.20
41.72
34.12
36.36
46.08
57.62
66.97
72.97
77.82
75.96
66.47
50.94
29.05
5.06
-27.82
-71.26
-120.10
-167.97
-204.88
-222.58
-219.85
-203.00
-181.84
-165.57
-156.26
-150.37
-141.81
-125.55
-100.05
-68.59
-37.08
-10.34
9.62
25.38
40.25
55.64
70.84
84.12
93.59
98.29
98.76
96.44
94.27
94.09
96.40
100.95
106.91
112.71
115.73
113.28
103.47
87.79
69.24
52.12
41.17
39.82
48.69
64.55
82.27
97.61
110.19
120.87
130.34
137.68
139.78
132.45
111.87
77.11
26.47
-30.25
-78.23
-106.95
-115.49
-112.92
-107.91
-107.48
-116.64
-138.51
-169.77
-207.66
-249.16
-290.13
-324.80
-346.22
-349.03
-332.09
-299.40
-258.29
-218.16
-185.63
-161.17
-139.16
-111.29
-72.25
-24.03
24.42
62.09
81.00
81.26
71.69
65.33
72.81
97.43
132.06
162.66
175.96
166.24
138.19
104.12
77.30
66.34
73.96
95.28
121.12
142.98
156.77
163.18
165.43
166.17
166.90
171.03
180.88
197.13
218.91
244.50
270.83
293.39
306.30
290.59
241.08
170.02
97.69
37.02
-8.89
-43.74
-65.90
-70.73
-54.96
-14.16
46.29
111.41
161.89
182.40
167.14
120.97
55.01
-18.24
-87.37
-147.13
-197.62
-241.05
-278.17
-307.63
-327.88
-340.32
-349.67
-360.99
-378.22
-401.08
-423.63
-435.60
-425.92
-387.29
-319.72
-230.72
-132.11
-37.32
42.20
99.20
130.90
139.28
130.08
111.03
89.74
71.98
60.33
54.47
52.31
50.21
45.35
36.45
23.69
7.76
-10.67
-30.48
-49.29
-63.32
-70.07
-68.40
-59.35
-46.26
-34.49
-30.02
-36.94
-55.71
-72.65
-75.48
-59.22
-29.56
3.16
31.02
50.95
63.88
72.76
80.52
87.06
90.82
90.33
85.65
78.29
70.14
63.06
58.30
56.34
55.66
54.39
51.43
47.16
42.91
39.90
38.86
39.72
41.82
43.33
42.55
38.68
31.98
23.80
15.27
7.09
-0.61
-7.93
-15.37
-23.26
-31.51
-39.79
-47.75
-55.22
-61.81
-66.62
-68.42
-66.13
-59.30
-48.31
-34.24
-18.56
-2.84
11.50
23.16
31.04
34.41
33.32
28.96
23.39
18.85
16.73
17.08
18.81
21.00
23.37
26.64
32.49
42.60
57.49
75.54
93.17
105.73
109.21
102.24
87.39
70.83
60.69
64.49
86.64
126.93
179.84
235.34
281.29
306.80
305.24
276.14
224.98
161.08
94.57
32.77
-21.52
-69.18
-112.35
-152.00
-186.92
-214.48
-232.57
-240.71
-241.96
-242.08
-246.41
-256.82
-270.53
-281.51
-283.50
-273.03
-249.69
-219.05
-191.46
-177.53
-182.96
-206.19
-239.02
-269.51
-286.22
-279.34
-247.25
-197.23
-140.38
-85.26
-35.04
11.60
58.22
108.20
166.60
233.62
303.07
365.61
413.20
440.94
447.08
433.25
381.70
294.95
197.44
115.59
58.39
20.66
-5.45
-24.43
-37.24
-43.87
-41.86
-32.84
-22.91
-18.46
-21.77
-30.58
-40.78
-49.30
-55.44
-57.65
-56.17
-52.59
-47.40
-38.74
-24.38
-4.90
16.24
33.64
44.64
48.56
45.90
37.85
25.89
11.23
-5.35
-22.45
-37.28
-45.30
-43.35
-31.85
-14.75
2.48
15.39
21.49
21.13
16.67
11.39
7.70
6.39
7.04
7.61
7.61
7.12
6.59
6.28
6.21
6.07
5.56
4.53
3.17
2.09
1.67
1.96
2.71
3.58
4.29
4.75
4.96
4.80
4.18
2.78
0.42
-2.83
-6.55
-10.11
-12.87
-14.37
-14.43
-13.08
-10.68
-7.77
-4.93
-2.61
-0.91
0.45
2.06
4.53
8.26
13.08
18.24
22.67
25.33
25.55
23.26
18.97
13.53
7.90
2.78
-1.52
-5.21
-8.92
-13.44
-19.27
-26.22
-33.35
-39.19
-42.43
-42.64
-40.61
-38.18
-37.41
-39.46
-44.01
-49.30
-52.79
-52.30
-46.93
-37.85
-28.17
-22.08
-23.29
-33.79
-53.21
-78.81
-106.45
-131.68
-150.82
-161.24
-161.55
-150.80
-128.88
-96.95
-57.42
-13.11
33.92
83.02
134.27
187.00
238.86
284.66
317.24
330.13
320.62
290.84
246.35
192.88
133.88
71.70
8.50
-51.97
-103.43
-138.53
-152.00
-143.80
-120.08
-90.68
-63.06
-40.61
-23.16
-8.16
7.18
24.67
44.95
67.34
81.61
80.93
66.75
47.00
28.65
13.95
2.13
-7.89
-17.14
-23.99
-25.52
-18.05
-0.34
25.08
51.84
72.23
80.83
75.87
54.72
22.62
-12.57
-47.06
-74.37
-90.93
-102.08
-111.75
-122.22
-133.78
-143.32
-147.63
-144.98
-135.20
-118.81
-99.10
-81.23
-70.75
-70.74
-78.57
-88.56
-94.06
-89.32
-69.21
-34.32
9.50
54.40
94.47
129.23
160.26
190.02
221.02
258.45
303.26
350.87
393.72
424.56
440.33
439.70
423.71
371.67
286.48
193.12
116.77
68.32
35.10
9.37
-12.82
-31.90
-48.79
-61.68
-72.25
-85.65
-106.63
-136.46
-171.16
-206.30
-238.37
-265.50
-284.17
-293.97
-297.90
-299.43
-299.95
-297.21
-288.78
-273.06
-249.87
-218.53
-180.99
-141.78
-105.42
-73.93
-45.17
-15.02
20.90
65.39
119.22
179.18
238.75
290.45
328.30
349.36
353.02
340.46
314.25
278.38
237.20
194.73
153.85
115.54
78.84
41.51
1.68
-40.55
-82.28
-118.68
-144.75
-157.37
-156.57
-145.47
-129.24
-113.59
-103.41
-102.04
-110.94
-129.43
-154.82
-182.89
-209.08
-230.01
-244.67
-254.44
-262.02
-269.49
-276.94
-282.15
-281.59
-272.12
-252.43
-223.64
-188.42
-149.68
-109.06
-66.08
-18.52
36.47
100.51
171.41
242.02
301.33
337.24
340.42
307.51
243.09
159.23
72.66
-0.23
-48.47
-69.98
-72.02
-68.01
-71.84
-91.87
-126.65
-165.01
-191.88
-194.80
-168.47
-116.15
-47.19
26.85
94.61
148.32
186.18
209.25
220.57
225.02
227.84
232.79
240.73
247.02
245.55
234.50
211.85
175.09
123.78
60.46
-8.54
-74.04
-129.31
-168.90
-184.88
-176.93
-152.20
-119.97
-88.15
-61.84
-44.24
-41.91
-59.36
-90.13
-128.42
-170.71
-214.14
-256.28
-295.05
-303.40
-267.56
-232.60
-212.46
-192.77
-166.09
-128.78
-79.73
-19.65
47.38
110.57
160.10
194.56
208.63
212.39
217.28
226.07
242.37
267.74
297.67
325.63
349.58
363.80
360.56
333.97
284.20
219.51
152.72
95.50
57.04
45.30
60.02
93.02
130.60
158.54
166.74
150.49
110.12
51.29
-15.78
-81.94
-141.18
-191.67
-234.24
-270.68
-303.57
-335.69
-368.66
-401.00
-428.26
-443.62
-440.47
-414.72
-366.60
-301.45
-228.02
-155.38
-90.17
-35.48
9.00
45.44
76.86
106.76
138.92
177.12
224.19
280.45
342.15
401.19
446.59
468.16
460.25
423.91
366.60
299.36
232.86
174.00
124.83
83.59
47.83
16.27
-10.89
-32.87
-49.44
-61.58
-71.49
-81.74
-95.13
-112.44
-132.73
-154.27
-175.13
-193.49
-208.12
-218.73
-225.96
-231.94
-237.11
-241.08
-244.16
-247.98
-254.94
-266.84
-283.04
-299.45
-310.40
-307.31
-283.79
-239.49
-180.22
-115.05
-52.56
1.95
54.21
99.86
133.11
151.61
157.00
152.86
143.14
131.91
122.98
118.85
119.39
124.79
134.60
147.37
161.95
178.35
197.71
222.27
254.50
284.66
308.17
324.20
333.52
336.56
331.49
314.69
283.94
240.53
189.17
139.39
101.06
75.91
63.23
59.92
61.43
64.30
66.57
66.86
65.23
60.90
51.79
35.30
14.32
-9.44
-33.94
-57.39
-79.23
-99.53
-119.92
-142.99
-170.80
-204.06
-241.65
-279.14
-309.98
-328.05
-329.77
-316.10
-291.46
-262.19
-234.70
-213.90
-201.68
-197.70
-201.31
-212.34
-230.69
-253.57
-276.35
-294.63
-306.30
-311.59
-312.63
-311.87
-310.12
-305.30
-291.05
-261.76
-216.99
-161.76
-103.16
-46.97
4.00
49.77
91.72
133.85
178.55
224.52
268.50
308.35
343.75
374.98
401.73
405.07
373.80
314.47
244.82
178.88
121.16
70.53
24.73
-16.86
-52.55
-78.63
-91.37
-90.82
-79.09
-59.46
-34.96
-7.72
22.09
52.13
82.35
110.99
132.68
144.01
144.95
139.65
134.34
134.47
141.26
152.17
160.82
160.38
151.56
140.52
134.95
139.64
155.32
179.55
209.91
244.47
263.31
254.27
218.86
169.39
116.39
63.92
13.13
-33.91
-72.89
-104.77
-127.09
-138.93
-143.25
-146.25
-154.37
-171.74
-195.04
-219.43
-238.80
-244.56
-231.25
-199.52
-156.43
-112.43
-77.65
-58.36
-55.65
-65.29
-77.92
-84.74
-81.41
-69.19
-52.75
-37.04
-24.09
-12.77
-0.30
16.15
36.52
57.34
73.11
79.36
74.10
59.25
39.14
18.04
-1.21
-17.17
-29.14
-37.52
-43.53
-49.52
-57.17
-66.46
-76.18
-84.55
-89.13
-87.37
-78.37
-59.96
-36.02
-14.77
1.37
18.47
42.38
72.16
104.38
133.24
152.39
156.38
143.53
116.81
82.03
45.82
14.57
-6.85
-17.36
-19.81
-19.89
-22.61
-29.78
-40.30
-51.61
-61.18
-67.70
-72.23
-77.14
-84.40
-93.65
-101.95
-105.99
-104.17
-97.13
-87.17
-77.35
-70.13
-66.49
-65.50
-64.89
-62.51
-57.35
-49.96
-41.87
-34.97
-30.46
-28.04
-25.92
-21.54
-13.04
-0.39
14.36
27.79
36.64
39.26
36.60
31.82
28.93
30.92
38.40
49.33
59.97
66.70
67.65
63.45
56.89
51.68
51.05
56.83
69.22
86.96
107.86
129.24
148.42
162.99
171.34
172.98
168.67
160.21
149.83
139.61
131.01
124.67
120.44
117.67
115.61
113.78
112.08
110.59
109.34
108.13
106.46
103.47
98.26
90.26
79.59
66.98
53.15
38.60
23.68
8.85
-5.44
-19.00
-31.72
-43.34
-53.54
-61.81
-66.62
-64.47
-50.59
-21.59
21.17
70.63
115.90
145.45
150.73
129.30
85.76
29.35
-30.38
-86.89
-135.94
-173.19
-194.09
-196.23
-181.90
-158.19
-135.02
-122.25
-126.89
-149.68
-184.86
-215.89
-225.80
-209.66
-177.65
-144.20
-117.12
-97.79
-86.82
-79.63
-74.20
-72.35
-78.97
-97.78
-129.25
-166.64
-203.12
-231.78
-246.55
-244.05
-225.22
-195.75
-161.61
-126.57
-91.60
-57.51
-25.25
-0.38
12.91
20.40
25.93
32.46
39.30
48.20
60.64
78.22
102.61
134.62
173.09
213.33
250.27
280.15
301.56
313.29
313.72
300.52
272.26
230.35
180.05
131.69
97.49
86.85
101.69
136.68
182.78
232.16
280.42
325.11
363.55
390.61
399.65
384.93
345.73
287.56
220.40
154.42
95.56
44.69
-0.95
-44.90
-89.36
-134.51
-179.78
-225.19
-271.97
-322.14
-376.78
-434.91
-493.21
-546.99
-591.53
-623.23
-639.99
-641.12
-626.92
-598.57
-558.04
-508.13
-452.08
-393.02
-333.39
-274.74
-217.84
-163.08
-110.61
-60.28
-11.22
38.24
90.02
145.39
203.90
262.72
316.96
361.03
390.56
403.91
402.67
390.82
372.94
352.45
330.75
307.36
281.00
250.63
216.03
178.02
138.13
98.43
61.29
29.14
4.04
-12.87
-21.76
-24.23
-23.01
-21.33
-22.26
-28.05
-39.89
-57.74
-80.32
-105.31
-129.56
-149.35
-160.92
-161.16
-148.59
-124.31
-92.14
-57.84
-27.33
-4.91
7.98
12.85
13.00
11.85
11.50
12.41
13.93
15.34
16.66
18.56
21.94
27.01
33.03
38.50
41.90
42.49
40.69
37.97
36.12
36.35
38.81
42.58
46.24
48.54
48.86
47.28
44.35
40.63
36.55
32.23
27.74
23.22
18.98
15.41
12.91
11.69
11.77
13.00
15.11
17.79
20.80
23.89
26.82
29.25
30.82
31.14
29.96
27.27
23.33
18.64
13.74
9.14
5.19
2.13
0.05
-1.04
-1.33
-1.17
-1.07
-1.52
-2.84
-5.01
-7.76
-10.71
-13.58
-16.31
-18.84
-20.97
-22.08
-21.11
-16.93
-8.80
3.09
17.47
32.31
45.44
55.32
61.44
64.32
65.11
64.91
64.46
64.02
63.53
62.73
60.91
56.77
48.68
35.56
18.01
-1.13
-17.33
-26.24
-25.65
-16.74
-3.41
9.69
19.46
25.43
29.17
32.45
35.65
37.31
35.08
27.30
14.24
-1.85
-17.67
-30.12
-37.30
-38.77
-35.31
-28.31
-19.28
-9.53
-0.13
8.13
14.72
19.32
21.73
21.95
20.12
16.50
11.41
5.15
-1.89
-9.23
-16.25
-22.31
-26.93
-29.97
-31.74
-32.88
-34.09
-35.77
-37.78
-39.56
-40.25
-39.03
-35.37
-29.29
-21.62
-14.37
-10.73
-14.46
-28.36
-52.51
-83.12
-113.08
-134.05
-139.64
-127.84
-101.67
-67.66
-33.06
-3.22
19.54
35.43
45.72
51.42
52.87
50.12
43.73
34.97
25.62
17.22
10.47
5.09
0.03
-5.90
-13.40
-22.47
-32.44
-42.36
-51.42
-59.26
-66.08
-72.42
-78.90
-85.82
-92.96
-99.67
-105.30
-109.53
-112.46
-114.18
-114.06
-110.41
-100.87
-83.51
-58.12
-26.84
6.36
37.09
62.17
80.61
93.45
102.65
109.91
116.05
121.07
124.77
127.31
129.28
131.40
134.12
137.28
140.23
142.18
142.60
141.55
139.67
137.69
135.94
133.85
129.89
122.13
109.19
90.99
68.86
45.07
21.85
0.65
-18.20
-34.99
-50.14
-63.67
-75.22
-84.29
-90.62
-94.32
-95.72
-95.18
-93.01
-89.57
-85.43
-81.42
-78.39
-76.94
-77.07
-78.05
-78.83
-78.41
-76.46
-73.52
-70.74
-69.30
-69.72
-71.57
-73.65
-74.70
-74.09
-72.16
-70.03
-68.96
-69.85
-72.98
-78.10
-84.48
-90.77
-94.75
-93.51
-84.33
-66.10
-40.44
-11.70
14.54
33.85
44.79
49.30
51.24
54.11
59.30
65.79
71.27
73.83
73.04
69.98
66.25
62.99
60.27
57.38
53.47
48.22
42.07
36.02
31.09
27.82
26.00
24.83
23.32
20.82
17.37
13.76
11.09
10.21
11.42
14.28
17.89
21.33
24.04
25.94
27.28
28.35
29.24
29.70
29.34
27.89
25.34
21.98
18.24
14.55
11.10
7.90
4.82
1.77
-1.19
-3.91
-6.17
-7.80
-8.79
-9.27
-9.59
-10.18
-11.48
-13.75
-16.91
-20.53
-23.85
-26.05
-26.42
-24.64
-20.80
-15.39
-9.03
-2.37
4.15
10.19
15.55
20.02
23.37
25.51
26.52
26.75
26.73
26.99
27.81
29.12
30.51
31.55
31.89
31.52
30.77
30.13
30.06
30.79
32.25
34.04
35.56
36.19
35.52
33.49
30.65
28.05
27.06
28.86
33.88
41.23
48.43
51.75
47.26
32.23
6.37
-27.84
-65.74
-102.03
-132.29
-154.02
-166.83
-171.93
-171.29
-167.01
-161.02
-154.94
-149.76
-145.55
-141.20
-134.57
-123.32
-105.89
-82.29
-54.24
-24.58
3.63
28.06
47.44
61.51
70.49
74.57
73.93
68.95
60.57
50.36
40.21
31.71
25.58
21.59
18.86
16.63
14.90
14.52
16.78
22.53
31.54
42.38
52.98
61.54
67.31
70.69
72.89
75.15
78.20
81.98
85.94
89.35
91.66
92.52
91.67
88.97
84.58
79.19
74.07
70.71
70.26
72.83
77.25
81.45
83.34
81.94
78.03
73.98
72.69
76.16
84.41
95.38
105.90
113.10
115.61
113.67
108.46
100.86
90.69
76.71
57.31
31.41
-0.83
-37.96
-77.36
-115.74
-149.63
-176.09
-193.34
-201.29
-201.52
-196.66
-189.45
-181.82
-174.43
-167.04
-158.99
-150.02
-140.49
-131.39
-123.88
-118.82
-116.42
-116.16
-117.00
-117.98
-118.68
-119.57
-121.72
-126.26
-133.71
-143.78
-155.65
-168.32
-180.65
-191.14
-197.43
-196.54
-185.88
-164.78
-135.45
-102.56
-71.44
-45.73
-25.78
-8.78
9.63
33.11
62.84
97.16
132.36
164.19
189.12
205.25
212.24
211.13
203.70
191.91
177.48
161.70
145.47
129.58
114.88
102.27
92.55
86.03
82.41
80.94
80.68
80.93
81.30
81.66
81.84
81.43
79.71
75.88
69.37
60.23
49.23
37.60
26.57
16.84
8.19
-0.31
-9.86
-21.16
-33.83
-46.33
-56.45
-62.32
-63.27
-60.33
-55.70
-51.82
-50.23
-51.08
-53.31
-55.46
-56.49
-56.21
-55.08
-53.57
-51.50
-47.90
-41.37
-30.85
-16.34
1.02
19.17
36.01
50.04
60.63
67.85
72.08
73.60
72.53
69.06
63.65
57.13
50.51
44.65
39.97
36.33
33.18
29.84
25.79
20.84
15.15
9.17
3.49
-1.50
-5.69
-9.34
-13.01
-17.21
-22.29
-28.25
-34.72
-41.04
-46.42
-50.02
-51.09
-49.18
-44.22
-36.60
-27.18
-17.00
-7.04
1.99
9.73
16.09
21.02
24.42
26.16
26.21
24.80
22.39
19.67
17.24
15.44
14.31
13.62
12.99
12.10
10.74
8.84
6.43
3.64
0.67
-2.37
-5.41
-8.50
-11.78
-15.32
-19.11
-22.93
-26.37
-28.88
-29.87
-28.86
-25.60
-20.16
-12.93
-4.55
4.21
12.63
20.14
26.41
31.29
34.76
36.87
37.69
37.35
36.02
33.92
31.33
28.50
25.66
22.96
20.44
18.04
15.63
13.12
10.47
7.78
5.21
2.85
0.69
-1.43
-3.82
-6.74
-10.39
-14.77
-19.70
-24.83
-29.64
-33.45
-35.57
-35.45
-32.81
-27.82
-21.11
-13.54
-6.01
0.88
6.79
11.69
15.61
18.56
20.56
21.61
21.87
21.60
21.11
20.63
20.25
19.85
19.23
18.18
16.59
14.42
11.77
8.78
5.63
2.46
-0.62
-3.65
-6.75
-10.11
-13.91
-18.21
-22.89
-27.71
-32.21
-35.82
-37.90
-37.94
-35.64
-31.07
-24.66
-17.09
-9.16
-1.57
5.19
10.81
15.14
18.08
19.62
19.83
18.91
17.22
15.18
13.17
11.44
10.02
8.79
7.59
6.27
4.79
3.15
1.40
-0.48
-2.47
-4.53
-6.57
-8.46
-10.17
-11.77
-13.46
-15.52
-18.10
-21.15
-24.31
-26.99
-28.48
-28.21
-25.87
-21.50
-15.51
-8.52
-1.32
5.37
10.99
15.18
17.85
19.10
19.16
18.28
16.71
14.69
12.50
10.44
8.83
7.79
7.27
6.98
6.51
5.51
3.86
1.65
-0.83
-3.24
-5.38
-7.22
-8.94
-10.83
-13.16
-16.06
-19.42
-22.94
-26.14
-28.42
-29.24
-28.19
-25.09
-20.08
-13.65
-6.53
0.48
6.67
11.60
15.14
17.36
18.42
18.46
17.60
15.97
13.83
11.59
9.64
8.31
7.69
7.60
7.71
7.62
7.06
5.96
4.41
2.58
0.63
-1.32
-3.29
-5.36
-7.64
-10.22
-13.12
-16.24
-19.35
-22.06
-23.88
-24.29
-22.86
-19.42
-14.09
-7.31
0.18
7.56
14.12
19.38
23.18
25.62
26.91
27.23
26.73
25.54
23.83
21.84
19.88
18.22
17.01
16.20
15.58
14.88
13.87
12.47
10.69
8.56
6.07
3.15
-0.31
-4.28
-8.62
-13.02
-17.20
-20.96
-24.41
-27.78
-31.40
-35.41
-39.66
-43.67
-46.79
-48.29
-47.59
-44.38
-38.69
-30.93
-21.77
-12.06
-2.66
5.75
12.68
17.94
21.51
23.59
24.48
24.57
24.22
23.76
23.39
23.19
23.12
23.06
22.86
22.37
21.47
20.12
18.36
16.30
14.04
11.67
9.18
6.56
3.78
0.91
-1.98
-4.82
-7.65
-10.61
-13.90
-17.67
-21.98
-26.67
-31.37
-35.55
-38.55
-39.77
-38.73
-35.23
-29.43
-21.85
-13.20
-4.27
4.25
11.86
18.27
23.35
27.10
29.56
30.82
31.05
30.48
29.41
28.17
27.03
26.17
25.59
25.15
24.62
23.79
22.56
20.98
19.19
17.25
15.13
12.66
9.68
6.15
2.24
-1.74
-5.48
-8.81
-11.79
-14.68
-17.77
-21.28
-25.29
-29.64
-33.98
-37.82
-40.58
-41.69
-40.75
-37.58
-32.31
-25.31
-17.13
-8.35
0.45
8.75
16.14
22.28
26.99
30.23
32.21
33.35
34.16
35.12
36.46
38.11
39.74
40.99
41.67
41.90
42.07
42.71
44.18
46.53
49.46
52.45
54.88
56.21
56.11
54.62
52.19
49.64
48.00
48.25
50.96
55.94
62.09
67.72
71.12
71.41
69.16
66.35
65.54
68.50
75.01
82.48
86.69
83.33
69.50
44.44
9.48
-32.66
-78.39
-123.59
-163.75
-194.62
-213.12
-218.52
-213.08
-201.59
-189.95
-183.18
-183.78
-191.21
-202.58
-214.23
-223.18
-228.06
-228.89
-226.26
-220.36
-210.50
-195.34
-173.64
-144.86
-109.34
-68.18
-23.06
23.57
68.13
105.83
131.51
141.26
134.12
112.78
82.87
51.17
23.54
3.60
-7.48
-10.31
-6.47
2.17
13.69
26.11
37.56
46.46
51.89
53.70
52.58
49.74
46.58
44.20
43.14
43.29
44.11
45.35
47.57
52.32
61.42
75.85
94.77
115.33
133.54
145.96
151.15
150.13
145.67
140.71
136.95
134.36
131.67
127.72
122.39
116.86
113.02
112.57
116.29
123.95
134.52
146.64
158.87
169.86
178.53
184.25
186.95
187.04
185.02
181.03
174.45
163.89
147.63
124.61
95.22
61.71
27.47
-4.14
-31.15
-53.71
-73.69
-93.37
-113.92
-134.54
-152.74
-165.81
-172.44
-173.66
-172.45
-172.05
-174.26
-178.49
-182.25
-182.59
-177.79
-168.34
-156.67
-146.01
-139.00
-136.68
-138.38
-142.29
-146.31
-148.64
-148.04
-143.89
-136.31
-126.34
-116.06
-108.11
-104.70
-106.33
-111.17
-115.53
-115.35
-108.09
-93.83
-75.12
-55.59
-38.16
-24.00
-12.59
-2.77
6.13
13.76
19.19
21.77
21.87
20.90
20.71
22.62
26.84
32.35
37.38
40.25
40.05
37.00
32.28
27.47
23.91
22.18
22.04
22.57
22.67
21.54
18.85
14.74
9.54
3.48
-3.42
-11.25
-19.93
-29.02
-37.66
-44.76
-49.29
-50.61
-48.70
-44.07
-37.58
-30.25
-22.97
-16.52
-11.49
-8.29
-7.12
-7.86
-10.08
-13.07
-15.96
-18.00
-18.67
-17.76
-15.25
-11.15
-5.42
2.06
11.25
21.76
32.75
42.99
51.23
56.51
58.52
57.67
54.92
51.38
47.89
44.82
42.02
39.09
35.63
31.41
26.45
20.81
14.60
7.86
0.76
-6.28
-12.47
-16.87
-18.61
-17.32
-13.24
-7.17
-0.21
6.67
12.76
17.80
21.85
25.11
27.78
29.93
31.58
32.71
33.36
33.63
33.62
33.34
32.74
31.73
30.27
28.46
26.40
24.14
21.60
18.63
15.10
11.00
6.52
1.88
-2.69
-7.10
-11.43
-15.79
-20.30
-24.94
-29.59
-34.06
-38.11
-41.43
-43.63
-44.30
-42.99
-39.46
-33.77
-26.36
-18.05
-9.85
-2.61
3.18
7.52
10.81
13.55
16.10
18.52
20.63
22.22
23.25
23.92
24.47
25.09
25.72
26.12
25.99
25.14
23.60
21.51
19.08
16.40
13.43
10.08
6.30
2.20
-2.06
-6.29
-10.46
-14.70
-19.20
-23.98
-28.74
-32.84
-35.47
-35.94
-33.94
-29.63
-23.55
-16.41
-8.85
-1.37
5.66
11.96
17.32
21.59
24.77
26.96
28.29
28.94
28.97
28.47
27.55
26.37
25.15
24.09
23.24
22.51
21.66
20.47
18.82
16.74
14.36
11.80
9.10
6.24
3.12
-0.27
-3.96
-7.96
-12.36
-17.32
-22.91
-28.98
-34.93
-39.89
-42.84
-43.02
-40.12
-34.44
-26.73
-17.95
-9.04
-0.68
6.70
12.86
17.75
21.38
23.87
25.41
26.26
26.69
26.90
27.00
27.00
26.80
26.27
25.30
23.86
22.00
19.79
17.31
14.65
11.87
8.96
5.94
2.77
-0.58
-4.08
-7.69
-11.32
-14.94
-18.62
-22.53
-26.81
-31.39
-35.87
-39.47
-41.32
-40.69
-37.32
-31.54
-24.06
-15.78
-7.41
0.57
7.87
14.30
19.65
23.68
26.26
27.48
27.65
27.26
26.77
26.52
26.56
26.73
26.77
26.41
25.55
24.20
22.49
20.53
18.39
15.98
13.15
9.78
5.83
1.45
-3.05
-7.35
-11.17
-14.43
-17.27
-19.97
-22.87
-26.17
-29.85
-33.65
-37.00
-39.22
-39.55
-37.37
-32.38
-24.76
-15.29
-5.19
4.20
11.81
17.19
20.57
22.66
24.21
25.74
27.34
28.85
30.05
30.90
31.45
31.85
32.17
32.37
32.34
32.03
31.39
30.44
29.11
27.30
24.89
21.83
18.16
14.03
9.67
5.33
1.16
-2.78
-6.58
-10.43
-14.55
-19.03
-23.69
-28.04
-31.37
-32.93
-32.20
-29.00
-23.54
-16.42
-8.45
-0.52
6.56
12.19
16.08
18.27
19.05
18.81
17.91
16.59
14.97
13.14
11.18
9.29
7.61
6.24
5.17
4.25
3.36
2.38
1.25
-0.12
-1.82
-3.97
-6.68
-9.92
-13.50
-17.13
-20.54
-23.66
-26.63
-29.77
-33.39
-37.50
-41.69
-45.20
-47.09
-46.58
-43.29
-37.40
-29.52
-20.61
-11.58
-3.20
4.03
9.91
14.35
17.39
19.17
19.90
19.87
19.42
18.86
18.40
18.11
17.95
17.79
17.55
17.24
16.86
16.41
15.78
14.79
13.25
10.98
7.96
4.23
-0.04
-4.66
-9.43
-14.28
-19.19
-24.25
-29.54
-35.04
-40.56
-45.71
-49.94
-52.57
-52.99
-50.76
-45.83
-38.50
-29.45
-19.56
-9.70
-0.61
7.22
13.55
18.36
21.76
23.97
25.22
25.82
26.07
26.19
26.32
26.52
26.77
27.02
27.21
27.33
27.32
27.10
26.52
25.42
23.64
21.10
17.87
14.08
9.91
5.50
0.95
-3.72
-8.52
-13.51
-18.75
-24.29
-30.05
-35.76
-40.92
-44.83
-46.76
-46.11
-42.63
-36.48
-28.28
-18.87
-9.17
-0.01
8.09
14.89
20.38
24.64
27.76
29.82
30.94
31.35
31.42
31.52
31.90
32.54
33.18
33.46
33.07
31.96
30.26
28.25
26.17
24.10
22.02
19.86
17.56
15.13
12.65
10.16
7.60
4.84
1.64
-2.24
-6.92
-12.29
-17.95
-23.16
-26.97
-28.50
-27.17
-22.90
-16.16
-7.85
0.96
9.26
16.40
21.99
25.96
28.41
29.44
29.18
27.79
25.57
22.90
20.24
17.98
16.34
15.34
14.77
14.38
13.89
13.16
12.06
10.52
8.44
5.77
2.52
-1.20
-5.21
-9.27
-13.26
-17.18
-21.11
-25.24
-29.75
-34.72
-40.08
-45.46
-50.25
-53.61
-54.70
-52.92
-48.09
-40.59
-31.19
-20.91
-10.72
-1.39
6.60
13.01
17.75
20.88
22.57
23.07
22.76
22.03
21.25
20.65
20.31
20.15
19.97
19.60
18.91
17.88
16.54
14.89
12.89
10.45
7.50
4.06
0.25
-3.73
-7.69
-11.53
-15.29
-19.11
-23.21
-27.81
-32.98
-38.65
-44.46
-49.80
-53.83
-55.63
-54.51
-50.16
-42.82
-33.29
-22.65
-12.01
-2.23
6.20
13.09
18.49
22.45
25.02
26.28
26.42
25.81
24.91
24.19
23.90
24.05
24.39
24.57
24.26
23.29
21.68
19.65
17.43
15.18
12.83
10.21
7.11
3.45
-0.60
-4.74
-8.65
-12.19
-15.49
-18.91
-22.87
-27.63
-33.19
-39.18
-44.90
-49.42
-51.77
-51.17
-47.26
-40.25
-30.91
-20.38
-9.87
-0.32
7.72
14.11
18.97
22.49
24.87
26.33
27.17
27.75
28.43
29.44
30.78
32.23
33.48
34.24
34.40
33.99
33.15
32.01
30.58
28.85
26.73
24.17
21.19
17.86
14.29
10.59
6.82
2.98
-0.96
-5.09
-9.49
-14.26
-19.40
-24.71
-29.75
-33.78
-35.89
-35.29
-31.54
-24.79
-15.81
-5.71
4.41
13.67
21.59
27.98
32.73
35.73
36.88
36.21
34.09
31.17
28.26
26.02
24.76
24.39
24.49
24.55
24.12
22.94
20.96
18.27
15.07
11.60
8.04
4.49
0.94
-2.75
-6.78
-11.32
-16.44
-22.08
-28.09
-34.23
-40.17
-45.45
-49.50
-51.59
-51.09
-47.62
-41.24
-32.57
-22.60
-12.50
-3.25
4.52
10.57
15.01
18.05
19.96
20.97
21.27
21.06
20.53
19.86
19.13
18.39
17.61
16.76
15.85
14.88
13.81
12.54
10.90
8.71
5.86
2.37
-1.59
-5.72
-9.70
-13.35
-16.66
-19.86
-23.34
-27.46
-32.36
-37.85
-43.31
-47.86
-50.50
-50.43
-47.20
-40.88
-32.02
-21.53
-10.46
0.21
9.70
17.52
23.42
27.39
29.62
30.43
30.25
29.53
28.70
27.99
27.46
26.98
26.37
25.55
24.48
23.26
21.94
20.52
18.86
16.80
14.19
10.95
7.14
2.86
-1.71
-6.41
-11.06
-15.57
-19.96
-24.38
-29.16
-34.58
-40.79
-47.50
-53.97
-59.12
-61.84
-61.32
-57.29
-50.16
-40.74
-30.09
-19.25
-9.07
-0.15
7.11
12.50
15.99
17.74
18.06
17.46
16.48
15.64
15.32
15.67
16.60
17.83
19.00
19.81
20.08
19.81
19.10
18.08
16.81
15.25
13.28
10.79
7.79
4.42
0.94
-2.31
-5.15
-7.53
-9.66
-11.89
-14.63
-18.19
-22.65
-27.78
-33.00
-37.47
-40.21
-40.38
-37.43
-31.37
-22.73
-12.52
-1.90
8.01
16.42
22.91
27.48
30.33
31.80
32.27
32.04
31.44
30.76
30.23
29.97
29.90
29.86
29.61
29.05
28.21
27.23
26.23
25.20
23.95
22.19
19.70
16.46
12.67
8.68
4.80
1.18
-2.16
-5.35
-8.54
-11.90
-15.57
-19.62
-23.95
-28.21
-31.79
-33.82
-33.45
-30.08
-23.61
-14.57
-3.98
6.91
16.95
25.33
31.66
35.89
38.09
38.42
37.04
34.14
30.12
25.48
20.79
16.49
12.78
9.65
6.92
4.45
2.17
0.11
-1.67
-3.23
-4.73
-6.39
-8.41
-10.85
-13.67
-16.74
-19.88
-23.01
-26.16
-29.47
-33.19
-37.53
-42.54
-47.95
-53.08
-56.97
-58.57
-57.06
-52.12
-44.07
-33.70
-22.13
-10.48
0.31
9.56
16.87
22.09
25.34
26.96
27.42
27.24
26.86
26.54
26.33
26.13
25.78
25.12
24.13
22.80
21.23
19.43
17.36
14.97
12.19
9.01
5.47
1.65
-2.32
-6.35
-10.32
-14.17
-17.90
-21.65
-25.65
-30.18
-35.38
-41.05
-46.61
-51.12
-53.53
-53.01
-49.15
-42.22
-33.01
-22.67
-12.40
-3.18
4.39
10.11
14.04
16.41
17.50
17.63
17.11
16.28
15.44
14.79
14.33
13.92
13.26
12.16
10.58
8.69
6.78
5.01
3.31
1.42
-1.03
-4.25
-8.12
-12.26
-16.18
-19.48
-21.95
-23.69
-24.95
-26.12
-27.59
-29.63
-32.29
-35.25
-37.80
-38.96
-37.84
-33.98
-27.59
-19.52
-10.92
-2.82
4.19
10.08
15.18
19.97
24.78
29.80
34.97
40.19
45.26
49.96
53.99
57.02
58.78
59.16
58.28
56.37
53.73
50.60
47.12
43.36
39.32
34.99
30.32
25.28
19.88
14.27
8.68
3.35
-1.61
-6.31
-11.09
-16.30
-22.05
-28.05
-33.57
-37.54
-38.90
-36.88
-31.30
-22.64
-11.92
-0.47
10.41
19.73
26.90
31.73
34.31
34.86
33.73
31.30
28.08
24.63
21.50
19.13
17.70
17.16
17.21
17.46
17.47
16.89
15.49
13.15
9.89
5.87
1.34
-3.40
-8.11
-12.61
-16.89
-21.08
-25.37
-29.95
-34.84
-39.90
-44.67
-48.52
-50.65
-50.31
-47.03
-40.72
-31.88
-21.46
-10.68
-0.69
7.71
14.19
18.84
21.92
23.70
24.38
24.08
22.97
21.34
19.55
17.91
16.53
15.34
14.13
12.70
10.95
8.90
6.63
4.20
1.57
-1.30
-4.47
-7.92
-11.59
-15.43
-19.46
-23.80
-28.58
-33.90
-39.65
-45.49
-50.84
-54.96
-57.05
-56.43
-52.72
-45.96
-36.68
-25.82
-14.50
-3.78
5.59
13.20
18.96
22.95
25.36
26.41
26.41
25.72
24.79
23.94
23.34
22.95
22.55
21.97
21.04
19.75
18.15
16.28
14.15
11.70
8.85
5.54
1.80
-2.32
-6.70
-11.21
-15.75
-20.31
-24.99
-29.99
-35.41
-41.19
-46.88
-51.71
-54.68
-54.89
-51.80
-45.41
-36.28
-25.40
-13.92
-2.96
6.67
14.52
20.47
24.71
27.54
29.30
30.30
30.81
31.06
31.28
31.64
32.27
33.11
33.97
34.60
34.71
34.15
32.91
31.05
28.65
25.76
22.33
18.34
13.78
8.72
3.31
-2.23
-7.76
-13.22
-18.65
-24.17
-29.85
-35.57
-40.96
-45.27
-47.59
-47.03
-43.03
-35.59
-25.35
-13.45
-1.18
10.27
20.06
27.69
32.98
35.97
36.93
36.27
34.57
32.49
30.63
29.40
28.89
28.99
29.39
29.76
29.80
29.37
28.37
26.78
24.64
22.01
18.96
15.57
11.89
7.96
3.79
-0.63
-5.30
-10.24
-15.52
-21.24
-27.40
-33.82
-39.96
-44.93
-47.72
-47.43
-43.64
-36.57
-27.06
-16.35
-5.70
3.87
11.80
17.92
22.35
25.32
26.99
27.52
27.06
25.79
23.99
21.98
20.10
18.57
17.50
16.84
16.42
15.99
15.25
13.92
11.82
8.89
5.22
1.03
-3.43
-7.96
-12.44
-16.87
-21.37
-26.10
-31.23
-36.80
-42.58
-48.03
-52.33
-54.53
-53.82
-49.81
-42.70
-33.23
-22.49
-11.65
-1.70
6.71
13.34
18.22
21.55
23.61
24.64
24.90
24.58
23.92
23.07
22.19
21.38
20.69
20.14
19.74
19.43
19.07
18.42
17.22
15.23
12.36
8.68
4.39
-0.24
-5.05
-9.93
-14.90
-20.04
-25.45
-31.22
-37.40
-43.89
-50.29
-55.87
-59.58
-60.32
-57.38
-50.66
-40.89
-29.39
-17.62
-6.78
2.48
10.00
15.96
20.50
23.71
25.61
26.28
26.00
25.19
24.31
23.64
23.29
23.12
22.97
22.67
22.13
21.37
20.44
19.42
18.34
17.14
15.65
13.65
10.87
7.18
2.71
-2.25
-7.20
-11.71
-15.60
-18.98
-22.25
-25.90
-30.32
-35.55
-41.24
-46.61
-50.66
-52.39
-51.06
-46.39
-38.65
-28.65
-17.48
-6.30
3.92
12.51
19.24
24.18
27.60
29.89
31.39
32.36
32.99
33.46
33.90
34.47
35.22
36.04
36.73
36.99
36.60
35.52
33.94
32.14
30.30
28.36
25.97
22.61
17.90
11.75
4.55
-3.00
-10.11
-16.23
-21.18
-25.21
-28.82
-32.54
-36.63
-40.98
-45.07
-48.11
-49.25
-47.83
-43.56
-36.57
-27.40
-16.92
-6.18
3.79
12.10
18.25
22.08
23.89
24.19
23.58
22.57
21.47
20.39
19.35
18.35
17.42
16.61
15.93
15.33
14.73
14.04
13.22
12.24
11.16
9.97
8.69
7.29
5.73
4.00
2.11
0.07
-2.13
-4.57
-7.44
-10.96
-15.26
-20.28
-25.59
-30.43
-33.84
-34.89
-33.01
-28.11
-20.69
-11.62
-1.97
7.28
15.37
21.89
26.70
29.89
31.62
32.14
31.72
30.63
29.20
27.69
26.30
25.14
24.20
23.43
22.75
22.11
21.42
20.55
19.32
17.53
15.05
11.90
8.27
4.45
0.77
-2.49
-5.25
-7.58
-9.72
-12.01
-14.84
-18.50
-23.06
-28.26
-33.44
-37.61
-39.67
-38.67
-34.20
-26.57
-16.81
-6.35
3.37
11.34
17.17
21.05
23.43
24.75
25.33
25.37
25.05
24.63
24.38
24.39
24.55
24.44
23.63
21.84
19.11
15.75
12.22
8.86
5.84
3.10
0.46
-2.29
-5.25
-8.44
-11.78
-15.16
-18.49
-21.73
-24.93
-28.20
-31.75
-35.76
-40.33
-45.34
-50.44
-55.00
-58.20
-59.22
-57.38
-52.32
-44.16
-33.46
-21.18
-8.50
3.45
13.80
22.08
28.30
32.75
35.83
37.86
39.03
39.38
39.02
38.12
36.99
35.86
34.83
33.81
32.58
30.97
28.96
26.70
24.41
22.26
20.22
18.07
15.50
12.24
8.20
3.50
-1.60
-6.80
-11.85
-16.62
-21.20
-25.77
-30.62
-36.00
-42.04
-48.59
-55.22
-61.18
-65.55
-67.44
-66.16
-61.49
-53.65
-43.31
-31.40
-18.91
-6.79
4.23
13.70
21.36
27.17
31.16
33.47
34.26
33.85
32.63
31.10
29.74
28.86
28.57
28.70
28.93
28.89
28.34
27.23
25.63
23.72
21.61
19.31
16.70
13.58
9.81
5.36
0.40
-4.80
-9.87
-14.55
-18.74
-22.50
-26.11
-29.91
-34.24
-39.28
-44.94
-50.77
-55.96
-59.53
-60.54
-58.34
-52.79
-44.33
-33.80
-22.30
-10.90
-0.48
8.42
15.54
20.87
24.58
26.95
28.30
28.95
29.23
29.44
29.79
30.38
31.16
31.99
32.68
33.04
32.94
32.34
31.24
29.71
27.83
25.69
23.35
20.79
17.90
14.56
10.71
6.48
2.14
-1.98
-5.65
-8.90
-12.03
-15.49
-19.72
-24.96
-31.07
-37.52
-43.43
-47.81
-49.66
-48.28
-43.38
-35.25
-24.67
-12.80
-0.88
9.98
19.03
25.95
30.75
33.68
35.02
35.12
34.34
33.08
31.81
30.89
30.47
30.48
30.63
30.54
29.98
28.88
27.37
25.66
23.85
21.89
19.63
16.87
13.50
9.56
5.21
0.69
-3.81
-8.18
-12.45
-16.71
-21.17
-25.99
-31.33
-37.18
-43.30
-49.12
-53.83
-56.46
-56.20
-52.58
-45.68
-36.11
-24.90
-13.23
-2.17
7.50
15.36
21.25
25.24
27.48
28.21
27.74
26.50
25.02
23.77
23.04
22.86
22.94
22.88
22.30
21.05
19.25
17.18
15.10
13.06
10.84
8.10
4.51
0.01
-5.15
-10.51
-15.54
-19.92
-23.66
-27.04
-30.50
-34.42
-38.98
-44.12
-49.53
-54.69
-58.91
-61.37
-61.29
-58.01
-51.32
-41.52
-29.47
-16.41
-3.67
7.65
16.88
23.81
28.59
31.55
33.03
33.34
32.75
31.57
30.18
29.01
28.38
28.39
28.88
29.45
29.70
29.38
28.49
27.21
25.76
24.19
22.34
19.90
16.63
12.52
7.86
3.09
-1.43
-5.54
-9.39
-13.30
-17.65
-22.68
-28.41
-34.59
-40.72
-46.19
-50.27
-52.25
-51.58
-47.93
-41.38
-32.40
-21.84
-10.75
-0.20
8.99
16.34
21.68
25.14
26.95
27.40
26.83
25.63
24.28
23.21
22.72
22.83
23.32
23.80
23.88
23.35
22.24
20.71
18.99
17.18
15.24
13.00
10.28
7.04
3.40
-0.41
-4.17
-7.77
-11.26
-14.86
-18.85
-23.48
-28.85
-34.87
-41.13
-46.93
-51.37
-53.41
-52.24
-47.46
-39.30
-28.60
-16.63
-4.78
5.83
14.49
20.95
25.35
28.00
29.31
29.64
29.31
28.63
27.85
27.19
26.80
26.72
26.90
27.20
27.44
27.47
27.19
26.57
25.56
24.10
22.10
19.48
16.25
12.58
8.74
5.01
1.60
-1.50
-4.47
-7.64
-11.40
-16.05
-21.64
-27.84
-33.94
-38.86
-41.47
-40.82
-36.58
-29.13
-19.57
-9.33
0.17
7.94
13.60
17.22
19.19
19.91
19.68
18.73
17.29
15.64
14.08
12.88
12.15
11.85
11.78
11.68
11.34
10.58
9.29
7.42
4.95
1.90
-1.61
-5.45
-9.41
-13.31
-17.04
-20.59
-24.04
-27.62
-31.56
-36.03
-41.03
-46.25
-51.02
-54.41
-55.38
-53.08
-47.19
-38.01
-26.50
-14.03
-2.00
8.47
16.73
22.64
26.45
28.59
29.51
29.55
29.00
28.05
26.90
25.79
24.92
24.41
24.22
24.18
23.98
23.31
21.92
19.72
16.77
13.21
9.23
5.00
0.62
-3.81
-8.24
-12.63
-17.01
-21.47
-26.24
-31.55
-37.48
-43.75
-49.67
-54.16
-56.10
-54.64
-49.49
-41.07
-30.33
-18.55
-7.00
3.32
11.78
18.16
22.58
25.32
26.75
27.18
26.87
26.05
24.99
23.95
23.15
22.63
22.28
21.88
21.25
20.39
19.39
18.40
17.45
16.31
14.62
12.06
8.54
4.27
-0.30
-4.71
-8.71
-12.30
-15.80
-19.64
-24.24
-29.79
-36.19
-42.89
-49.01
-53.43
-55.10
-53.26
-47.76
-39.07
-28.17
-16.35
-4.83
5.40
13.75
19.99
24.21
26.63
27.58
27.41
26.52
25.34
24.29
23.75
23.90
24.70
25.94
27.28
28.45
29.28
29.71
29.71
29.22
28.12
26.24
23.50
19.94
15.80
11.40
7.10
3.15
-0.38
-3.67
-7.05
-10.97
-15.78
-21.52
-27.75
-33.56
-37.73
-39.07
-36.82
-30.92
-22.03
-11.36
-0.28
10.03
18.76
25.55
30.34
33.26
34.50
34.32
33.05
31.12
29.01
27.18
25.93
25.35
25.26
25.33
25.21
24.61
23.42
21.67
19.45
16.83
13.82
10.37
6.40
1.96
-2.79
-7.61
-12.24
-16.56
-20.62
-24.65
-28.98
-33.92
-39.54
-45.60
-51.46
-56.25
-58.98
-58.82
-55.28
-48.39
-38.64
-27.00
-14.63
-2.68
7.86
16.39
22.69
26.90
29.33
30.38
30.39
29.63
28.35
26.82
25.28
23.91
22.79
21.91
21.18
20.46
19.67
18.74
17.60
16.17
14.33
11.91
8.79
4.95
0.50
-4.33
-9.20
-13.83
-18.10
-22.07
-26.05
-30.38
-35.38
-41.18
-47.58
-54.04
-59.73
-63.60
-64.67
-62.24
-56.18
-47.01
-35.76
-23.70
-11.97
-1.34
7.86
15.60
21.92
26.81
30.17
31.97
32.32
31.59
30.33
29.04
28.05
27.41
26.90
26.27
25.33
24.08
22.65
21.16
19.67
18.07
16.18
13.84
11.02
7.83
4.45
1.06
-2.25
-5.47
-8.66
-11.93
-15.35
-19.04
-23.17
-27.93
-33.48
-39.66
-45.92
-51.33
-54.70
-54.96
-51.48
-44.32
-34.17
-22.19
-9.64
2.36
13.05
22.01
29.11
34.37
37.86
39.70
40.12
39.42
38.10
36.69
35.65
35.21
35.28
35.54
35.58
35.08
33.96
32.35
30.45
28.43
26.30
23.96
21.23
17.91
13.93
9.39
4.54
-0.27
-4.72
-8.64
-12.09
-15.38
-18.95
-23.22
-28.41
-34.34
-40.40
-45.65
-48.93
-49.22
-45.88
-38.86
-28.76
-16.71
-4.06
7.90
18.23
26.43
32.39
36.23
38.21
38.60
37.73
35.99
33.85
31.78
30.13
29.01
28.32
27.80
27.21
26.37
25.24
23.85
22.18
20.20
17.77
14.80
11.23
7.07
2.43
-2.49
-7.48
-12.29
-16.78
-20.92
-24.86
-28.90
-33.42
-38.64
-44.48
-50.37
-55.30
-58.09
-57.68
-53.58
-46.00
-35.81
-24.22
-12.46
-1.43
8.30
16.45
22.87
27.43
30.03
30.78
29.97
28.14
25.90
23.81
22.23
21.25
20.76
20.52
20.29
19.88
19.17
18.13
16.73
14.94
12.69
9.88
6.48
2.51
-1.86
-6.38
-10.82
-15.01
-18.96
-22.84
-26.89
-31.41
-36.60
-42.50
-48.85
-55.06
-60.22
-63.31
-63.39
-59.89
-52.81
-42.74
-30.72
-17.99
-5.72
5.21
14.31
21.44
26.71
30.33
32.55
33.58
33.63
32.98
31.94
30.81
29.87
29.22
28.84
28.52
28.02
27.15
25.81
24.07
22.06
19.88
17.55
14.90
11.71
7.75
2.98
-2.46
-8.22
-13.88
-19.12
-23.79
-27.96
-31.89
-35.89
-40.30
-45.27
-50.76
-56.39
-61.47
-65.08
-66.21
-64.05
-58.17
-48.75
-36.59
-22.91
-9.12
3.56
14.30
22.77
29.07
33.53
36.47
38.16
38.79
38.58
37.94
37.35
37.29
37.96
39.19
40.50
41.30
41.14
39.98
38.17
36.22
34.51
33.09
31.68
29.77
27.00
23.26
18.76
13.91
9.13
4.62
0.38
-3.77
-8.04
-12.63
-17.60
-22.85
-28.07
-32.67
-35.81
-36.60
-34.30
-28.63
-19.92
-9.09
2.57
13.75
23.38
30.80
35.81
38.57
39.42
38.82
37.21
34.98
32.44
29.86
27.41
25.21
23.31
21.73
20.43
19.35
18.33
17.19
15.72
13.73
11.09
7.80
3.98
-0.17
-4.44
-8.69
-12.92
-17.18
-21.63
-26.41
-31.71
-37.63
-44.13
-50.85
-57.08
-61.82
-63.98
-62.71
-57.72
-49.32
-38.46
-26.38
-14.38
-3.49
5.66
12.80
17.93
21.20
22.80
22.96
21.91
20.02
17.71
15.44
13.52
12.08
11.06
10.30
9.65
9.02
8.30
7.32
5.86
3.68
0.67
-3.09
-7.32
-11.67
-15.87
-19.86
-23.78
-27.96
-32.74
-38.39
-44.92
-52.00
-58.84
-64.35
-67.29
-66.65
-61.92
-53.29
-41.69
-28.40
-14.88
-2.35
8.36
16.87
23.21
27.59
30.38
31.91
32.48
32.34
31.72
30.83
29.84
28.81
27.72
26.49
25.10
23.58
22.05
20.52
18.88
16.80
13.93
10.05
5.23
-0.14
-5.56
-10.62
-15.19
-19.50
-23.97
-29.05
-35.01
-41.80
-48.94
-55.61
-60.69
-63.00
-61.59
-56.02
-46.57
-34.17
-20.20
-6.10
6.94
18.12
27.05
33.62
37.92
40.14
40.60
39.77
38.17
36.32
34.64
33.33
32.37
31.62
30.82
29.71
28.17
26.20
23.92
21.48
18.98
16.33
13.34
9.82
5.65
0.91
-4.17
-9.30
-14.24
-18.91
-23.42
-28.04
-33.12
-38.93
-45.48
-52.30
-58.41
-62.47
-63.12
-59.50
-51.47
-39.79
-25.84
-11.23
2.58
14.57
24.19
31.31
36.07
38.73
39.65
39.21
37.89
36.17
34.55
33.39
32.85
32.85
33.02
33.01
32.54
31.56
30.22
28.71
27.07
25.13
22.61
19.26
15.11
10.43
5.68
1.24
-2.78
-6.61
-10.71
-15.62
-21.72
-29.00
-37.02
-44.81
-51.03
-54.32
-53.64
-48.63
-39.77
-28.26
-15.64
-3.38
7.42
16.19
22.72
27.05
29.27
29.58
28.25
25.76
22.72
19.72
17.25
15.51
14.49
14.02
13.91
14.05
14.38
14.84
15.28
15.46
15.03
13.71
11.34
7.92
3.67
-1.12
-6.13
-11.11
-15.97
-20.80
-25.88
-31.55
-38.05
-45.29
-52.71
-59.31
-63.88
-65.21
-62.50
-55.60
-45.05
-31.94
-17.69
-3.71
8.82
19.14
26.93
32.20
35.23
36.39
36.11
34.87
33.17
31.49
30.17
29.33
28.80
28.24
27.30
25.78
23.71
21.30
18.84
16.46
14.08
11.46
8.26
4.33
-0.33
-5.47
-10.74
-15.87
-20.75
-25.45
-30.20
-35.30
-40.94
-47.14
-53.58
-59.57
-64.09
-65.96
-64.12
-58.00
-47.79
-34.40
-19.35
-4.24
9.52
21.08
30.10
36.65
40.96
43.35
44.12
43.64
42.38
40.89
39.60
38.73
38.22
37.71
36.81
35.21
32.90
30.06
27.02
23.99
20.96
17.71
13.92
9.42
4.28
-1.20
-6.60
-11.60
-16.19
-20.60
-25.34
-30.92
-37.66
-45.50
-53.83
-61.55
-67.29
-69.72
-67.94
-61.79
-51.91
-39.62
-26.53
-14.13
-3.47
4.94
11.02
14.98
17.09
17.64
17.00
15.79
14.84
15.15
17.59
22.64
30.21
39.59
49.65
59.08
66.69
71.59
73.34
71.93
67.75
61.46
53.86
45.58
37.00
28.14
18.80
8.69
-2.40
-14.51
-27.39
-40.56
-53.28
-64.66
-73.67
-79.34
-80.95
-78.32
-71.94
-62.87
-52.50
-42.09
-32.42
-23.58
-15.12
-6.33
3.31
13.95
25.20
36.34
46.58
55.29
62.06
66.67
68.97
68.75
65.80
60.03
51.60
41.07
29.34
17.53
6.75
-2.05
-8.23
-11.56
-12.25
-10.86
-8.31
-5.67
-3.99
-4.05
-6.13
-9.90
-14.45
-18.52
-20.83
-20.41
-16.91
-10.61
-2.38
6.61
15.22
22.54
28.04
31.51
33.01
32.72
30.92
27.93
24.06
19.63
14.95
10.31
5.96
2.15
-0.96
-3.35
-5.20
-6.85
-8.73
-11.23
-14.53
-18.57
-23.08
-27.67
-31.96
-35.78
-39.15
-42.34
-45.80
-50.01
-55.30
-61.67
-68.56
-74.81
-78.79
-78.80
-73.56
-62.68
-46.91
-27.91
-7.88
11.12
27.60
40.78
50.50
56.97
60.53
61.60
60.68
58.37
55.27
51.88
48.46
45.08
41.72
38.37
35.18
32.35
30.03
28.11
26.29
24.13
21.22
17.32
12.41
6.64
0.32
-6.18
-12.47
-18.20
-23.25
-27.76
-32.21
-37.18
-43.02
-49.55
-55.91
-60.74
-62.58
-60.35
-53.78
-43.42
-30.48
-16.45
-2.75
9.56
19.84
27.89
33.79
37.78
40.16
41.28
41.52
41.35
41.26
41.71
42.91
44.81
46.97
48.77
49.59
49.07
47.22
44.29
40.60
36.36
31.60
26.21
20.19
13.73
7.28
1.38
-3.50
-7.19
-9.89
-12.07
-14.37
-17.34
-21.34
-26.39
-32.12
-37.77
-42.33
-44.76
-44.21
-40.35
-33.39
-24.13
-13.65
-3.10
6.58
14.77
21.14
25.58
28.10
28.82
27.97
25.95
23.29
20.54
18.15
16.32
15.04
14.16
13.52
13.02
12.61
12.26
11.79
10.90
9.21
6.43
2.44
-2.58
-8.26
-14.14
-19.81
-25.05
-29.79
-34.22
-38.63
-43.42
-48.89
-55.03
-61.43
-67.11
-70.76
-70.98
-66.86
-58.25
-45.87
-31.16
-15.83
-1.40
11.10
21.13
28.55
33.46
36.02
36.52
35.36
33.13
30.52
28.12
26.33
25.21
24.54
23.98
23.28
22.40
21.45
20.51
19.51
18.14
15.96
12.61
8.00
2.36
-3.80
-9.92
-15.62
-20.79
-25.62
-30.48
-35.76
-41.75
-48.40
-55.33
-61.74
-66.52
-68.52
-66.79
-60.94
-51.28
-38.70
-24.52
-10.09
3.48
15.45
25.39
33.12
38.57
41.80
43.03
42.64
41.20
39.28
37.41
35.92
34.92
34.29
33.78
33.08
31.93
30.22
27.99
25.36
22.38
18.98
15.01
10.31
4.88
-1.07
-7.21
-13.16
-18.65
-23.63
-28.21
-32.68
-37.46
-42.94
-49.36
-56.57
-63.86
-70.03
-73.64
-73.44
-68.80
-59.90
-47.68
-33.48
-18.77
-4.77
7.65
17.99
26.02
31.68
35.12
36.69
36.89
36.31
35.54
35.01
34.91
35.17
35.51
35.64
35.35
34.62
33.65
32.69
31.96
31.47
31.01
30.21
28.67
26.21
22.87
18.94
14.80
10.70
6.72
2.69
-1.67
-6.70
-12.59
-19.34
-26.56
-33.50
-39.02
-41.85
-40.90
-35.69
-26.53
-14.53
-1.30
11.53
22.73
31.58
37.90
41.81
43.53
43.29
41.40
38.27
34.50
30.70
27.40
24.88
23.13
21.90
20.83
19.63
18.09
16.12
13.66
10.67
7.09
2.94
-1.75
-6.82
-12.10
-17.40
-22.53
-27.37
-31.90
-36.25
-40.75
-45.86
-51.94
-58.92
-66.10
-72.17
-75.56
-74.98
-69.82
-60.38
-47.70
-33.23
-18.42
-4.49
7.77
17.87
25.62
31.02
34.22
35.48
35.23
33.97
32.27
30.65
29.46
28.80
28.50
28.25
27.77
26.87
25.58
23.99
22.21
20.20
17.84
14.92
11.28
6.88
1.80
-3.73
-9.42
-15.02
-20.35
-25.35
-30.14
-34.99
-40.26
-46.22
-52.86
-59.66
-65.65
-69.51
-69.99
-66.28
-58.33
-46.85
-33.14
-18.68
-4.80
7.55
17.83
25.79
31.39
34.74
36.05
35.70
34.28
32.42
30.74
29.62
29.16
29.16
29.29
29.20
28.66
27.60
26.09
24.23
22.09
19.64
16.79
13.40
9.39
4.80
-0.21
-5.31
-10.18
-14.64
-18.65
-22.43
-26.40
-31.01
-36.66
-43.38
-50.76
-57.84
-63.25
-65.50
-63.40
-56.51
-45.24
-30.82
-14.96
0.58
14.38
25.52
33.62
38.70
41.09
41.27
39.83
37.42
34.66
32.09
30.08
28.79
28.17
28.00
27.97
27.79
27.27
26.31
24.89
22.94
20.32
16.86
12.44
7.14
1.23
-4.84
-10.59
-15.70
-20.09
-23.96
-27.68
-31.68
-36.30
-41.58
-47.15
-52.23
-55.68
-56.30
-53.19
-46.03
-35.26
-22.02
-7.77
6.01
18.19
28.13
35.62
40.76
43.80
45.04
44.88
43.73
42.09
40.40
39.00
38.05
37.52
37.19
36.76
35.93
34.51
32.42
29.69
26.39
22.60
18.35
13.66
8.59
3.25
-2.21
-7.68
-13.15
-18.75
-24.72
-31.28
-38.42
-45.71
-52.24
-56.75
-57.95
-54.97
-47.68
-36.83
-23.77
-10.10
2.81
14.01
23.05
29.76
34.17
36.41
36.71
35.45
33.15
30.35
27.52
24.93
22.72
20.89
19.40
18.17
17.06
15.84
14.26
12.09
9.20
5.60
1.40
-3.24
-8.18
-13.29
-18.47
-23.67
-28.87
-34.22
-39.93
-46.19
-52.95
-59.67
-65.29
-68.48
-68.02
-63.23
-54.25
-41.94
-27.65
-12.85
1.20
13.57
23.75
31.47
36.73
39.67
40.63
40.03
38.36
36.05
33.45
30.79
28.21
25.75
23.45
21.29
19.26
17.31
15.34
13.21
10.74
7.77
4.17
-0.07
-4.86
-9.93
-14.98
-19.76
-24.19
-28.49
-33.11
-38.58
-45.10
-52.35
-59.30
-64.45
-66.28
-63.74
-56.62
-45.60
-32.00
-17.36
-3.04
10.00
21.19
30.27
37.17
41.86
44.43
45.09
44.18
42.20
39.69
37.15
34.95
33.19
31.79
30.51
29.12
27.44
25.43
23.14
20.66
17.99
15.03
11.57
7.44
2.55
-2.96
-8.84
-14.71
-20.25
-25.31
-29.96
-34.47
-39.24
-44.62
-50.79
-57.55
-64.28
-69.89
-73.14
-72.84
-68.28
-59.42
-46.95
-32.13
-16.49
-1.49
11.76
22.62
30.93
36.92
40.91
43.28
44.32
44.28
43.53
42.47
41.48
40.80
40.36
39.85
38.89
37.26
35.07
32.68
30.53
28.87
27.61
26.32
24.39
21.32
16.93
11.47
5.49
-0.37
-5.61
-10.12
-14.13
-18.09
-22.45
-27.55
-33.41
-39.75
-45.98
-51.23
-54.42
-54.53
-50.85
-43.13
-31.81
-17.83
-2.51
12.77
26.73
38.45
47.34
53.26
56.43
57.34
56.58
54.69
52.07
48.95
45.53
41.96
38.41
35.03
31.89
28.98
26.17
23.34
20.33
17.04
13.39
9.34
4.90
0.15
-4.74
-9.54
-14.04
-18.12
-21.80
-25.31
-29.05
-33.49
-39.03
-45.76
-53.23
-60.43
-65.89
-68.02
-65.63
-58.28
-46.54
-31.85
-16.04
-0.86
12.48
23.39
31.80
37.86
41.75
43.55
43.41
41.65
38.80
35.51
32.33
29.56
27.18
25.00
22.86
20.70
18.66
16.84
15.22
13.59
11.61
8.91
5.26
0.67
-4.67
-10.40
-16.12
-21.50
-26.39
-30.89
-35.41
-40.52
-46.69
-54.09
-62.27
-70.18
-76.31
-79.15
-77.59
-71.29
-60.78
-47.21
-32.08
-16.83
-2.55
10.00
20.44
28.56
34.32
37.78
39.18
38.97
37.73
36.11
34.61
33.50
32.73
32.09
31.30
30.23
28.93
27.61
26.41
25.29
23.95
21.91
18.76
14.28
8.63
2.27
-4.20
-10.24
-15.58
-20.22
-24.45
-28.74
-33.60
-39.45
-46.41
-54.14
-61.79
-68.09
-71.61
-71.14
-66.12
-56.74
-44.00
-29.35
-14.34
-0.26
12.07
22.24
30.14
35.85
39.56
41.56
42.27
42.24
42.04
42.09
42.54
43.16
43.52
43.15
41.79
39.51
36.68
33.75
31.07
28.72
26.41
23.66
19.97
15.00
8.79
1.69
-5.71
-12.72
-18.84
-23.80
-27.70
-30.99
-34.27
-38.11
-42.74
-47.84
-52.50
-55.39
-55.18
-50.98
-42.70
-31.07
-17.40
-3.18
10.31
22.18
31.88
39.09
43.59
45.34
44.55
41.81
38.01
34.08
30.76
28.37
26.81
25.75
24.83
23.87
22.81
21.66
20.32
18.56
16.08
12.66
8.33
3.30
-2.02
-7.29
-12.30
-16.99
-21.51
-26.02
-30.79
-36.12
-42.28
-49.40
-57.18
-64.86
-71.10
-74.35
-73.34
-67.44
-57.02
-43.26
-27.80
-12.28
2.04
14.42
24.56
32.42
38.10
41.71
43.42
43.51
42.31
40.24
37.70
35.01
32.35
29.80
27.35
25.00
22.75
20.61
18.56
16.52
14.36
11.89
8.93
5.42
1.40
-2.92
-7.29
-11.44
-15.28
-18.93
-22.76
-27.27
-32.88
-39.70
-47.30
-54.73
-60.67
-63.73
-62.86
-57.59
-48.18
-35.53
-20.95
-5.89
8.32
20.61
30.34
37.25
41.47
43.40
43.60
42.66
41.11
39.37
37.73
36.30
35.04
33.83
32.51
30.98
29.25
27.35
25.32
23.08
20.38
16.96
12.60
7.29
1.25
-5.14
-11.43
-17.31
-22.62
-27.46
-32.17
-37.15
-42.81
-49.25
-56.14
-62.59
-67.30
-68.85
-66.14
-58.78
-47.25
-32.80
-17.09
-1.78
11.83
22.98
31.46
37.38
41.06
42.88
43.17
42.27
40.54
38.35
36.01
33.80
31.88
30.29
29.00
27.95
26.99
25.99
24.73
22.98
20.52
17.17
12.90
7.87
2.40
-3.07
-8.17
-12.73
-16.87
-21.04
-25.80
-31.59
-38.45
-45.78
-52.41
-56.82
-57.57
-53.81
-45.51
-33.54
-19.35
-4.64
9.06
20.72
29.79
36.15
39.94
41.40
40.91
38.92
35.99
32.70
29.60
27.02
25.08
23.68
22.59
21.57
20.41
19.00
17.20
14.91
11.99
8.36
4.02
-0.89
-6.11
-11.32
-16.25
-20.80
-25.10
-29.56
-34.70
-40.96
-48.31
-56.09
-63.06
-67.59
-68.25
-64.18
-55.47
-43.06
-28.50
-13.48
0.56
12.68
22.37
29.55
34.32
36.91
37.65
36.99
35.45
33.55
31.73
30.15
28.84
27.65
26.45
25.23
24.05
23.00
22.05
21.01
19.58
17.40
14.24
10.06
5.02
-0.52
-6.14
-11.44
-16.26
-20.67
-25.07
-30.00
-35.97
-43.12
-51.03
-58.67
-64.58
-67.27
-65.69
-59.47
-49.09
-35.72
-20.87
-6.06
7.46
18.88
27.81
34.24
38.35
40.47
40.98
40.28
38.75
36.81
34.79
32.91
31.23
29.69
28.18
26.65
25.18
23.92
22.97
22.25
21.42
19.96
17.29
13.08
7.34
0.55
-6.55
-13.23
-19.01
-23.88
-28.25
-32.79
-38.15
-44.68
-52.27
-60.25
-67.41
-72.31
-73.55
-70.20
-62.13
-50.04
-35.35
-19.77
-4.93
7.97
18.28
25.86
30.95
33.94
35.30
35.48
34.91
34.00
33.10
32.47
32.23
32.31
32.50
32.60
32.45
32.00
31.34
30.58
29.77
28.83
27.52
25.50
22.48
18.30
13.07
7.14
1.03
-4.81
-10.14
-15.06
-19.96
-25.37
-31.75
-39.20
-47.31
-55.13
-61.31
-64.43
-63.34
-57.56
-47.40
-33.91
-18.60
-3.03
11.48
24.02
34.11
41.51
46.24
48.44
48.47
46.92
44.51
42.03
40.12
39.11
38.90
39.06
39.09
38.54
37.23
35.23
32.74
29.92
26.75
23.08
18.68
13.43
7.42
0.95
-5.53
-11.62
-17.08
-21.91
-26.40
-30.96
-36.08
-42.11
-49.05
-56.43
-63.27
-68.23
-69.93
-67.40
-60.35
-49.32
-35.51
-20.41
-5.50
8.01
19.29
27.85
33.50
36.31
36.63
35.10
32.53
29.75
27.45
25.98
25.34
25.21
25.15
24.75
23.78
22.19
20.10
17.68
15.03
12.16
8.97
5.28
0.95
-4.08
-9.69
-15.59
-21.40
-26.83
-31.78
-36.39
-41.04
-46.17
-52.17
-59.16
-66.89
-74.62
-81.21
-85.31
-85.64
-81.41
-72.50
-59.56
-43.84
-26.85
-10.02
5.50
18.94
29.84
38.06
43.64
46.86
48.14
48.08
47.33
46.50
46.11
46.39
47.28
48.44
49.38
49.68
49.09
47.61
45.46
42.90
40.06
36.91
33.21
28.70
23.22
16.82
9.77
2.47
-4.72
-11.55
-17.97
-24.12
-30.31
-36.88
-44.10
-51.89
-59.78
-66.76
-71.56
-72.87
-69.82
-62.27
-50.82
-36.72
-21.45
-6.45
7.18
18.72
27.81
34.37
38.52
40.60
41.10
40.62
39.81
39.17
39.03
39.38
40.01
40.53
40.56
39.87
38.45
36.47
34.19
31.83
29.39
26.68
23.31
18.96
13.52
7.24
0.62
-5.72
-11.35
-16.17
-20.42
-24.62
-29.32
-34.93
-41.49
-48.59
-55.30
-60.32
-62.28
-60.11
-53.41
-42.59
-28.74
-13.39
1.93
15.96
27.84
37.08
43.51
47.15
48.31
47.46
45.27
42.48
39.76
37.58
36.09
35.20
34.60
33.96
33.02
31.65
29.85
27.69
25.18
22.23
18.67
14.34
9.17
3.35
-2.76
-8.69
-14.11
-18.96
-23.52
-28.34
-33.96
-40.67
-48.24
-55.90
-62.39
-66.32
-66.48
-62.21
-53.57
-41.39
-27.00
-11.95
2.33
14.74
24.63
31.72
36.05
37.90
37.73
36.12
33.72
31.09
28.63
26.55
24.81
23.29
21.83
20.32
18.71
16.99
15.10
12.93
10.32
7.10
3.18
-1.37
-6.38
-11.62
-16.84
-21.91
-26.76
-31.48
-36.28
-41.46
-47.31
-53.92
-60.91
-67.39
-71.98
-73.21
-70.00
-62.05
-49.98
-35.19
-19.42
-4.28
9.09
20.06
28.49
34.47
38.21
40.00
40.14
39.02
37.13
34.99
33.06
31.64
30.82
30.42
30.16
29.73
28.90
27.56
25.71
23.33
20.35
16.66
12.14
6.87
1.10
-4.77
-10.31
-15.28
-19.78
-24.19
-29.05
-34.86
-41.77
-49.42
-56.92
-63.01
-66.32
-65.72
-60.71
-51.47
-38.93
-24.43
-9.47
4.64
16.98
27.03
34.62
39.79
42.73
43.73
43.20
41.63
39.53
37.37
35.45
33.88
32.60
31.42
30.22
28.92
27.54
26.11
24.58
22.75
20.35
17.12
12.94
7.92
2.38
-3.26
-8.61
-13.44
-17.79
-21.91
-26.26
-31.29
-37.32
-44.34
-51.83
-58.82
-63.93
-65.79
-63.40
-56.48
-45.58
-31.93
-17.07
-2.51
10.58
21.51
29.95
35.89
39.47
40.94
40.66
39.12
36.87
34.53
32.60
31.36
30.84
30.79
30.80
30.49
29.63
28.25
26.49
24.55
22.41
19.83
16.47
12.07
6.63
0.48
-5.84
-11.83
-17.18
-21.86
-26.15
-30.45
-35.26
-40.93
-47.53
-54.66
-61.39
-66.34
-68.06
-65.38
-57.89
-46.08
-31.18
-14.86
1.15
15.45
27.10
35.60
40.90
43.33
43.44
41.97
39.74
37.42
35.51
34.23
33.51
33.13
32.79
32.22
31.32
30.11
28.65
26.97
24.96
22.38
19.00
14.71
9.64
4.09
-1.55
-7.00
-12.14
-17.08
-22.07
-27.42
-33.34
-39.84
-46.58
-52.84
-57.56
-59.55
-57.88
-52.13
-42.58
-30.20
-16.33
-2.43
10.26
20.83
28.80
34.00
36.53
36.74
35.14
32.43
29.30
26.42
24.21
22.85
22.21
21.93
21.66
21.07
20.05
18.59
16.76
14.58
11.96
8.79
4.99
0.62
-4.15
-9.06
-13.90
-18.60
-23.28
-28.21
-33.75
-40.21
-47.60
-55.52
-63.05
-68.85
-71.49
-69.84
-63.47
-52.80
-38.99
-23.68
-8.50
5.19
16.48
24.94
30.57
33.63
34.58
34.00
32.47
30.54
28.70
27.27
26.39
26.01
25.93
25.90
25.73
25.31
24.62
23.58
22.11
20.01
17.11
13.30
8.65
3.38
-2.21
-7.77
-13.06
-18.00
-22.68
-27.42
-32.64
-38.71
-45.69
-53.11
-59.95
-64.81
-66.27
-63.35
-55.88
-44.59
-30.87
-16.39
-2.61
9.50
19.46
27.19
32.76
36.32
38.06
38.31
37.55
36.33
35.13
34.21
33.55
32.95
32.16
31.05
29.64
28.06
26.41
24.69
22.74
20.31
17.16
13.19
8.46
3.22
-2.23
-7.58
-12.63
-17.33
-21.86
-26.60
-32.00
-38.45
-46.01
-54.18
-61.88
-67.58
-69.71
-67.13
-59.52
-47.54
-32.64
-16.67
-1.40
11.89
22.52
30.35
35.56
38.51
39.61
39.30
38.11
36.61
35.27
34.43
34.14
34.23
34.39
34.32
33.85
32.99
31.83
30.40
28.63
26.27
23.03
18.75
13.52
7.67
1.71
-3.90
-8.90
-13.40
-17.82
-22.72
-28.57
-35.48
-43.00
-50.16
-55.60
-57.97
-56.26
-50.15
-40.07
-27.10
-12.73
1.50
14.30
24.75
32.39
37.12
39.16
38.95
37.12
34.42
31.55
29.12
27.41
26.41
25.85
25.39
24.80
24.01
23.09
22.03
20.71
18.83
16.10
12.34
7.63
2.23
-3.49
-9.19
-14.64
-19.69
-24.35
-28.72
-33.08
-37.83
-43.40
-49.95
-57.10
-63.88
-68.81
-70.35
-67.38
-59.64
-47.74
-33.07
-17.33
-2.13
11.34
22.41
30.86
36.71
40.17
41.48
41.03
39.36
37.14
35.03
33.53
32.82
32.71
32.79
32.64
32.02
30.95
29.56
27.95
26.11
23.82
20.84
16.95
12.15
6.62
0.69
-5.23
-10.81
-15.88
-20.51
-25.01
-29.86
-35.55
-42.34
-50.13
-58.26
-65.62
-70.80
-72.45
-69.65
-62.26
-50.90
-36.89
-21.76
-6.98
6.44
17.91
27.14
34.05
38.55
40.67
40.60
38.84
36.19
33.58
31.82
31.33
31.99
33.16
33.98
33.66
31.87
28.82
25.20
21.87
19.53
18.48
18.45
18.82
18.77
17.65
15.10
11.21
6.35
1.04
-4.23
-9.25
-14.07
-19.03
-24.55
-30.97
-38.23
-45.69
-52.21
-56.34
-56.83
-53.03
-45.07
-33.91
-20.97
-7.80
4.36
14.78
23.14
29.36
33.39
35.25
35.06
33.15
30.09
26.73
23.99
22.54
22.42
23.10
23.73
23.55
22.09
19.18
15.22
11.08
7.65
5.29
3.67
2.00
-0.62
-4.94
-11.29
-19.09
-26.72
-32.43
-35.27
-35.48
-34.05
-32.22
-31.13
-31.53
-33.32
-35.19
-35.40
-32.36
-24.69
-10.80
10.95
41.46
77.33
110.11
130.24
132.56
117.96
90.93
57.33
23.11
-6.78
-28.77
-42.53
-47.81
-45.18
-36.54
-24.94
-13.66
-5.68
-3.90
-10.32
-24.03
-40.77
-55.24
-63.89
-66.31
-64.76
-62.72
-63.22
-66.64
-70.29
-69.72
-61.53
-45.47
-24.70
-4.19
12.43
22.70
26.43
25.54
23.20
22.44
25.32
32.65
44.48
59.47
74.96
87.79
95.23
95.67
89.09
76.91
58.77
37.37
16.04
-2.28
-15.43
-22.34
-23.20
-19.27
-12.65
-5.60
0.48
4.72
6.89
7.27
6.40
4.64
2.16
-1.07
-5.05
-9.36
-13.74
-18.09
-22.44
-26.80
-31.10
-35.18
-38.81
-41.87
-44.26
-46.28
-48.36
-50.75
-53.21
-55.00
-55.10
-52.64
-47.25
-39.13
-29.12
-18.27
-7.54
2.51
11.62
19.71
26.68
32.31
36.40
38.81
39.67
39.36
38.42
37.30
36.20
35.00
33.48
31.56
29.35
27.11
24.95
22.68
19.96
16.51
12.46
8.29
4.59
1.70
-0.52
-2.48
-4.60
-6.96
-9.37
-11.65
-13.88
-16.47
-19.88
-24.17
-28.82
-32.81
-35.00
-34.53
-31.12
-25.02
-16.88
-7.52
2.19
11.39
19.30
25.32
29.07
30.51
30.00
28.21
26.01
24.17
23.26
23.44
24.39
25.50
26.00
25.32
23.22
19.87
15.71
11.23
6.76
2.35
-2.09
-6.76
-11.75
-17.02
-22.36
-27.47
-32.04
-35.92
-39.12
-41.90
-44.64
-47.53
-50.43
-52.65
-53.21
-51.17
-46.03
-38.06
-28.12
-17.46
-7.22
1.77
9.06
14.53
18.26
20.42
21.22
20.91
19.72
17.88
15.58
13.06
10.57
8.35
6.53
5.09
3.82
2.43
0.67
-1.54
-4.13
-6.87
-9.52
-11.89
-13.87
-15.47
-16.80
-18.07
-19.61
-21.73
-24.72
-28.62
-33.15
-37.66
-41.19
-42.69
-41.30
-36.62
-28.84
-18.73
-7.39
4.05
14.63
23.73
31.03
36.43
39.98
41.81
42.17
41.40
39.94
38.25
36.65
35.30
34.11
32.88
31.40
29.55
27.40
25.10
22.81
20.55
18.18
15.44
12.13
8.19
3.77
-0.82
-5.24
-9.35
-13.17
-16.93
-20.94
-25.50
-30.71
-36.40
-42.08
-46.91
-49.87
-50.02
-46.78
-40.11
-30.61
-19.30
-7.45
3.86
13.81
21.97
28.24
32.67
35.40
36.60
36.51
35.46
33.87
32.15
30.63
29.47
28.57
27.73
26.74
25.49
24.00
22.40
20.80
19.16
17.31
14.96
11.90
8.07
3.59
-1.19
-5.88
-10.13
-13.79
-16.91
-19.81
-22.93
-26.72
-31.37
-36.67
-41.93
-46.09
-48.01
-46.80
-42.18
-34.50
-24.61
-13.63
-2.60
7.62
16.47
23.56
28.71
31.89
33.24
33.10
31.96
30.37
28.82
27.59
26.78
26.29
25.92
25.47
24.82
23.94
22.90
21.76
20.51
19.05
17.14
14.62
11.37
7.52
3.34
-0.79
-4.52
-7.71
-10.47
-13.14
-16.15
-19.91
-24.64
-30.27
-36.41
-42.27
-46.84
-48.99
-47.87
-43.11
-35.08
-24.76
-13.50
-2.59
7.02
14.88
20.88
25.07
27.51
28.26
27.53
