1531936105.00
64.000000
-0.00
-0.00
-0.00
-0.00
-0.00
-0.00
-0.00
-0.00
-0.00
-0.00
0.00
0.01
0.01
-0.00
-0.03
-0.05
-0.05
0.00
0.13
0.36
0.66
1.01
1.37
1.72
2.06
2.40
2.79
3.24
3.80
4.42
5.06
5.66
6.20
6.68
7.15
7.68
8.31
9.14
10.09
11.04
11.88
12.56
13.14
13.76
14.65
15.96
17.91
20.32
22.90
25.38
27.58
29.57
31.68
34.32
37.81
42.54
48.15
54.10
59.83
64.97
69.58
74.14
79.34
85.71
93.76
103.00
112.62
121.73
129.77
136.75
143.30
150.75
157.77
166.64
177.95
191.79
206.97
220.57
228.25
225.36
208.53
176.87
132.76
80.05
23.07
-34.94
-92.44
-149.16
-205.23
-260.37
-313.74
-363.87
-409.83
-450.91
-486.50
-515.74
-537.23
-549.22
-549.96
-538.37
-514.21
-478.67
-433.88
-382.45
-327.02
-269.84
-212.63
-156.66
-102.95
-52.37
-5.90
35.58
71.43
101.35
125.50
144.38
158.69
169.15
176.37
180.75
182.57
182.07
179.51
175.23
169.65
163.18
156.15
148.81
141.30
133.69
126.02
118.33
110.69
103.16
95.80
88.68
81.83
75.25
68.95
62.95
57.25
51.86
46.78
42.03
37.59
33.45
29.61
26.07
22.81
19.83
17.11
14.67
12.48
10.54
8.83
7.35
6.07
4.97
4.05
3.27
2.62
2.09
1.65
1.30
1.01
0.79
0.61
0.47
0.37
0.28
0.22
0.18
0.15
0.12
0.11
0.11
0.12
0.13
0.15
0.18
0.21
0.25
0.29
0.33
0.37
0.42
0.46
0.50
0.55
0.60
0.64
0.69
0.75
0.81
0.87
0.94
1.03
1.12
1.22
1.34
1.47
1.62
1.80
1.99
2.20
2.43
2.69
2.97
3.28
3.62
3.99
4.39
4.83
5.30
5.81
6.36
6.94
7.57
8.24
8.94
9.69
10.48
11.31
12.18
13.09
14.06
15.09
16.17
17.31
18.49
19.70
20.88
21.96
22.86
23.44
23.59
23.18
22.12
20.31
17.75
14.47
10.57
6.22
1.61
-3.02
-7.47
-11.51
-14.94
-17.60
-19.37
-20.17
-19.99
-18.94
-17.19
-14.98
-12.53
-10.04
-7.67
-5.49
-3.51
-1.73
-0.20
1.02
1.90
2.40
2.58
2.59
2.64
2.99
3.85
5.17
6.75
8.33
9.57
10.32
10.59
10.67
10.93
11.79
13.12
14.61
15.80
16.30
15.97
15.14
14.48
14.89
17.10
20.83
25.36
29.64
32.67
33.90
33.46
32.09
30.78
30.38
30.49
30.26
28.51
23.92
15.24
1.30
-19.07
-46.91
-77.66
-107.39
-131.42
-145.64
-148.05
-139.80
-124.76
-107.83
-92.75
-80.56
-70.62
-61.14
-51.10
-41.13
-32.93
-27.98
-26.30
-26.32
-25.87
-23.93
-20.63
-17.06
-14.47
-13.31
-13.04
-12.61
-11.24
-8.92
-6.70
-5.77
-6.94
-10.27
-15.28
-21.25
-27.62
-33.99
-40.00
-45.32
-49.31
-51.29
-50.81
-48.05
-43.88
-39.64
-36.72
-36.06
-37.91
-41.84
-46.70
-50.63
-51.07
-45.07
-30.04
-5.04
28.13
64.68
97.92
121.45
131.49
128.29
115.73
99.52
84.84
74.57
68.93
66.35
64.92
63.43
61.72
60.23
59.45
59.51
60.23
61.37
62.73
64.19
65.33
65.31
63.11
57.90
49.66
39.36
28.74
19.58
13.16
9.76
8.90
9.61
10.91
12.01
12.40
11.77
10.06
7.42
4.30
1.28
-1.09
-2.61
-3.50
-4.41
-6.11
-9.24
-13.98
-20.01
-26.63
-33.05
-38.78
-43.76
-48.43
-53.55
-59.99
-68.32
-78.51
-89.65
-99.90
-106.74
-107.66
-101.13
-87.26
-67.95
-46.33
-25.61
-8.14
5.18
14.73
21.61
26.91
31.36
35.30
38.85
42.08
45.11
48.07
51.04
54.07
57.13
60.15
62.93
65.20
66.71
67.30
67.00
66.01
64.49
62.44
59.64
55.74
50.40
43.59
35.59
26.96
18.35
10.25
2.94
-3.49
-9.02
-13.63
-17.31
-20.06
-22.05
-23.54
-24.83
-26.10
-27.35
-28.35
-28.78
-28.41
-27.26
-25.72
-24.55
-24.59
-26.37
-29.86
-34.34
-38.63
-41.55
-42.41
-41.21
-38.43
-34.68
-30.35
-25.45
-19.87
-13.67
-7.27
-1.34
3.47
6.81
8.74
9.53
9.46
8.63
6.97
4.29
0.57
-3.98
-8.98
-13.92
-18.36
-22.07
-24.99
-27.25
-28.97
-30.18
-30.79
-30.58
-29.41
-27.22
-24.15
-20.58
-17.14
-14.65
-13.97
-15.77
-20.24
-26.88
-34.42
-41.05
-44.76
-43.81
-37.20
-24.97
-8.27
10.73
29.30
44.67
54.80
58.76
56.91
50.63
41.92
32.91
25.53
21.36
21.46
26.20
35.21
47.36
60.94
73.94
84.46
91.01
92.62
88.95
80.11
66.61
49.18
28.77
6.49
-16.43
-38.64
-58.84
-75.96
-89.42
-99.18
-105.77
-109.95
-112.41
-113.52
-113.32
-111.80
-109.20
-106.06
-103.05
-100.71
-99.00
-97.43
-95.25
-91.93
-87.40
-82.17
-76.99
-72.58
-69.37
-67.59
-67.47
-69.35
-73.74
-80.94
-90.70
-101.78
-111.95
-118.38
-118.48
-110.81
-95.69
-75.17
-52.29
-30.09
-10.55
5.74
19.37
31.47
42.96
54.18
64.84
74.37
82.22
88.14
92.14
94.44
95.33
95.03
93.74
91.59
88.84
85.86
83.21
81.46
80.94
81.57
82.79
83.78
83.74
82.20
79.11
74.82
69.77
64.35
58.83
53.33
47.93
42.71
37.63
32.47
26.84
20.32
12.61
3.76
-5.81
-15.47
-24.62
-32.91
-40.37
-47.41
-54.70
-62.94
-72.54
-83.26
-94.04
-103.03
-108.03
-107.21
-99.79
-86.45
-69.14
-50.41
-32.59
-17.11
-4.39
5.87
14.18
20.88
26.11
30.00
32.84
35.11
37.27
39.53
41.73
43.47
44.37
44.39
43.86
43.36
43.46
44.42
46.09
48.07
49.87
51.16
51.86
52.11
52.26
52.72
53.87
55.93
58.92
62.61
66.64
70.62
74.16
77.00
78.92
79.77
79.48
78.09
75.85
73.18
70.58
68.49
67.13
66.48
66.32
66.41
66.55
66.72
66.95
67.31
67.84
68.56
69.42
70.38
71.40
72.34
72.95
72.87
71.81
69.70
66.93
64.22
62.44
62.15
63.36
65.48
67.54
68.56
67.90
65.30
60.86
54.89
47.96
40.83
34.49
29.89
27.46
26.71
26.05
23.21
16.03
3.30
-14.78
-36.57
-59.77
-82.18
-102.46
-120.46
-136.99
-153.37
-170.78
-189.93
-210.82
-232.72
-254.07
-272.48
-284.83
-287.75
-278.51
-255.90
-220.80
-175.99
-125.23
-72.18
-19.68
30.21
75.83
115.46
147.44
170.77
185.77
194.35
199.32
203.34
207.93
213.02
217.42
219.62
218.58
214.08
206.56
196.65
184.87
171.47
156.56
140.42
123.67
107.19
91.94
78.51
66.91
56.57
46.58
36.10
24.77
12.84
1.06
-9.64
-18.60
-25.66
-31.16
-35.80
-40.35
-45.43
-51.37
-58.21
-65.78
-73.82
-82.00
-90.01
-97.60
-104.59
-111.00
-116.97
-122.73
-128.44
-134.06
-139.32
-143.76
-146.89
-148.38
-148.05
-145.99
-142.47
-137.83
-132.49
-126.87
-121.41
-116.41
-111.97
-107.92
-103.86
-99.25
-93.54
-86.35
-77.62
-67.58
-56.73
-45.72
-35.15
-25.41
-16.58
-8.53
-0.91
6.71
14.74
23.45
32.97
43.25
54.09
65.20
76.22
86.79
96.58
105.29
112.67
118.61
122.97
125.69
126.63
125.59
122.49
117.48
111.12
104.24
97.78
92.37
88.13
84.66
81.35
77.61
73.13
67.94
62.26
56.33
50.33
44.32
38.38
32.59
27.10
22.06
17.50
13.37
9.46
5.56
1.56
-2.50
-6.46
-10.07
-13.20
-15.83
-18.05
-20.00
-21.71
-23.18
-24.39
-25.42
-26.45
-27.73
-29.43
-31.56
-33.98
-36.51
-38.99
-41.27
-43.27
-44.78
-45.62
-45.60
-44.69
-43.16
-41.50
-40.29
-39.94
-40.46
-41.39
-42.02
-41.71
-40.16
-37.66
-34.92
-32.88
-32.24
-33.15
-35.13
-37.31
-38.80
-39.01
-37.87
-35.68
-32.84
-29.59
-25.93
-21.75
-17.06
-12.08
-7.25
-2.98
0.56
3.51
6.12
8.62
11.04
13.30
15.28
17.01
18.56
19.90
20.83
20.97
20.02
17.93
15.03
11.82
8.68
5.49
1.62
-3.84
-11.62
-21.83
-33.75
-46.11
-57.75
-68.14
-77.72
-87.64
-99.14
-112.87
-128.52
-144.98
-160.82
-174.71
-185.69
-193.09
-196.62
-196.59
-194.40
-192.53
-193.66
-199.23
-207.99
-215.71
-216.59
-205.71
-181.27
-145.30
-102.56
-58.28
-16.24
21.82
55.45
84.28
107.41
123.82
133.32
137.30
138.57
140.30
144.80
152.72
163.06
173.90
183.38
190.38
194.80
197.37
198.91
199.82
199.57
196.89
190.24
178.54
161.60
140.12
115.35
88.60
60.99
33.48
7.05
-17.27
-38.51
-55.94
-69.33
-78.84
-84.95
-88.24
-89.33
-88.91
-87.81
-87.04
-87.68
-90.64
-96.23
-103.67
-110.91
-114.84
-112.10
-100.35
-79.33
-51.18
-19.78
10.68
37.16
58.57
75.57
89.57
101.70
112.26
120.80
126.77
130.06
131.08
130.51
128.79
125.82
120.94
113.33
102.56
88.91
73.45
57.68
42.95
30.02
18.87
8.97
-0.26
-9.03
-17.01
-23.61
-28.43
-31.71
-34.27
-37.27
-41.66
-47.67
-54.81
-62.17
-68.91
-74.74
-79.93
-85.18
-91.31
-98.85
-107.95
-118.13
-128.25
-136.50
-140.79
-139.25
-130.96
-116.37
-97.23
-76.04
-55.19
-36.31
-20.12
-6.57
4.58
13.50
20.14
24.40
26.42
26.73
26.29
26.27
27.68
31.01
36.00
41.81
47.33
51.80
55.05
57.59
60.17
63.28
66.83
70.15
72.35
72.80
71.35
68.38
64.43
59.89
54.72
48.52
40.85
31.55
21.10
10.60
1.41
-5.36
-9.38
-11.39
-13.01
-16.04
-21.59
-29.34
-37.35
-42.69
-42.37
-34.53
-18.99
2.74
28.11
54.22
78.32
97.91
110.73
114.95
109.72
95.76
75.48
52.45
30.37
11.96
-1.64
-10.61
-15.97
-18.83
-20.06
-20.25
-19.81
-19.03
-18.14
-17.31
-16.77
-16.85
-18.00
-20.39
-23.75
-27.35
-30.41
-32.77
-35.17
-39.10
-46.02
-56.58
-70.15
-85.04
-99.09
-110.28
-117.13
-118.65
-114.34
-104.14
-88.71
-69.49
-48.61
-28.30
-10.34
4.39
15.91
24.72
31.35
35.97
38.57
39.14
38.10
36.22
34.41
33.22
32.64
32.10
30.86
28.51
25.16
21.32
17.59
14.21
10.99
7.47
3.19
-2.04
-8.14
-14.91
-22.11
-29.58
-37.11
-44.42
-51.33
-57.92
-64.64
-72.19
-81.10
-91.13
-100.99
-108.47
-111.22
-107.66
-97.64
-82.49
-64.41
-45.56
-27.32
-10.13
6.17
21.68
36.06
48.50
58.22
64.88
68.89
71.18
72.83
74.57
76.68
79.08
81.56
84.01
86.48
89.10
91.99
95.18
98.62
102.14
105.43
108.08
109.67
110.06
109.48
108.57
108.13
108.68
110.32
112.62
114.81
115.97
115.09
111.14
103.27
91.32
76.17
59.94
45.44
35.12
30.08
29.60
31.49
33.06
32.21
28.10
21.03
11.97
2.03
-7.78
-16.53
-23.21
-26.92
-27.36
-25.38
-23.05
-23.06
-27.51
-36.64
-48.32
-58.62
-63.44
-60.46
-50.31
-36.47
-23.79
-16.33
-15.71
-20.57
-27.45
-32.47
-33.02
-28.62
-20.90
-12.80
-7.56
-7.86
-15.27
-29.95
-50.47
-73.78
-95.54
-111.11
-116.78
-111.10
-95.33
-73.01
-48.55
-25.66
-6.41
8.87
20.80
30.03
36.61
40.16
40.50
38.32
35.42
34.31
37.25
45.41
58.36
74.22
90.31
104.15
114.07
119.67
121.58
120.78
118.02
113.36
106.15
95.47
80.63
61.58
38.96
13.88
-12.32
-38.37
-63.12
-85.47
-104.56
-120.04
-132.52
-143.56
-155.28
-169.47
-186.62
-205.37
-222.74
-234.80
-237.77
-229.00
-207.64
-175.15
-135.21
-93.11
-54.46
-23.58
-2.23
10.80
18.75
25.21
32.49
40.89
49.15
55.62
59.44
60.90
61.17
61.50
62.58
64.45
66.74
69.03
71.04
72.67
73.76
74.05
73.19
70.96
67.41
62.94
58.13
53.62
49.72
46.35
42.98
38.78
32.71
23.79
11.52
-3.82
-20.75
-36.74
-48.83
-54.59
-52.97
-44.66
-31.71
-16.57
-1.30
12.91
25.53
36.19
44.29
48.94
49.34
45.23
37.12
26.28
14.32
2.67
-7.76
-16.82
-25.00
-33.12
-41.91
-51.62
-61.90
-71.82
-80.25
-86.28
-89.53
-90.23
-89.02
-86.58
-83.34
-79.43
-74.74
-69.19
-62.95
-56.51
-50.50
-45.54
-42.02
-40.03
-39.28
-38.95
-37.69
-33.68
-25.10
-10.75
9.37
33.85
60.21
85.45
106.87
122.40
130.83
131.68
125.21
112.33
94.67
74.34
53.64
34.61
18.64
6.39
-2.19
-7.63
-10.88
-13.06
-15.26
-18.29
-22.43
-27.32
-32.16
-36.09
-38.53
-39.47
-39.43
-39.21
-39.50
-40.61
-42.35
-44.20
-45.66
-46.55
-47.16
-48.31
-50.98
-56.07
-63.87
-73.73
-83.83
-91.46
-93.68
-88.25
-74.50
-53.65
-28.48
-2.40
21.63
41.83
57.75
69.84
78.83
85.23
89.32
91.26
91.39
90.21
88.37
86.26
83.99
81.30
77.84
73.48
68.50
63.60
59.56
56.86
55.34
54.24
52.52
49.32
44.40
38.25
31.77
25.75
20.49
15.66
10.55
4.55
-2.43
-9.93
-17.21
-23.65
-29.10
-33.94
-38.84
-44.47
-51.36
-59.87
-70.00
-81.19
-92.00
-100.10
-102.77
-97.85
-84.75
-64.91
-41.41
-17.82
2.98
19.66
32.27
41.69
48.73
53.74
56.75
57.73
57.06
55.45
53.73
52.43
51.66
51.03
50.00
48.16
45.47
42.27
39.13
36.60
34.94
34.04
33.36
32.22
30.02
26.48
21.79
16.44
11.12
6.37
2.35
-1.20
-4.80
-8.98
-14.04
-19.87
-26.02
-31.89
-36.98
-41.09
-44.38
-47.32
-50.60
-54.94
-61.00
-69.15
-79.11
-89.78
-99.19
-104.89
-104.70
-97.45
-83.47
-64.55
-43.32
-22.45
-3.90
11.44
23.62
33.15
40.67
46.50
50.75
53.33
54.26
53.74
52.16
50.05
47.86
45.82
43.99
42.31
40.80
39.58
38.83
38.58
38.64
38.53
37.74
35.91
33.04
29.44
25.60
21.89
18.40
14.95
11.24
7.05
2.41
-2.45
-7.15
-11.41
-15.13
-18.47
-21.83
-25.81
-31.06
-37.89
-45.92
-53.73
-59.03
-59.22
-52.37
-38.10
-17.92
5.25
28.08
47.86
63.18
73.97
80.87
84.65
85.76
84.25
80.04
73.19
64.02
53.24
41.68
30.30
19.93
11.19
4.45
-0.16
-2.76
-3.62
-3.16
-1.92
-0.52
0.49
0.70
0.00
-1.47
-3.36
-5.29
-6.97
-8.39
-9.74
-11.30
-13.31
-15.81
-18.59
-21.30
-23.61
-25.47
-27.14
-29.16
-32.07
-36.17
-41.26
-46.79
-51.99
-56.29
-59.50
-61.96
-64.36
-67.63
-72.63
-79.83
-88.98
-98.84
-107.19
-111.29
-108.69
-98.05
-79.78
-56.01
-29.93
-4.83
16.84
33.86
46.21
54.57
59.80
62.62
63.57
63.14
61.80
60.06
58.40
57.09
56.10
55.23
54.20
52.88
51.39
50.03
49.12
48.80
48.92
49.07
48.79
47.71
45.68
42.77
39.25
35.41
31.60
28.07
25.00
22.39
20.09
17.78
15.13
11.91
8.07
3.80
-0.60
-4.81
-8.61
-12.00
-15.17
-18.40
-22.02
-26.18
-30.78
-35.49
-39.87
-43.58
-46.54
-49.02
-51.61
-54.97
-59.75
-66.38
-74.90
-84.72
-94.42
-101.84
-104.53
-100.51
-89.11
-71.38
-49.84
-27.67
-7.62
8.69
20.90
29.52
35.29
38.76
40.19
39.76
37.79
34.86
31.67
28.85
26.77
25.48
24.79
24.38
23.98
23.48
22.97
22.65
22.63
22.82
22.82
22.13
20.32
17.28
13.28
8.83
4.43
0.37
-3.32
-6.78
-10.14
-13.46
-16.77
-20.12
-23.64
-27.51
-31.78
-36.29
-40.73
-44.73
-48.08
-50.83
-53.32
-56.10
-59.87
-65.19
-72.30
-80.83
-89.59
-96.64
-99.73
-96.99
-87.59
-72.17
-52.58
-31.36
-10.91
7.05
21.71
33.07
41.53
47.66
51.93
54.70
56.27
56.89
56.81
56.31
55.68
55.18
54.99
55.20
55.75
56.58
57.64
58.93
60.38
61.84
62.94
63.20
62.15
59.60
55.73
51.06
46.18
41.52
37.17
32.94
28.58
23.99
19.25
14.55
10.01
5.58
1.09
-3.58
-8.38
-13.07
-17.38
-21.19
-24.64
-28.05
-31.74
-35.82
-40.20
-44.57
-48.61
-52.08
-54.89
-57.13
-59.04
-61.08
-63.87
-68.17
-74.55
-82.95
-92.27
-100.35
-104.43
-102.03
-91.96
-74.86
-53.05
-29.72
-7.92
10.36
24.41
34.52
41.44
45.91
48.47
49.50
49.41
48.67
47.73
46.95
46.50
46.38
46.50
46.79
47.26
48.01
49.25
51.17
53.78
56.83
59.77
61.92
62.69
61.86
59.59
56.41
52.92
49.54
46.42
43.43
40.28
36.73
32.69
28.28
23.71
19.28
15.19
11.53
8.23
5.14
2.05
-1.10
-4.34
-7.58
-10.71
-13.69
-16.54
-19.39
-22.39
-25.69
-29.40
-33.51
-37.86
-42.16
-46.08
-49.39
-52.09
-54.41
-56.80
-59.82
-64.01
-69.74
-77.00
-85.09
-92.58
-97.48
-97.74
-92.01
-80.15
-63.41
-43.99
-24.36
-6.50
8.48
20.34
29.35
35.92
40.41
43.12
44.36
44.52
44.06
43.41
42.92
42.73
42.88
43.28
43.82
44.45
45.20
46.17
47.40
48.79
49.99
50.48
49.74
47.47
43.76
39.07
34.14
29.63
25.97
23.12
20.71
18.22
15.26
11.72
7.84
4.05
0.75
-1.97
-4.30
-6.73
-9.70
-13.43
-17.81
-22.45
-26.95
-31.00
-34.58
-37.83
-41.09
-44.77
-49.32
-55.17
-62.41
-70.51
-78.16
-83.38
-84.09
-78.89
-67.60
-51.46
-32.71
-13.87
3.03
16.84
27.29
34.70
39.58
42.38
43.50
43.27
42.12
40.52
38.93
37.64
36.79
36.31
36.12
36.20
36.54
37.25
38.35
39.71
41.06
42.06
42.42
42.02
40.90
39.26
37.35
35.39
33.53
31.79
30.05
28.11
25.77
22.98
19.89
16.80
13.99
11.53
9.26
6.83
3.97
0.63
-2.95
-6.41
-9.53
-12.35
-15.16
-18.35
-22.13
-26.43
-30.91
-35.17
-38.90
-42.08
-44.87
-47.63
-50.78
-54.75
-59.94
-66.60
-74.58
-83.04
-90.39
-94.52
-93.47
-86.10
-72.62
-54.62
-34.57
-15.05
1.99
15.57
25.61
32.60
37.22
40.08
41.64
42.27
42.30
42.02
41.63
41.24
40.86
40.47
40.07
39.72
39.57
39.77
40.38
41.27
42.20
42.82
42.81
42.01
40.41
38.15
35.42
32.42
29.30
26.18
23.12
20.11
17.10
14.02
10.85
7.64
4.52
1.64
-0.95
-3.26
-5.42
-7.55
-9.69
-11.86
-13.97
-15.96
-17.82
-19.65
-21.61
-23.94
-26.75
-29.97
-33.37
-36.56
-39.29
-41.54
-43.62
-46.16
-49.83
-55.09
-61.81
-69.14
-75.48
-78.89
-77.59
-70.57
-58.03
-41.31
-22.56
-4.07
12.33
25.63
35.65
42.73
47.39
50.07
51.06
50.66
49.22
47.23
45.24
43.67
42.71
42.32
42.23
42.18
42.00
41.71
41.46
41.39
41.52
41.71
41.67
41.02
39.48
36.90
33.40
29.30
25.05
21.13
17.85
15.27
13.23
11.42
9.56
7.43
4.99
2.33
-0.40
-3.06
-5.56
-7.98
-10.46
-13.30
-16.76
-20.94
-25.69
-30.57
-35.05
-38.73
-41.60
-44.03
-46.76
-50.58
-56.07
-63.29
-71.60
-79.61
-85.42
-87.09
-83.20
-73.35
-58.39
-40.23
-21.30
-3.90
10.37
20.81
27.57
31.39
33.14
33.63
33.49
33.06
32.57
32.11
31.80
31.69
31.78
32.03
32.32
32.55
32.70
32.86
33.17
33.67
34.25
34.63
34.42
33.34
31.32
28.54
25.33
22.02
18.90
16.06
13.52
11.20
9.02
6.84
4.55
2.06
-0.68
-3.56
-6.41
-8.97
-11.08
-12.77
-14.27
-15.93
-18.09
-20.90
-24.26
-27.90
-31.46
-34.66
-37.39
-39.71
-41.82
-44.08
-46.93
-50.90
-56.37
-63.33
-71.03
-77.93
-82.01
-81.38
-75.06
-63.33
-47.74
-30.54
-13.94
0.51
12.12
20.88
27.15
31.32
33.71
34.57
34.23
33.11
31.67
30.31
29.29
28.64
28.26
28.03
27.85
27.77
27.90
28.32
28.96
29.61
29.94
29.66
28.64
26.91
24.69
22.19
19.57
16.85
14.00
10.99
7.84
4.71
1.79
-0.79
-3.10
-5.39
-8.01
-11.22
-15.01
-19.13
-23.13
-26.67
-29.63
-32.19
-34.78
-37.92
-42.14
-47.74
-54.61
-62.09
-68.90
-73.36
-73.79
-69.15
-59.41
-45.68
-29.81
-13.87
0.49
12.30
21.33
27.79
32.10
34.70
35.92
35.99
35.19
33.81
32.22
30.81
29.90
29.62
29.87
30.39
30.95
31.48
32.12
33.05
34.32
35.65
36.50
36.33
34.80
31.98
28.34
24.49
21.01
18.22
16.15
14.50
12.89
10.89
8.24
4.90
1.09
-2.77
-6.22
-8.94
-10.88
-12.37
-13.94
-16.15
-19.25
-23.15
-27.40
-31.42
-34.80
-37.49
-39.77
-42.16
-45.22
-49.42
-55.09
-62.25
-70.37
-78.27
-84.09
-85.80
-81.85
-71.83
-56.79
-38.90
-20.67
-4.25
9.17
19.33
26.55
31.45
34.57
36.43
37.50
38.23
38.95
39.80
40.70
41.45
41.88
41.91
41.59
41.09
40.62
40.42
40.60
41.15
41.84
42.32
42.14
40.96
38.69
35.53
31.97
28.54
25.65
23.40
21.57
19.75
17.59
15.02
12.26
9.70
7.70
6.35
5.43
4.48
3.07
0.99
-1.71
-4.75
-7.76
-10.48
-12.82
-14.94
-17.19
-19.94
-23.43
-27.60
-32.06
-36.22
-39.61
-42.12
-44.05
-46.10
-49.04
-53.54
-59.86
-67.74
-76.22
-83.67
-88.02
-87.34
-80.52
-67.71
-50.51
-31.40
-12.93
2.97
15.37
24.25
30.14
33.73
35.70
36.62
37.02
37.23
37.40
37.51
37.40
37.04
36.47
35.91
35.56
35.54
35.80
36.23
36.74
37.19
37.53
37.62
37.31
36.41
34.81
32.55
29.84
27.06
24.57
22.56
21.03
19.72
18.33
16.56
14.31
11.60
8.55
5.30
2.02
-1.17
-4.08
-6.56
-8.59
-10.35
-12.19
-14.51
-17.56
-21.28
-25.38
-29.39
-32.91
-35.79
-38.15
-40.42
-43.21
-47.21
-52.84
-60.03
-67.93
-74.84
-78.64
-77.45
-70.37
-57.88
-41.79
-24.54
-8.44
5.03
15.41
22.99
28.38
32.09
34.41
35.47
35.43
34.61
33.43
32.36
31.74
31.66
31.94
32.33
32.58
32.66
32.70
32.99
33.68
34.71
35.75
36.31
35.92
34.33
31.64
28.20
24.52
21.05
18.06
15.63
13.58
11.63
9.52
7.07
4.26
1.25
-1.68
-4.30
-6.50
-8.36
-10.16
-12.27
-14.97
-18.39
-22.38
-26.65
-30.82
-34.62
-37.95
-40.88
-43.66
-46.65
-50.32
-55.16
-61.53
-69.23
-77.34
-84.04
-87.12
-84.60
-75.63
-60.87
-42.42
-23.04
-5.26
9.32
20.27
27.94
33.05
36.19
37.79
38.21
37.86
37.25
36.81
36.75
36.97
37.19
37.13
36.71
36.10
35.63
35.63
36.27
37.47
38.90
40.11
40.70
40.37
39.06
36.89
34.11
30.99
27.71
24.41
21.16
18.04
15.13
12.53
10.28
8.29
6.34
4.19
1.68
-1.15
-4.10
-6.88
-9.28
-11.36
-13.37
-15.68
-18.57
-22.09
-26.00
-29.94
-33.54
-36.64
-39.29
-41.78
-44.52
-48.03
-52.84
-59.36
-67.55
-76.57
-84.73
-89.78
-89.55
-82.86
-69.99
-52.74
-33.71
-15.51
0.05
12.23
21.17
27.44
31.62
34.11
35.25
35.36
34.87
34.24
33.81
33.66
33.66
33.57
33.23
32.68
32.19
32.14
32.77
34.05
35.62
36.89
37.29
36.50
34.61
32.00
29.15
26.47
24.05
21.70
19.07
15.85
11.97
7.62
3.29
-0.58
-3.72
-6.28
-8.68
-11.53
-15.21
-19.73
-24.67
-29.43
-33.50
-36.78
-39.52
-42.23
-45.50
-49.79
-55.37
-62.17
-69.62
-76.50
-81.06
-81.40
-76.17
-65.14
-49.48
-31.40
-13.44
2.33
14.87
24.08
30.51
34.82
37.56
39.01
39.37
38.86
37.80
36.56
35.46
34.73
34.42
34.46
34.78
35.33
36.10
37.09
38.24
39.42
40.30
40.55
39.80
37.87
34.79
30.89
26.70
22.85
19.76
17.52
15.88
14.29
12.21
9.35
5.80
1.98
-1.58
-4.54
-6.90
-9.07
-11.67
-15.21
-19.93
-25.53
-31.42
-36.88
-41.43
-45.07
-48.18
-51.51
-55.82
-61.80
-69.78
-79.54
-90.04
-99.41
-105.20
-105.08
-97.68
-83.21
-63.55
-41.62
-20.46
-2.31
11.81
21.97
28.93
33.58
36.65
38.67
40.01
40.96
41.69
42.26
42.64
42.79
42.65
42.31
41.97
41.89
42.38
43.62
45.61
48.01
50.22
51.49
51.23
49.21
45.66
41.17
36.47
32.16
28.50
25.46
22.72
19.91
16.69
12.89
8.60
4.10
-0.19
-3.94
-7.07
-9.84
-12.77
-16.40
-21.02
-26.50
-32.28
-37.67
-42.14
-45.61
-48.51
-51.56
-55.66
-61.49
-69.30
-78.66
-88.32
-96.33
-100.39
-98.56
-89.93
-75.01
-55.67
-34.52
-14.14
3.61
17.82
28.41
35.82
40.64
43.52
45.08
45.87
46.31
46.64
46.90
47.02
46.97
46.79
46.64
46.69
47.09
47.95
49.27
50.90
52.54
53.72
53.91
52.73
50.10
46.32
41.99
37.78
34.15
31.20
28.60
25.82
22.35
17.97
12.94
7.86
3.49
0.31
-1.63
-2.88
-4.29
-6.67
-10.45
-15.47
-21.08
-26.51
-31.18
-34.99
-38.31
-41.86
-46.41
-52.65
-60.93
-71.05
-81.98
-91.89
-98.30
-98.88
-92.19
-78.40
-59.29
-37.69
-16.55
1.95
16.79
28.02
36.19
41.93
45.68
47.75
48.43
48.14
47.37
46.61
46.15
46.10
46.37
46.76
47.14
47.50
47.97
48.71
49.76
50.93
51.78
51.78
50.52
47.91
44.19
39.96
35.85
32.28
29.35
26.77
24.11
20.96
17.18
12.88
8.42
4.23
0.64
-2.27
-4.68
-7.07
-10.01
-14.01
-19.22
-25.41
-32.03
-38.39
-43.97
-48.64
-52.74
-56.91
-62.00
-68.82
-77.83
-88.84
-100.56
-110.70
-116.41
-115.16
-105.75
-88.90
-66.98
-43.26
-20.76
-1.47
13.86
25.44
33.84
39.71
43.61
46.06
47.61
48.71
49.65
50.45
50.98
51.12
50.88
50.42
50.00
49.82
49.96
50.35
50.78
51.03
50.85
50.14
48.80
46.84
44.26
41.10
37.44
33.38
29.10
24.76
20.48
16.35
12.38
8.56
4.81
0.98
-3.15
-7.79
-12.96
-18.49
-24.00
-29.14
-33.68
-37.75
-41.72
-46.10
-51.41
-58.12
-66.53
-76.47
-87.00
-96.26
-101.73
-100.95
-92.58
-77.09
-56.70
-34.66
-14.04
3.24
16.76
27.20
35.56
42.55
48.30
52.52
54.95
55.61
54.96
53.67
52.36
51.39
50.81
50.43
50.13
49.97
50.23
51.15
52.73
54.51
55.65
55.28
52.91
48.65
43.23
37.64
32.69
28.76
25.62
22.65
19.11
14.59
9.20
3.56
-1.51
-5.41
-8.09
-10.11
-12.44
-15.96
-21.07
-27.42
-34.17
-40.33
-45.30
-49.07
-52.20
-55.56
-60.09
-66.52
-75.19
-85.76
-96.99
-106.75
-112.32
-111.21
-102.08
-85.36
-63.25
-38.98
-15.71
4.31
20.13
31.82
40.02
45.47
48.84
50.73
51.70
52.25
52.70
53.13
53.42
53.34
52.74
51.66
50.34
49.20
48.69
49.14
50.55
52.57
54.48
55.49
54.95
52.60
48.61
43.53
38.08
33.02
28.85
25.83
23.76
22.11
20.20
17.46
13.75
9.31
4.78
0.79
-2.39
-4.97
-7.55
-10.89
-15.48
-21.32
-27.92
-34.50
-40.34
-45.10
-48.84
-52.08
-55.49
-59.79
-65.62
-73.32
-82.72
-92.85
-101.88
-107.40
-107.06
-99.44
-84.61
-64.31
-41.35
-18.76
1.12
17.07
29.01
37.48
43.23
46.89
48.86
49.48
49.10
48.11
46.90
45.84
45.15
44.93
45.13
45.62
46.24
46.87
47.47
48.02
48.50
48.74
48.47
47.37
45.22
42.07
38.19
34.06
30.03
26.18
22.31
18.08
13.31
8.20
3.18
-1.29
-5.06
-8.41
-11.91
-16.12
-21.25
-27.08
-33.06
-38.67
-43.63
-48.08
-52.49
-57.42
-63.44
-70.91
-79.71
-89.06
-97.33
-102.28
-101.68
-94.12
-79.67
-60.03
-37.97
-16.47
2.20
16.96
27.82
35.42
40.51
43.68
45.40
46.12
46.36
46.67
47.39
48.56
49.87
50.84
51.07
50.49
49.42
48.50
48.32
49.11
50.60
52.02
52.48
51.32
48.45
44.31
39.67
35.21
31.30
27.89
24.68
21.26
17.33
12.88
8.10
3.39
-0.89
-4.52
-7.59
-10.48
-13.76
-17.98
-23.34
-29.64
-36.30
-42.58
-47.92
-52.15
-55.55
-58.74
-62.53
-67.76
-75.06
-84.49
-95.12
-104.87
-110.84
-110.16
-101.11
-84.00
-61.16
-36.26
-12.92
6.38
20.83
30.93
37.79
42.37
45.21
46.55
46.62
45.87
44.80
43.85
43.22
42.86
42.59
42.28
41.91
41.62
41.61
41.99
42.70
43.44
43.77
43.24
41.58
38.75
34.97
30.62
26.05
21.55
17.25
13.22
9.44
5.90
2.58
-0.61
-3.87
-7.50
-11.76
-16.73
-22.23
-27.79
-32.84
-36.99
-40.20
-42.88
-45.79
-49.79
-55.61
-63.55
-73.21
-83.39
-92.05
-96.72
-95.15
-86.20
-70.30
-49.61
-27.20
-6.14
11.49
24.92
34.44
40.81
44.67
46.36
46.06
44.13
41.27
38.37
36.22
35.13
34.92
35.03
34.98
34.60
34.12
33.94
34.37
35.39
36.53
37.13
36.47
34.07
29.91
24.35
18.06
11.84
6.34
1.82
-1.92
-5.44
-9.43
-14.34
-20.15
-26.40
-32.40
-37.56
-41.71
-45.10
-48.30
-52.08
-57.17
-64.13
-73.03
-83.07
-92.43
-98.49
-98.60
-91.06
-75.92
-55.17
-32.05
-9.92
8.76
23.00
33.04
39.79
44.13
46.59
47.43
46.91
45.46
43.71
42.27
41.52
41.45
41.78
42.03
41.89
41.34
40.66
40.19
40.14
40.40
40.53
39.94
38.16
34.96
30.50
25.15
19.43
13.86
8.85
4.64
1.21
-1.76
-4.75
-8.29
-12.71
-17.99
-23.74
-29.40
-34.47
-38.75
-42.46
-46.15
-50.57
-56.44
-64.20
-73.74
-84.21
-93.83
-100.24
-100.98
-94.40
-80.31
-60.29
-37.20
-14.36
5.57
21.14
32.22
39.60
44.26
47.01
48.31
48.47
47.83
46.90
46.18
46.05
46.56
47.48
48.47
49.21
49.66
49.94
50.25
50.65
50.96
50.80
49.73
47.51
44.20
40.11
35.64
31.09
26.56
21.96
17.18
12.26
7.42
3.01
-0.78
-3.98
-6.94
-10.16
-14.06
-18.71
-23.87
-29.00
-33.61
-37.44
-40.59
-43.51
-46.83
-51.27
-57.46
-65.72
-75.77
-86.47
-95.80
-101.16
-100.16
-91.42
-75.30
-53.83
-30.15
-7.49
11.73
26.39
36.65
43.35
47.53
49.98
51.14
51.24
50.51
49.27
47.93
46.85
46.25
46.16
46.40
46.73
46.97
47.01
46.86
46.57
46.11
45.37
44.16
42.20
39.31
35.38
30.52
25.03
19.33
13.87
9.01
4.90
1.47
-1.55
-4.53
-7.84
-11.74
-16.33
-21.54
-27.12
-32.76
-38.11
-42.95
-47.22
-51.13
-55.13
-59.94
-66.29
-74.64
-84.70
-95.10
-103.44
-106.83
-102.87
-90.61
-71.07
-46.98
-21.90
0.89
19.35
32.87
42.00
47.78
51.18
52.89
53.35
52.93
52.06
51.18
50.62
50.52
50.71
50.93
50.91
50.56
50.07
49.70
49.71
50.05
50.36
50.08
48.69
45.97
42.19
37.95
33.92
30.52
27.72
25.13
22.17
18.46
13.99
9.08
4.24
-0.12
-3.89
-7.36
-11.00
-15.26
-20.32
-26.00
-31.82
-37.21
-41.77
-45.43
-48.55
-51.73
-55.81
-61.58
-69.52
-79.41
-90.10
-99.36
-104.41
-102.71
-92.92
-75.61
-53.14
-28.99
-6.54
11.90
25.55
34.86
40.91
44.71
46.94
47.90
47.86
47.15
46.24
45.49
45.10
44.99
44.90
44.59
43.97
43.15
42.38
41.90
41.86
42.20
42.66
42.78
42.06
40.06
36.58
31.79
26.22
20.62
15.67
11.75
8.78
6.30
3.66
0.34
-3.89
-8.91
-14.32
-19.65
-24.52
-28.75
-32.41
-35.83
-39.45
-43.81
-49.47
-56.76
-65.59
-75.08
-83.54
-88.66
-88.20
-80.76
-66.44
-46.94
-25.05
-3.77
14.57
28.77
38.81
45.33
49.20
51.18
51.78
51.31
50.03
48.20
46.14
44.21
42.68
41.71
41.29
41.27
41.51
41.89
42.32
42.70
42.83
42.40
41.11
38.78
35.46
31.37
26.82
22.05
17.21
12.35
7.51
2.79
-1.66
-5.71
-9.32
-12.56
-15.66
-18.91
-22.55
-26.68
-31.16
-35.72
-39.99
-43.75
-47.02
-50.14
-53.68
-58.34
-64.68
-72.86
-82.31
-91.52
-98.21
-99.87
-94.62
-82.01
-63.28
-41.12
-18.73
1.21
17.16
28.92
37.13
42.66
46.22
48.13
48.54
47.74
46.20
44.49
43.13
42.25
41.67
40.94
39.64
37.75
35.61
33.81
32.86
32.78
33.12
33.07
31.85
29.12
25.05
20.28
15.58
11.52
8.26
5.53
2.79
-0.54
-4.89
-10.30
-16.45
-22.77
-28.59
-33.46
-37.25
-40.26
-43.16
-46.87
-52.26
-59.82
-69.22
-79.14
-87.34
-91.21
-88.66
-78.91
-62.82
-42.69
-21.48
-1.84
14.57
27.22
36.44
42.89
47.15
49.54
50.25
49.48
47.62
45.20
42.75
40.68
39.16
38.11
37.39
36.86
36.47
36.28
36.31
36.48
36.51
36.09
34.97
33.05
30.42
27.30
23.88
20.29
16.55
12.66
8.67
4.70
0.86
-2.79
-6.34
-9.96
-13.86
-18.13
-22.67
-27.25
-31.56
-35.40
-38.70
-41.67
-44.68
-48.28
-53.08
-59.59
-67.99
-77.77
-87.47
-94.85
-97.38
-93.11
-81.48
-63.65
-42.16
-20.12
-0.18
16.12
28.47
37.30
43.32
47.07
48.80
48.71
47.16
44.76
42.22
40.15
38.87
38.26
37.96
37.50
36.71
35.70
34.90
34.72
35.33
36.50
37.58
37.75
36.34
33.08
28.18
22.30
16.26
10.81
6.35
2.84
-0.13
-3.15
-6.72
-11.03
-15.91
-20.90
-25.46
-29.14
-31.84
-33.81
-35.61
-38.02
-41.80
-47.53
-55.33
-64.66
-74.13
-81.71
-85.11
-82.50
-73.13
-57.72
-38.35
-17.74
1.47
17.49
29.54
37.80
42.83
45.29
45.72
44.54
42.23
39.32
36.39
33.87
31.98
30.70
29.83
29.19
28.72
28.48
28.64
29.21
29.99
30.51
30.18
28.50
25.30
20.88
15.89
11.10
7.08
3.95
1.34
-1.41
-4.93
-9.52
-15.04
-20.96
-26.65
-31.64
-35.79
-39.32
-42.71
-46.62
-51.71
-58.47
-66.88
-76.02
-84.02
-88.38
-86.74
-77.89
-62.32
-42.21
-20.67
-0.71
15.71
27.98
36.50
42.08
45.39
46.74
46.30
44.38
41.62
38.89
36.98
36.27
36.65
37.54
38.30
38.48
38.06
37.32
36.66
36.29
36.09
35.72
34.70
32.65
29.45
25.18
20.17
14.90
9.88
5.51
1.95
-0.97
-3.72
-6.90
-11.00
-16.10
-21.88
-27.69
-32.86
-36.98
-40.05
-42.50
-44.98
-48.22
-52.89
-59.41
-67.73
-77.14
-85.99
-91.95
-92.55
-86.07
-72.32
-52.86
-30.62
-8.88
9.74
23.94
33.74
40.00
43.79
45.85
46.54
46.00
44.46
42.39
40.41
39.11
38.76
39.22
40.06
40.72
40.85
40.43
39.73
39.13
38.86
38.81
38.53
37.46
35.12
31.34
26.35
20.61
14.74
9.21
4.34
0.17
-3.44
-6.72
-9.95
-13.32
-16.94
-20.72
-24.51
-28.09
-31.34
-34.31
-37.18
-40.27
-43.90
-48.38
-54.00
-60.81
-68.39
-75.66
-80.80
-81.75
-76.81
-65.47
-48.76
-28.96
-8.89
8.96
23.15
33.35
40.00
43.80
45.36
45.07
43.38
40.84
38.11
35.80
34.21
33.26
32.58
31.78
30.65
29.32
28.13
27.44
27.40
27.83
28.25
28.10
26.90
24.51
21.08
17.06
12.98
9.19
5.78
2.49
-1.04
-5.12
-9.78
-14.76
-19.62
-23.98
-27.69
-30.92
-34.06
-37.65
-42.32
-48.52
-56.44
-65.64
-74.89
-82.17
-85.17
-82.00
-72.00
-56.08
-36.53
-16.23
2.22
17.22
28.39
36.19
41.46
44.87
46.77
47.22
46.34
44.42
42.01
39.80
38.32
37.80
38.06
38.69
39.19
39.29
38.95
38.32
37.53
36.60
35.36
33.61
31.25
28.28
24.86
21.20
17.44
13.68
9.97
6.40
3.08
0.07
-2.70
-5.42
-8.37
-11.77
-15.64
-19.85
-24.16
-28.35
-32.35
-36.22
-40.14
-44.41
-49.46
-55.78
-63.69
-72.95
-82.39
-89.89
-92.91
-89.37
-78.56
-61.56
-40.94
-19.87
-1.02
14.10
25.26
33.09
38.44
41.98
44.03
44.72
44.22
42.88
41.14
39.46
38.21
37.51
37.25
37.16
36.98
36.58
36.02
35.57
35.43
35.66
36.03
36.02
35.09
32.86
29.31
24.73
19.67
14.73
10.37
6.79
3.87
1.27
-1.49
-4.84
-8.96
-13.69
-18.64
-23.24
-27.13
-30.23
-32.88
-35.72
-39.48
-44.77
-51.81
-60.19
-68.79
-75.77
-79.06
-76.85
-68.37
-54.26
-36.42
-17.46
0.19
14.93
26.21
34.28
39.73
43.04
44.43
44.10
42.30
39.58
36.57
33.83
31.66
30.13
29.12
28.53
28.26
28.29
28.58
28.99
29.29
29.18
28.33
26.46
23.48
19.52
14.96
10.33
6.05
2.32
-1.07
-4.59
-8.71
-13.62
-19.10
-24.59
-29.48
-33.39
-36.42
-39.11
-42.29
-46.77
-53.09
-61.15
-70.12
-78.42
-83.97
-84.70
-79.22
-67.39
-50.47
-30.83
-11.20
6.08
19.68
29.37
35.75
39.67
41.88
42.88
42.91
42.20
41.11
40.03
39.35
39.29
39.79
40.55
41.09
41.06
40.28
38.94
37.47
36.27
35.47
34.75
33.47
30.98
26.95
21.61
15.62
9.82
4.86
0.92
-2.28
-5.39
-9.09
-13.80
-19.49
-25.62
-31.40
-36.07
-39.26
-41.15
-42.41
-43.94
-46.58
-50.97
-57.34
-65.44
-74.38
-82.53
-87.67
-87.59
-80.80
-67.27
-48.60
-27.54
-7.14
10.28
23.62
33.06
39.54
44.16
47.69
50.39
52.13
52.69
51.98
50.23
47.86
45.37
43.16
41.35
39.87
38.54
37.25
36.01
34.92
34.02
33.18
32.04
30.16
27.18
23.03
18.04
12.86
8.29
4.93
2.96
1.98
1.18
-0.36
-3.23
-7.45
-12.44
-17.34
-21.40
-24.36
-26.56
-28.78
-31.94
-36.86
-43.91
-52.89
-62.91
-72.36
-79.13
-81.12
-76.88
-66.21
-50.36
-31.70
-12.93
3.72
17.11
27.14
34.39
39.59
43.18
45.30
45.98
45.35
43.80
41.82
39.96
38.53
37.65
37.23
37.13
37.21
37.37
37.51
37.49
37.16
36.33
34.87
32.74
30.06
27.06
24.03
21.22
18.74
16.48
14.17
11.56
8.50
5.09
1.62
-1.62
-4.53
-7.27
-10.22
-13.81
-18.21
-23.30
-28.67
-33.81
-38.33
-42.14
-45.51
-48.95
-53.16
-58.79
-66.20
-75.23
-84.81
-93.05
-97.53
-96.03
-87.40
-72.09
-52.16
-30.61
-10.39
6.52
19.46
28.84
35.58
40.52
44.10
46.52
47.91
48.52
48.69
48.75
48.87
49.05
49.15
49.05
48.69
48.13
47.51
47.04
46.84
46.88
46.95
46.63
45.51
43.31
40.05
36.07
31.82
27.78
24.24
21.29
18.82
16.70
14.68
12.58
10.23
7.52
4.46
1.20
-2.03
-5.05
-7.78
-10.41
-13.21
-16.47
-20.33
-24.68
-29.21
-33.55
-37.42
-40.81
-43.87
-46.95
-50.43
-54.76
-60.34
-67.38
-75.63
-84.09
-90.90
-93.76
-90.66
-80.73
-64.73
-44.93
-24.33
-5.61
9.60
20.94
28.95
34.49
38.26
40.62
41.77
41.89
41.31
40.45
39.66
39.14
38.91
38.84
38.83
38.83
38.92
39.26
39.97
40.97
41.95
42.44
41.95
40.30
37.61
34.32
30.93
27.74
24.76
21.76
18.51
14.91
11.20
7.68
4.61
1.96
-0.64
-3.66
-7.47
-12.12
-17.30
-22.49
-27.18
-31.12
-34.40
-37.43
-40.76
-45.00
-50.68
-58.07
-66.92
-76.29
-84.45
-89.11
-88.18
-80.50
-66.44
-47.91
-27.79
-8.91
6.84
18.84
27.54
33.84
38.47
41.70
43.53
43.97
43.32
42.18
41.23
40.89
41.15
41.66
41.97
41.77
41.15
40.44
40.05
40.21
40.79
41.41
41.55
40.82
39.04
36.33
32.99
29.39
25.90
22.76
20.07
17.68
15.34
12.70
9.53
5.84
1.90
-1.87
-5.09
-7.62
-9.66
-11.58
-13.86
-16.85
-20.68
-25.25
-30.26
-35.30
-40.01
-44.11
-47.59
-50.79
-54.33
-59.05
-65.58
-73.90
-83.09
-91.22
-95.85
-94.79
-86.93
-72.71
-54.01
-33.51
-13.87
3.06
16.45
26.37
33.34
37.97
40.74
42.01
42.15
41.58
40.70
39.82
39.06
38.38
37.64
36.77
35.91
35.32
35.34
36.16
37.66
39.38
40.60
40.64
39.09
36.03
32.01
27.78
24.03
21.12
18.97
17.17
15.22
12.72
9.59
6.04
2.48
-0.69
-3.25
-5.33
-7.30
-9.61
-12.57
-16.24
-20.37
-24.58
-28.53
-32.07
-35.30
-38.52
-42.16
-46.67
-52.41
-59.49
-67.54
-75.43
-81.43
-83.51
-80.02
-70.31
-55.11
-36.36
-16.68
1.42
16.25
27.16
34.40
38.72
40.93
41.65
41.29
40.13
38.50
36.83
35.51
34.77
34.63
34.90
35.29
35.64
35.94
36.30
36.85
37.55
38.12
38.15
37.23
35.13
31.95
28.06
23.99
20.24
17.11
14.58
12.35
9.98
7.09
3.57
-0.36
-4.24
-7.65
-10.32
-12.42
-14.41
-16.85
-20.19
-24.45
-29.30
-34.16
-38.49
-42.08
-45.12
-48.14
-51.75
-56.53
-62.77
-70.37
-78.62
-86.21
-91.22
-91.61
-85.78
-73.30
-55.26
-34.03
-12.61
6.41
21.50
32.40
39.79
44.65
47.83
49.77
50.71
50.88
50.65
50.46
50.61
51.16
51.82
52.24
52.20
51.85
51.73
52.55
54.89
58.85
63.78
68.31
70.69
69.24
63.02
52.17
37.97
22.50
7.92
-4.19
-13.19
-19.43
-23.77
-27.07
-29.77
-31.91
-33.34
-34.06
-34.44
-35.08
-36.56
-39.16
-42.65
-46.43
-49.77
-52.10
-53.32
-53.73
-54.03
-55.02
-57.46
-61.85
-68.24
-76.03
-83.84
-89.68
-91.36
-87.19
-76.64
-60.58
-41.09
-20.86
-2.28
13.12
24.87
33.29
39.02
42.60
44.37
44.58
43.60
41.98
40.39
39.38
39.22
39.76
40.56
41.16
41.27
40.87
40.23
39.69
39.55
39.80
40.15
40.03
38.86
36.24
32.17
27.08
21.68
16.63
12.30
8.63
5.25
1.72
-2.28
-6.79
-11.63
-16.48
-21.07
-25.24
-28.94
-32.30
-35.55
-39.12
-43.59
-49.52
-57.25
-66.50
-76.20
-84.37
-88.60
-86.70
-77.62
-61.97
-42.00
-20.92
-1.79
13.44
24.34
31.68
36.72
40.40
43.04
44.44
44.39
43.06
41.05
39.19
38.07
37.79
38.02
38.32
38.46
38.53
38.87
39.72
40.99
42.19
42.66
41.80
39.37
35.61
31.14
26.68
22.76
19.62
17.05
14.61
11.84
8.45
4.45
0.16
-4.00
-7.72
-10.95
-13.96
-17.18
-20.96
-25.34
-30.01
-34.47
-38.26
-41.21
-43.57
-45.94
-49.12
-53.80
-60.38
-68.74
-78.01
-86.59
-92.27
-92.87
-86.92
-74.22
-56.20
-35.42
-14.83
3.18
17.31
27.44
34.21
38.54
41.17
42.60
43.16
43.19
43.05
43.05
43.33
43.79
44.14
44.13
43.67
42.91
42.09
41.45
40.99
40.51
39.69
38.25
36.08
33.32
30.19
26.94
23.74
20.64
17.67
14.86
12.29
10.03
8.06
6.18
4.09
1.44
-1.97
-6.14
-10.78
-15.46
-19.78
-23.56
-26.86
-29.98
-33.26
-37.03
-41.59
-47.19
-53.94
-61.55
-69.12
-75.04
-77.31
-74.24
-65.10
-50.62
-32.80
-14.29
2.54
16.24
26.46
33.68
38.61
41.82
43.53
43.77
42.63
40.43
37.77
35.34
33.68
32.97
33.03
33.47
33.89
34.09
34.14
34.20
34.39
34.60
34.47
33.48
31.22
27.53
22.68
17.26
11.97
7.40
3.76
0.89
-1.68
-4.49
-7.92
-12.03
-16.57
-21.12
-25.29
-28.87
-31.95
-34.87
-38.17
-42.48
-48.32
-55.93
-64.97
-74.35
-82.23
-86.41
-85.02
-77.10
-63.12
-44.84
-24.80
-5.53
11.08
24.10
33.49
39.72
43.46
45.33
45.80
45.25
44.05
42.55
41.09
40.00
39.42
39.34
39.57
39.83
39.92
39.79
39.55
39.34
39.22
39.06
38.56
37.36
35.20
32.00
27.98
23.45
18.84
14.45
10.45
6.88
3.67
0.71
-2.16
-5.13
-8.47
-12.35
-16.81
-21.63
-26.42
-30.80
-34.54
-37.76
-40.92
-44.58
-49.36
-55.71
-63.73
-73.03
-82.41
-89.96
-93.39
-90.71
-81.06
-65.21
-45.36
-24.44
-5.15
10.80
22.91
31.61
37.69
41.92
44.78
46.60
47.58
47.96
48.00
47.92
47.90
47.94
47.97
47.84
47.44
46.78
46.07
45.58
45.53
45.87
46.24
46.06
44.81
42.20
38.32
33.71
29.05
25.01
21.95
19.88
18.41
16.94
14.92
12.01
8.27
4.01
-0.23
-4.02
-7.20
-9.92
-12.60
-15.67
-19.40
-23.76
-28.43
-33.00
-37.12
-40.74
-44.09
-47.63
-51.93
-57.47
-64.55
-73.03
-82.16
-90.41
-95.66
-95.75
-89.23
-76.01
-57.55
-36.47
-15.66
2.63
17.24
28.12
35.80
40.93
43.90
45.02
44.58
43.07
41.12
39.28
37.87
36.94
36.31
35.82
35.45
35.33
35.61
36.32
37.31
38.23
38.67
38.32
37.05
34.94
32.20
29.10
25.92
22.91
20.24
17.93
15.76
13.40
10.52
7.00
3.05
-0.84
-4.17
-6.70
-8.58
-10.30
-12.43
-15.30
-18.85
-22.73
-26.42
-29.56
-32.03
-34.03
-35.95
-38.26
-41.48
-46.05
-52.18
-59.57
-67.17
-73.23
-75.64
-72.66
-63.59
-49.17
-31.33
-12.58
4.78
19.27
30.32
38.04
42.84
45.20
45.52
44.27
42.00
39.33
36.80
34.81
33.51
32.82
32.53
32.39
32.23
32.06
32.05
32.37
33.05
33.82
34.11
33.33
31.06
27.44
23.05
18.68
15.03
12.34
10.35
8.47
6.13
3.00
-0.84
-4.96
-8.78
-11.82
-13.92
-15.30
-16.45
-17.97
-20.32
-23.62
-27.63
-31.87
-35.82
-39.15
-41.81
-44.11
-46.56
-49.87
-54.71
-61.52
-70.11
-79.42
-87.49
-91.84
-90.27
-81.74
-66.80
-47.53
-26.78
-7.27
9.18
21.95
31.24
37.64
41.65
43.66
43.98
43.07
41.61
40.26
39.46
39.28
39.46
39.50
39.09
38.15
36.92
35.88
35.48
35.90
36.96
38.15
38.76
38.23
36.24
32.92
28.76
24.42
20.50
17.33
14.84
12.67
10.39
7.64
4.34
0.66
-3.06
-6.52
-9.56
-12.29
-14.99
-17.96
-21.40
-25.26
-29.28
-33.09
-36.33
-38.87
-40.86
-42.74
-45.12
-48.64
-53.79
-60.76
-69.19
-77.94
-85.19
-88.77
-86.80
-78.40
-64.11
-45.76
-25.93
-7.13
8.85
21.25
30.13
36.06
39.68
41.47
41.80
40.94
39.23
37.09
35.01
33.38
32.45
32.12
32.09
32.00
31.66
31.13
30.74
30.81
31.42
32.30
32.88
32.53
30.79
27.56
23.12
18.02
12.87
8.14
4.08
0.62
-2.45
-5.44
-8.52
-11.71
-14.89
-17.86
-20.51
-22.86
-25.10
-27.49
-30.34
-33.89
-38.40
-44.00
-50.58
-57.51
-63.55
-66.98
-66.09
-59.83
-48.37
-33.13
-16.39
-0.52
12.80
22.88
29.91
34.50
37.22
38.38
38.09
36.52
34.06
31.31
28.86
27.07
26.00
25.38
24.86
24.22
23.50
22.94
22.84
23.37
24.36
25.36
25.80
25.17
23.25
20.14
16.22
11.99
7.99
4.61
2.04
0.15
-1.45
-3.29
-5.94
-9.66
-14.34
-19.53
-24.67
-29.26
-33.13
-36.41
-39.49
-42.83
-46.96
-52.30
-59.11
-67.17
-75.54
-82.53
-85.99
-84.01
-75.69
-61.55
-43.49
-24.16
-6.09
8.99
20.44
28.51
33.89
37.31
39.24
39.99
39.81
39.06
38.13
37.37
36.96
36.84
36.82
36.69
36.39
36.04
35.85
36.06
36.68
37.51
38.15
38.19
37.32
35.45
32.69
29.30
25.53
21.55
17.43
13.21
9.00
5.02
1.50
-1.44
-3.93
-6.38
-9.28
-12.99
-17.51
-22.49
-27.43
-31.95
-35.92
-39.51
-43.07
-46.95
-51.46
-56.90
-63.40
-70.76
-78.12
-83.85
-85.87
-82.31
-72.30
-56.53
-37.04
-16.62
2.17
17.69
29.42
37.67
43.07
46.20
47.47
47.21
45.84
43.86
41.77
39.96
38.62
37.76
37.26
37.01
36.91
36.88
36.93
37.03
37.20
37.32
37.23
36.66
35.32
33.00
29.62
25.40
20.73
16.16
12.17
9.06
6.73
4.80
2.68
-0.18
-4.10
-9.03
-14.58
-20.17
-25.25
-29.52
-32.98
-35.96
-38.99
-42.66
-47.44
-53.55
-60.74
-68.13
-74.23
-77.19
-75.28
-67.60
-54.46
-37.41
-18.78
-0.95
14.29
26.09
34.45
39.84
42.78
43.76
43.18
41.52
39.35
37.37
36.07
35.68
36.06
36.85
37.62
38.07
38.16
38.00
37.71
37.28
36.55
35.30
33.35
30.74
27.68
24.39
21.04
17.65
14.17
10.55
6.86
3.25
-0.11
-3.14
-5.93
-8.73
-11.87
-15.59
-19.99
-24.88
-29.85
-34.36
-38.01
-40.69
-42.66
-44.52
-47.01
-50.85
-56.50
-63.95
-72.52
-80.80
-86.76
-88.22
-83.55
-72.29
-55.47
-35.39
-14.84
3.70
18.72
29.80
37.33
42.07
44.79
46.09
46.43
46.21
45.77
45.34
44.97
44.63
44.19
43.61
42.95
42.35
42.01
42.02
42.37
42.87
43.20
42.98
41.88
39.75
36.67
32.94
29.00
25.26
21.90
18.86
15.82
12.44
8.51
4.15
-0.24
-4.21
-7.44
-9.93
-12.01
-14.16
-16.79
-20.08
-23.93
-28.05
-32.11
-35.88
-39.27
-42.37
-45.50
-49.16
-53.99
-60.43
-68.39
-76.89
-84.12
-87.77
-85.86
-77.50
-63.27
-45.07
-25.53
-7.11
8.53
20.73
29.66
35.88
39.98
42.38
43.38
43.26
42.36
41.04
39.67
38.50
37.70
37.32
37.40
37.91
38.76
39.77
40.69
41.26
41.26
40.55
39.01
36.61
33.39
29.49
25.20
20.92
16.98
13.56
10.65
8.00
5.35
2.46
-0.81
-4.46
-8.44
-12.58
-16.68
-20.50
-23.92
-26.93
-29.72
-32.58
-35.87
-39.91
-45.00
-51.32
-58.70
-66.48
-73.32
-77.40
-76.92
-70.73
-58.95
-42.94
-24.98
-7.41
7.96
20.25
29.38
35.76
39.88
42.13
42.80
42.17
40.62
38.64
36.67
35.03
33.76
32.78
31.87
30.93
30.01
29.30
28.97
29.08
29.46
29.80
29.73
29.08
27.81
26.11
24.18
22.15
20.01
17.63
14.87
11.62
8.00
4.22
0.59
-2.67
-5.55
-8.23
-11.06
-14.31
-18.03
-22.02
-25.94
-29.49
-32.58
-35.37
-38.22
-41.55
-45.80
-51.36
-58.39
-66.60
-75.00
-81.84
-84.98
-82.62
-73.96
-59.74
-41.98
-23.30
-6.10
8.18
19.16
27.23
33.00
36.97
39.37
40.31
39.99
38.82
37.31
36.02
35.29
35.15
35.39
35.67
35.74
35.52
35.15
34.84
34.69
34.59
34.24
33.28
31.52
29.00
26.03
22.98
20.16
17.64
15.24
12.66
9.71
6.33
2.75
-0.75
-3.98
-6.99
-10.00
-13.28
-16.98
-20.94
-24.86
-28.39
-31.35
-33.91
-36.47
-39.64
-44.05
-50.06
-57.47
-65.36
-72.09
-75.72
-74.62
-68.10
-56.71
-42.02
-26.03
-10.54
3.35
15.18
24.86
32.35
37.54
40.29
40.73
39.32
36.85
34.14
31.88
30.40
29.75
29.68
29.88
30.06
30.05
29.89
29.72
29.73
29.98
30.29
30.27
29.40
27.30
23.91
19.58
14.91
10.53
6.89
4.07
1.75
-0.61
-3.59
-7.56
-12.52
-18.06
-23.55
-28.29
-31.87
-34.31
-36.16
-38.21
-41.36
-46.28
-53.12
-61.35
-69.67
-76.21
-78.90
-76.14
-67.32
-53.16
-35.57
-17.00
0.25
14.63
25.57
33.24
38.20
40.98
42.02
41.68
40.33
38.43
36.47
34.84
33.78
33.32
33.34
33.63
34.01
34.35
34.58
34.68
34.63
34.36
33.78
32.72
30.99
28.47
25.10
21.04
16.58
12.13
8.07
4.69
2.01
-0.18
-2.28
-4.72
-7.84
-11.71
-16.13
-20.68
-24.89
-28.46
-31.38
-33.91
-36.52
-39.76
-44.13
-50.00
-57.41
-65.93
-74.53
-81.51
-84.91
-83.05
-75.14
-61.70
-44.54
-26.11
-8.79
5.83
17.19
25.56
31.59
35.90
38.80
40.42
40.85
40.34
39.27
38.05
37.01
36.28
35.87
35.68
35.65
35.76
36.02
36.45
36.96
37.40
37.46
36.82
35.17
32.39
28.55
23.95
19.04
14.35
10.31
7.16
4.85
3.07
1.29
-1.01
-4.17
-8.19
-12.77
-17.37
-21.53
-25.05
-28.00
-30.72
-33.61
-37.13
-41.68
-47.58
-54.87
-63.07
-70.84
-76.29
-77.34
-72.53
-61.70
-46.11
-28.07
-10.18
5.51
17.97
27.11
33.42
37.53
39.86
40.70
40.32
39.08
37.42
35.81
34.55
33.72
33.20
32.84
32.60
32.54
32.86
33.63
34.80
36.06
36.95
37.04
36.00
33.76
30.47
26.51
22.39
18.60
15.44
12.91
10.76
8.52
5.86
2.71
-0.68
-3.90
-6.62
-8.86
-10.87
-13.15
-16.10
-19.88
-24.33
-29.10
-33.78
-38.10
-42.05
-45.87
-50.04
-55.10
-61.55
-69.54
-78.68
-87.82
-95.10
-98.37
-95.86
-86.91
-72.32
-54.15
-35.11
-17.67
-3.43
7.10
14.22
18.53
20.66
21.02
19.96
17.80
14.95
11.78
8.56
5.40
2.29
-0.86
-4.17
-7.75
-11.65
-15.79
-19.98
-23.92
-27.35
-30.09
-32.13
-33.46
-33.99
-33.45
-31.42
-27.48
-21.47
-13.51
-3.96
6.67
17.87
29.04
39.50
48.43
55.08
58.94
59.97
58.60
55.48
51.25
46.26
40.52
33.83
25.91
16.55
5.77
-6.18
-18.55
-30.09
-39.08
-43.65
-42.40
-34.97
-22.32
-6.52
9.84
24.49
36.04
44.19
49.39
52.39
53.73
53.63
52.14
49.40
45.85
42.12
38.86
36.46
34.90
33.94
33.28
32.80
32.58
32.78
33.41
34.16
34.49
33.82
31.79
28.43
24.15
19.57
15.28
11.59
8.49
5.64
2.57
-1.14
-5.68
-10.92
-16.48
-21.83
-26.56
-30.50
-33.88
-37.32
-41.65
-47.58
-55.30
-64.12
-72.45
-78.07
-78.81
-73.34
-61.71
-45.42
-26.96
-8.90
6.78
19.19
28.41
34.98
39.45
42.06
42.87
42.00
39.91
37.35
35.15
33.81
33.35
33.32
33.18
32.58
31.58
30.57
29.99
30.02
30.42
30.66
30.14
28.41
25.33
21.09
16.14
11.05
6.32
2.29
-1.03
-4.03
-7.22
-11.11
-15.87
-21.21
-26.48
-31.02
-34.46
-36.93
-39.12
-41.87
-46.02
-52.03
-59.84
-68.70
-77.18
-83.27
-84.85
-80.36
-69.38
-52.98
-33.44
-13.52
4.35
18.76
29.45
36.90
41.86
44.93
46.40
46.50
45.53
43.98
42.39
41.20
40.53
40.22
39.92
39.32
38.30
36.97
35.63
34.55
33.86
33.39
32.79
31.60
29.47
26.29
22.21
17.62
13.02
8.81
5.16
1.93
-1.22
-4.71
-8.82
-13.56
-18.60
-23.54
-27.96
-31.70
-34.83
-37.69
-40.79
-44.71
-49.94
-56.72
-64.68
-72.70
-78.95
-81.27
-77.93
-68.23
-52.95
-34.16
-14.60
3.20
17.53
27.87
34.68
38.91
41.49
43.00
43.60
43.19
41.75
39.45
36.77
34.30
32.55
31.75
31.79
32.34
33.05
33.63
33.90
33.72
32.94
31.43
29.07
25.86
21.87
17.21
12.01
6.42
0.64
-5.09
-10.49
-15.33
-19.47
-22.97
-26.03
-29.03
-32.40
-36.59
-41.97
-48.59
-55.98
-62.93
-67.75
-68.59
-64.23
-54.54
-40.69
-24.70
-8.84
5.19
16.61
25.45
32.16
37.13
40.51
42.32
42.64
41.90
40.74
39.85
39.69
40.38
41.65
43.01
43.92
43.91
42.72
40.32
36.87
32.60
27.72
22.35
16.58
10.54
4.53
-0.97
-5.47
-8.71
-10.88
-12.60
-14.71
-17.89
-22.33
-27.63
-33.02
-37.69
-41.14
-43.42
-45.03
-46.83
-49.70
-54.36
-61.06
-69.34
-77.89
-84.60
-87.11
-83.50
-73.07
-56.76
-36.88
-16.38
2.14
17.15
28.31
36.16
41.53
45.08
47.21
48.11
48.01
47.24
46.16
45.10
44.25
43.72
43.51
43.60
43.96
44.49
45.04
45.45
45.53
45.08
43.94
41.95
39.08
35.48
31.50
27.59
24.15
21.31
18.85
16.32
13.26
9.52
5.29
1.03
-2.86
-6.25
-9.45
-12.94
-17.10
-21.92
-27.04
-31.91
-36.12
-39.67
-42.98
-46.71
-51.54
-57.88
-65.78
-74.76
-83.71
-90.99
-94.62
-92.81
-84.58
-70.20
-51.29
-30.36
-10.09
7.47
21.29
31.38
38.37
43.06
46.05
47.69
48.14
47.62
46.48
45.13
43.90
42.98
42.33
41.80
41.29
40.73
40.22
39.83
39.56
39.36
39.01
38.23
36.72
34.22
30.60
26.00
20.86
15.77
11.33
7.78
4.99
2.43
-0.58
-4.46
-9.28
-14.65
-19.95
-24.62
-28.41
-31.39
-33.97
-36.66
-40.04
-44.61
-50.75
-58.53
-67.52
-76.52
-83.64
-86.63
-83.61
-73.86
-58.11
-38.51
-17.85
1.31
17.28
29.49
38.22
44.09
47.66
49.30
49.29
48.02
45.97
43.73
41.75
40.28
39.30
38.70
38.36
38.30
38.61
39.36
40.46
41.57
42.16
41.71
39.89
36.76
32.75
28.46
24.44
20.92
17.78
14.67
11.25
7.41
3.31
-0.73
-4.39
-7.56
-10.35
-13.02
-15.86
-19.07
-22.68
-26.64
-30.83
-35.09
-39.27
-43.25
-46.98
-50.58
-54.41
-59.10
-65.31
-73.32
-82.56
-91.30
-96.98
-96.99
-89.66
-75.11
-55.24
-33.10
-11.81
6.45
20.78
31.35
38.85
43.91
46.93
48.19
48.05
47.04
45.80
44.75
44.04
43.51
42.92
42.09
41.09
40.20
39.75
39.98
40.86
42.13
43.29
43.76
43.05
40.88
37.31
32.70
27.66
22.76
18.42
14.68
11.29
7.89
4.25
0.40
-3.29
-6.44
-8.81
-10.57
-12.27
-14.57
-17.94
-22.41
-27.55
-32.67
-37.15
-40.67
-43.40
-45.86
-48.81
-52.97
-58.85
-66.41
-74.83
-82.47
-87.10
-86.51
-79.38
-65.82
-47.52
-27.16
-7.47
9.52
23.00
33.07
40.32
45.26
48.10
48.89
47.75
45.16
41.87
38.79
36.56
35.43
35.17
35.22
35.08
34.47
33.48
32.45
31.70
31.31
31.03
30.42
29.02
26.62
23.29
19.29
14.99
10.69
6.62
2.88
-0.47
-3.44
-6.20
-9.00
-12.13
-15.79
-19.98
-24.40
-28.63
-32.28
-35.16
-37.46
-39.69
-42.55
-46.76
-52.85
-60.86
-70.16
-79.31
-86.16
-88.38
-84.17
-73.03
-56.03
-35.62
-14.76
3.94
18.98
30.09
37.80
42.90
45.94
47.18
46.82
45.20
42.90
40.59
38.77
37.62
37.04
36.79
36.64
36.52
36.42
36.37
36.35
36.24
35.86
34.99
33.42
31.06
27.92
24.20
20.14
16.01
11.97
8.03
4.21
0.54
-2.84
-5.83
-8.43
-10.90
-13.62
-16.94
-20.97
-25.53
-30.19
-34.53
-38.24
-41.29
-43.88
-46.51
-49.86
-54.66
-61.40
-69.89
-78.93
-86.35
-89.52
-86.23
-75.64
-58.67
-37.78
-16.12
3.53
19.42
31.06
38.86
43.58
45.91
46.36
45.36
43.40
41.05
38.86
37.22
36.22
35.76
35.56
35.37
35.07
34.65
34.24
33.99
33.95
33.99
33.86
33.20
31.71
29.25
25.85
21.72
17.20
12.65
8.40
4.73
1.74
-0.60
-2.58
-4.63
-7.13
-10.31
-14.12
-18.26
-22.34
-26.09
-29.45
-32.60
-35.83
-39.52
-44.07
-49.78
-56.73
-64.43
-71.71
-76.74
-77.53
-72.59
-61.62
-45.65
-26.80
-7.52
10.04
24.56
35.55
43.13
47.81
50.11
50.57
49.68
47.89
45.60
43.16
40.94
39.22
38.24
38.12
38.93
40.58
42.89
45.46
47.65
48.58
47.33
43.16
35.90
25.99
14.49
2.73
-8.06
-17.02
-23.85
-28.73
-32.19
-34.85
-37.17
-39.38
-41.40
-42.98
-43.98
-44.54
-45.10
-46.35
-48.91
-53.15
-58.87
-65.21
-70.69
-73.46
-71.80
-64.73
-52.39
-36.11
-18.17
-1.01
13.42
24.10
31.00
34.73
36.09
35.70
34.00
31.32
28.07
24.83
22.22
20.67
20.33
20.98
22.12
23.27
24.12
24.63
24.96
25.35
25.86
26.39
26.59
26.09
24.61
22.04
18.53
14.42
10.21
6.37
3.29
1.03
-0.70
-2.54
-5.17
-9.04
-14.08
-19.69
-24.99
-29.26
-32.27
-34.39
-36.39
-39.17
-43.45
-49.59
-57.47
-66.37
-74.92
-81.14
-82.92
-78.59
-67.70
-51.27
-31.59
-11.45
6.71
21.47
32.56
40.44
45.89
49.52
51.65
52.41
51.93
50.46
48.44
46.35
44.61
43.46
42.87
42.65
42.57
42.47
42.34
42.18
41.95
41.48
40.54
38.92
36.61
33.80
30.75
27.68
24.62
21.50
18.11
14.33
10.20
5.93
1.86
-1.67
-4.45
-6.59
-8.45
-10.58
-13.51
-17.47
-22.29
-27.43
-32.32
-36.59
-40.26
-43.77
-47.82
-53.06
-59.85
-67.98
-76.46
-83.59
-87.28
-85.61
-77.56
-63.47
-45.03
-24.82
-5.53
10.93
23.71
33.01
39.52
43.95
46.68
47.78
47.31
45.58
43.15
40.72
38.82
37.60
36.85
36.15
35.23
34.08
32.97
32.24
32.04
32.19
32.19
31.38
29.26
25.67
20.91
15.61
10.60
6.49
3.49
1.22
-1.02
-4.02
-8.19
-13.42
-19.08
-24.40
-28.81
-32.27
-35.24
-38.43
-42.63
-48.43
-56.05
-65.27
-75.19
-84.19
-90.13
-90.90
-85.12
-72.80
-55.41
-35.53
-15.99
1.02
14.36
23.93
30.30
34.20
36.20
36.61
35.68
33.70
31.15
28.65
26.70
25.62
25.34
25.56
25.91
26.20
26.52
27.10
28.08
29.27
30.09
29.89
28.21
25.17
21.35
17.57
14.46
12.17
10.39
8.56
6.16
2.98
-0.90
-5.21
-9.69
-14.15
-18.60
-23.16
-28.04
-33.58
-40.11
-47.86
-56.70
-65.82
-73.64
-78.07
-77.13
-69.73
-56.16
-38.11
-18.19
1.01
17.58
30.78
40.82
48.43
54.30
58.71
61.60
62.72
61.98
59.59
56.09
52.11
48.21
44.65
41.39
38.27
35.13
32.04
29.23
26.95
25.27
24.02
22.79
21.08
18.48
14.91
10.55
5.90
1.57
-1.93
-4.41
-6.06
-7.49
-9.39
-12.25
-16.14
-20.64
-25.10
-28.96
-32.02
-34.52
-37.06
-40.33
-44.89
-51.05
-58.77
-67.44
-75.84
-82.13
-84.27
-80.58
-70.41
-54.60
-35.24
-15.04
3.56
19.04
30.99
39.70
45.66
49.20
50.44
49.51
46.85
43.23
39.60
36.72
34.95
34.16
33.97
33.98
33.95
33.92
34.08
34.52
35.11
35.49
35.16
33.67
30.81
26.73
21.90
16.95
12.42
8.61
5.45
2.53
-0.66
-4.53
-9.24
-14.56
-20.00
-24.99
-29.12
-32.26
-34.66
-36.92
-39.88
-44.38
-50.96
-59.48
-68.82
-76.92
-81.28
-79.75
-71.38
-56.80
-38.13
-18.22
0.35
15.89
27.85
36.54
42.52
46.26
47.98
47.80
46.02
43.23
40.13
37.43
35.56
34.64
34.53
34.89
35.41
35.80
35.96
35.85
35.57
35.14
34.48
33.36
31.46
28.58
24.70
20.15
15.42
11.04
7.36
4.34
1.67
-1.14
-4.54
-8.78
-13.81
-19.27
-24.63
-29.40
-33.28
-36.35
-39.12
-42.27
-46.58
-52.57
-60.37
-69.49
-78.70
-86.15
-89.63
-87.31
-78.25
-62.96
-43.31
-22.01
-1.83
15.22
28.22
37.29
43.16
46.62
48.21
48.21
46.81
44.37
41.53
39.03
37.52
37.23
37.85
38.76
39.33
39.27
38.76
38.25
38.07
38.23
38.27
37.55
35.62
32.37
28.11
23.32
18.50
13.98
9.92
6.34
3.14
0.06
-3.25
-7.11
-11.62
-16.53
-21.26
-25.21
-28.08
-30.11
-31.96
-34.43
-38.13
-43.38
-50.15
-58.18
-66.88
-75.15
-81.33
-83.41
-79.65
-69.31
-53.12
-33.24
-12.56
6.22
21.39
32.42
39.69
43.98
45.91
45.82
43.90
40.52
36.33
32.24
29.12
27.45
27.20
27.86
28.77
29.47
29.85
30.13
30.59
31.22
31.66
31.35
29.79
26.87
22.93
18.58
14.47
10.99
8.15
5.65
3.08
0.10
-3.45
-7.43
-11.54
-15.40
-18.70
-21.39
-23.72
-26.20
-29.45
-34.05
-40.28
-48.03
-56.60
-64.71
-70.58
-72.34
-68.53
-58.71
-43.73
-25.58
-6.86
10.08
23.67
33.40
39.55
42.73
43.53
42.40
39.69
35.89
31.63
27.67
24.57
22.66
21.87
21.96
22.58
23.50
24.62
25.88
27.13
28.01
28.08
26.87
24.19
20.19
15.39
10.44
5.91
2.04
-1.31
-4.54
-8.07
-12.14
-16.70
-21.46
-26.04
-30.12
-33.60
-36.60
-39.48
-42.72
-46.86
-52.35
-59.30
-67.21
-74.83
-80.20
-81.15
-76.04
-64.39
-47.27
-27.03
-6.55
11.60
25.86
35.88
42.19
45.67
47.04
46.69
44.81
41.70
37.85
34.00
30.83
28.73
27.67
27.27
27.06
26.67
26.05
25.30
24.59
23.95
23.18
21.94
19.85
16.73
12.67
8.01
3.20
-1.32
-5.35
-8.91
-12.22
-15.65
-19.46
-23.71
-28.23
-32.64
-36.46
-39.35
-41.22
-42.33
-43.23
-44.67
-47.37
-51.79
-57.89
-64.93
-71.52
-75.88
-76.24
-71.42
-61.24
-46.60
-29.25
-11.29
5.41
19.64
30.96
39.52
45.70
49.89
52.26
52.95
52.15
50.29
48.06
46.13
45.02
44.83
45.28
45.92
46.39
46.63
46.83
47.24
47.97
48.83
49.36
49.14
47.93
45.85
43.30
40.81
38.84
37.58
36.92
36.55
36.12
35.37
34.37
33.43
32.96
33.29
34.46
36.33
38.75
41.81
45.79
50.89
56.76
62.30
65.90
66.05
62.11
54.65
45.35
36.23
28.84
23.66
20.07
16.79
12.46
6.15
-2.45
-13.12
-25.30
-38.30
-51.30
-63.37
-73.58
-81.15
-85.65
-87.17
-86.37
-84.23
-81.65
-79.05
-76.26
-72.73
-67.85
-61.43
-53.91
-46.24
-39.52
-34.60
-31.68
-30.32
-29.63
-28.72
-27.08
-24.71
-22.08
-19.69
-17.85
-16.52
-15.33
-13.88
-11.92
-9.51
-7.16
-5.74
-6.39
-10.41
-18.88
-32.34
-50.59
-72.53
-96.38
-119.70
-139.79
-154.04
-160.35
-157.75
-146.88
-130.05
-110.73
-92.59
-78.26
-68.46
-61.92
-56.08
-48.39
-37.43
-23.54
-8.40
5.84
17.73
26.97
34.32
40.87
47.36
53.71
59.37
63.85
67.18
69.94
72.87
76.27
79.71
82.18
82.68
80.73
76.66
71.51
66.50
62.57
59.97
58.31
56.74
54.44
50.94
46.34
41.21
36.34
32.40
29.64
27.85
26.54
25.18
23.47
21.38
19.06
16.77
14.68
12.94
11.63
10.82
10.50
10.56
10.76
10.87
10.77
10.52
10.27
10.08
9.89
9.45
8.60
7.34
5.91
4.63
3.67
2.99
2.33
1.44
0.27
-1.04
-2.18
-2.91
-3.20
-3.24
-3.35
-3.82
-4.78
-6.16
-7.79
-9.37
-10.67
-11.54
-11.95
-12.01
-11.95
-12.07
-12.57
-13.53
-14.85
-16.32
-17.74
-19.07
-20.43
-22.03
-24.06
-26.61
-29.57
-32.70
-35.64
-37.91
-38.90
-37.97
-34.66
-28.88
-21.08
-12.24
-3.52
4.06
9.92
14.04
16.74
18.44
19.46
19.96
20.03
19.83
19.66
19.84
20.59
21.91
23.59
25.24
26.54
27.27
27.38
26.96
26.17
25.11
23.84
22.35
20.62
18.61
16.34
13.79
10.93
7.76
4.23
0.34
-3.88
-8.32
-12.75
-16.91
-20.55
-23.57
-26.07
-28.41
-31.08
-34.60
-39.21
-44.64
-50.01
-54.00
-55.09
-52.19
-44.94
-34.01
-20.81
-7.13
5.46
16.01
24.24
30.35
34.63
37.24
38.15
37.32
34.88
31.28
27.16
23.17
19.79
17.18
15.30
13.98
13.14
12.77
12.86
13.33
13.95
14.35
14.16
13.16
11.41
9.20
7.04
5.40
4.58
4.62
5.31
6.32
7.36
8.27
9.01
9.64
10.20
10.70
11.15
11.51
11.75
11.74
11.35
10.43
9.02
7.31
5.72
4.64
4.30
4.65
5.45
6.40
7.30
8.12
8.89
9.63
10.27
10.68
10.76
10.50
10.03
9.50
9.07
8.83
8.72
8.65
8.51
8.27
8.00
7.83
7.91
8.27
8.79
9.23
9.35
9.01
8.25
7.26
6.29
5.49
4.87
4.29
3.57
2.55
1.17
-0.48
-2.23
-3.91
-5.38
-6.62
-7.70
-8.74
-9.83
-10.98
-12.09
-13.06
-13.80
-14.33
-14.78
-15.30
-15.96
-16.72
-17.38
-17.70
-17.47
-16.57
-15.01
-12.90
-10.40
-7.71
-4.99
-2.38
0.03
2.20
4.05
5.54
6.65
7.38
7.82
8.06
8.19
8.26
8.31
8.34
8.36
8.39
8.47
8.59
8.72
8.81
8.83
8.79
8.73
8.65
8.53
8.23
7.65
6.68
5.34
3.75
2.09
0.50
-0.93
-2.17
-3.25
-4.24
-5.20
-6.18
-7.26
-8.49
-9.87
-11.28
-12.60
-13.77
-14.81
-15.83
-16.90
-17.94
-18.66
-18.68
-17.71
-15.68
-12.83
-9.45
-5.87
-2.27
1.18
4.32
6.92
8.75
9.71
9.89
9.55
9.06
8.68
8.55
8.63
8.78
8.78
8.50
7.90
7.11
6.36
5.93
5.91
6.23
6.62
6.79
6.59
6.00
5.18
4.21
3.13
1.85
0.30
-1.42
-3.07
-4.37
-5.19
-5.68
-6.21
-7.16
-8.73
-10.81
-13.08
-15.12
-16.70
-17.83
-18.63
-19.26
-19.76
-20.10
-20.25
-20.18
-19.93
-19.49
-18.79
-17.67
-15.92
-13.43
-10.23
-6.52
-2.65
0.98
4.06
6.44
8.19
9.54
10.71
11.77
12.62
13.04
12.87
12.14
11.11
10.15
9.57
9.45
9.64
9.87
9.88
9.49
8.75
7.78
6.74
5.74
4.77
3.77
2.62
1.27
-0.26
-1.86
-3.38
-4.76
-5.96
-7.05
-8.10
-9.14
-10.13
-11.02
-11.78
-12.49
-13.31
-14.45
-16.03
-18.04
-20.35
-22.71
-24.77
-26.23
-26.81
-26.38
-24.91
-22.53
-19.45
-15.88
-12.04
-8.12
-4.31
-0.77
2.35
4.98
7.15
8.93
10.43
11.63
12.49
12.97
13.09
12.99
12.84
12.83
13.02
13.36
13.73
13.93
13.78
13.18
12.07
10.53
8.78
7.06
5.67
4.80
4.50
4.65
4.94
5.07
4.80
4.01
2.75
1.18
-0.53
-2.30
-4.05
-5.71
-7.23
-8.61
-9.90
-11.28
-12.92
-14.92
-17.18
-19.42
-21.31
-22.59
-23.10
-22.86
-21.85
-20.05
-17.46
-14.17
-10.41
-6.55
-2.94
0.17
2.76
4.92
6.77
8.36
9.63
10.53
11.04
11.29
11.44
11.66
11.99
12.40
12.74
12.89
12.71
12.18
11.34
10.35
9.38
8.63
8.18
7.96
7.81
7.51
6.95
6.14
5.15
4.13
3.20
2.47
2.02
1.93
2.14
2.45
2.49
1.83
0.23
-2.27
-5.35
-8.53
-11.45
-13.93
-16.03
-17.92
-19.81
-21.81
-23.99
-26.34
-28.82
-31.32
-33.65
-35.46
-36.26
-35.54
-32.92
-28.41
-22.42
-15.72
-9.14
-3.35
1.38
5.03
7.77
9.74
11.04
11.80
12.25
12.69
13.33
14.22
15.16
15.90
16.25
16.24
16.09
16.02
16.09
16.23
16.28
16.12
15.78
15.36
14.90
14.38
13.71
12.81
11.63
10.19
8.54
6.73
4.77
2.71
0.56
-1.66
-3.93
-6.21
-8.38
-10.38
-12.03
-13.30
-14.25
-15.05
-15.92
-17.08
-18.71
-20.91
-23.73
-26.93
-29.98
-31.99
-31.96
-29.17
-23.54
-15.81
-7.28
0.65
6.96
11.32
13.94
15.31
15.83
15.74
15.14
14.18
13.09
12.22
11.79
11.94
12.58
13.53
14.57
15.52
16.27
16.72
16.83
16.54
15.81
14.66
13.15
11.46
9.79
8.34
7.21
6.38
5.70
5.01
4.16
3.10
1.84
0.48
-0.93
-2.29
-3.53
-4.51
-5.19
-5.60
-6.00
-6.78
-8.28
-10.64
-13.65
-16.87
-19.80
-22.14
-23.79
-24.79
-25.11
-24.49
-22.58
-19.16
-14.40
-8.85
-3.30
1.53
5.31
8.02
9.89
11.15
11.92
12.29
12.33
12.16
11.92
11.69
11.48
11.25
10.97
10.70
10.49
10.37
10.31
10.25
10.11
9.82
9.32
8.50
7.25
5.55
3.51
1.45
-0.26
-1.35
-1.89
-2.19
-2.80
-4.16
-6.45
-9.48
-12.83
-16.04
-18.76
-20.93
-22.66
-24.26
-26.05
-28.27
-30.99
-33.92
-36.47
-37.78
-37.03
-33.70
-27.78
-19.85
-10.86
-1.89
6.16
12.78
17.76
21.11
22.95
23.45
22.86
21.60
20.13
18.91
18.23
18.14
18.48
18.95
19.26
19.26
18.94
18.41
17.78
17.10
16.29
15.23
13.79
11.94
9.73
7.37
5.04
2.91
1.07
-0.51
-1.95
-3.44
-5.13
-7.13
-9.40
-11.75
-13.96
-15.84
-17.38
-18.79
-20.46
-22.79
-26.06
-30.27
-35.05
-39.59
-42.80
-43.52
-40.96
-35.00
-26.36
-16.35
-6.47
2.16
9.07
14.36
18.41
21.49
23.62
24.61
24.41
23.24
21.61
20.11
19.16
18.81
18.84
18.91
18.87
18.75
18.74
18.97
19.36
19.61
19.35
18.32
16.53
14.24
11.82
9.57
7.59
5.83
4.15
2.46
0.66
-1.24
-3.33
-5.68
-8.34
-11.20
-13.98
-16.38
-18.17
-19.36
-20.25
-21.34
-23.18
-26.10
-30.05
-34.49
-38.47
-40.81
-40.47
-36.91
-30.30
-21.50
-11.85
-2.72
4.94
10.80
15.13
18.43
21.10
23.22
24.55
24.79
23.90
22.24
20.43
19.07
18.52
18.68
19.12
19.43
19.36
19.01
18.73
18.73
18.99
19.13
18.62
17.02
14.30
10.86
7.41
4.59
2.69
1.47
0.34
-1.35
-3.93
-7.24
-10.71
-13.70
-15.80
-17.04
-17.82
-18.75
-20.31
-22.72
-25.91
-29.56
-33.17
-36.05
-37.37
-36.29
-32.30
-25.41
-16.36
-6.42
2.96
10.73
16.42
20.18
22.51
23.88
24.58
24.61
23.92
22.55
20.77
18.92
17.37
16.30
15.70
15.40
15.22
15.03
14.79
14.58
14.42
14.25
13.97
13.45
12.60
11.38
9.73
7.65
5.16
2.42
-0.28
-2.69
-4.68
-6.38
-8.08
-10.05
-12.37
-14.87
-17.26
-19.37
-21.33
-23.52
-26.39
-30.16
-34.64
-39.24
-43.13
-45.40
-45.29
-42.33
-36.43
-27.93
-17.61
-6.52
4.20
13.55
20.90
25.97
28.87
29.87
29.43
28.08
26.45
25.11
24.50
24.72
25.51
26.35
26.69
26.27
25.14
23.69
22.30
21.25
20.54
19.97
19.30
18.31
16.89
15.05
12.83
10.28
7.42
4.25
0.74
-3.10
-7.17
-11.25
-15.00
-18.09
-20.33
-21.80
-22.78
-23.77
-25.25
-27.66
-31.19
-35.68
-40.48
-44.48
-46.34
-44.88
-39.63
-31.00
-20.24
-8.91
1.59
10.48
17.56
22.99
26.99
29.60
30.78
30.59
29.30
27.43
25.55
24.10
23.25
22.86
22.55
22.00
21.03
19.71
18.34
17.25
16.65
16.49
16.46
16.14
15.21
13.58
11.40
9.02
6.81
5.02
3.73
2.76
1.78
0.41
-1.63
-4.39
-7.64
-11.00
-14.03
-16.42
-18.13
-19.50
-21.14
-23.72
-27.58
-32.35
-36.91
-39.64
-39.00
-34.24
-25.70
-14.78
-3.34
6.98
15.26
21.33
25.49
28.10
29.33
29.26
28.09
26.23
24.28
22.77
21.91
21.54
21.26
20.65
19.53
18.02
16.43
15.18
14.55
14.59
15.08
15.60
15.61
14.70
12.72
9.82
6.51
3.40
1.00
-0.51
-1.34
-2.03
-3.14
-5.05
-7.75
-10.86
-13.87
-16.34
-18.14
-19.48
-20.84
-22.84
-26.03
-30.68
-36.51
-42.58
-47.41
-49.28
-46.95
-40.11
-29.66
-17.40
-5.36
4.89
12.64
18.04
21.67
24.08
25.56
26.19
26.00
25.20
24.13
23.19
22.63
22.49
22.66
22.88
22.86
22.44
21.66
20.71
19.93
19.52
19.50
19.53
19.15
17.94
15.78
12.94
9.94
7.23
5.00
3.16
1.50
-0.12
-1.71
-3.19
-4.59
-6.15
-8.20
-10.97
-14.48
-18.42
-22.30
-25.66
-28.24
-30.13
-31.68
-33.48
-36.09
-39.80
-44.35
-48.83
-51.85
-51.96
-48.17
-40.45
-29.76
-17.77
-6.25
3.55
11.16
16.79
20.94
23.99
26.01
26.87
26.48
25.09
23.27
21.75
21.00
21.12
21.77
22.46
22.77
22.57
22.03
21.41
20.92
20.53
20.05
19.22
17.84
15.95
13.76
11.55
9.56
7.90
6.50
5.17
3.71
1.99
0.06
-1.93
-3.74
-5.20
-6.28
-7.17
-8.14
-9.47
-11.37
-13.77
-16.44
-19.05
-21.31
-23.04
-24.28
-25.23
-26.18
-27.52
-29.64
-32.79
-36.92
-41.49
-45.42
-47.31
-45.83
-40.26
-30.95
-19.26
-7.15
3.54
11.65
16.97
20.06
21.77
22.76
23.27
23.30
22.77
21.85
20.93
20.42
20.52
21.11
21.80
22.24
22.20
21.76
21.18
20.77
20.63
20.69
20.69
20.29
19.19
17.32
14.79
11.88
8.94
6.28
3.99
1.96
-0.06
-2.32
-4.98
-7.94
-10.96
-13.74
-16.02
-17.67
-18.80
-19.68
-20.75
-22.50
-25.37
-29.50
-34.62
-39.81
-43.73
-44.89
-42.23
-35.54
-25.64
-14.09
-2.66
7.26
15.00
20.57
24.37
26.80
28.06
28.20
27.34
25.76
23.87
22.10
20.68
19.62
18.81
18.05
17.22
16.29
15.28
14.26
13.42
12.91
12.80
12.98
13.08
12.55
11.00
8.38
5.05
1.68
-1.08
-2.94
-4.03
-4.84
-5.87
-7.41
-9.49
-11.95
-14.57
-17.20
-19.76
-22.32
-25.02
-28.10
-31.82
-36.31
-41.31
-46.03
-49.21
-49.47
-45.81
-38.01
-26.92
-14.17
-1.69
8.93
16.93
22.35
25.77
27.86
29.03
29.34
28.68
27.08
24.84
22.56
20.85
20.11
20.30
20.99
21.50
21.32
20.30
18.72
17.15
16.09
15.73
15.75
15.49
14.21
11.50
7.47
2.78
-1.67
-5.11
-7.22
-8.26
-8.90
-9.85
-11.58
-14.10
-17.06
-19.96
-22.44
-24.44
-26.17
-28.03
-30.40
-33.58
-37.58
-42.04
-46.13
-48.58
-48.07
-43.69
-35.41
-24.14
-11.46
0.93
11.87
20.91
28.10
33.62
37.47
39.47
39.54
37.89
35.16
32.16
29.57
27.70
26.53
25.82
25.36
25.04
24.86
24.82
24.76
24.49
23.80
22.60
20.98
19.07
17.04
15.04
13.16
11.44
9.83
8.22
6.42
4.18
1.34
-2.11
-5.94
-9.79
-13.43
-16.79
-20.12
-23.86
-28.43
-34.01
-40.39
-46.88
-52.37
-55.47
-54.86
-49.70
-40.09
-27.19
-13.01
0.19
10.67
17.69
21.58
23.31
23.95
24.13
24.06
23.67
22.95
22.10
21.47
21.31
21.65
22.18
22.44
22.13
21.24
20.11
19.20
18.81
18.88
18.99
18.53
17.08
14.54
11.25
7.82
4.85
2.66
1.31
0.47
-0.27
-1.34
-3.07
-5.53
-8.69
-12.31
-16.12
-19.83
-23.32
-26.61
-29.90
-33.49
-37.68
-42.66
-48.46
-54.79
-60.89
-65.61
-67.55
-65.42
-58.59
-47.35
-33.01
-17.52
-2.91
9.34
18.54
24.84
28.85
31.20
32.29
32.24
31.14
29.16
26.76
24.53
23.06
22.61
23.10
24.07
25.00
25.50
25.54
25.43
25.62
26.36
27.50
28.43
28.36
26.63
23.20
18.61
13.92
10.19
8.05
7.38
7.39
6.94
5.05
1.32
-3.92
-9.76
-15.23
-19.66
-22.96
-25.56
-28.12
-31.13
-34.84
-39.29
-44.38
-50.00
-55.73
-60.71
-63.58
-62.80
-57.29
-47.04
-33.35
-18.38
-4.46
6.74
14.69
19.85
23.10
25.28
26.84
27.83
28.19
27.94
27.26
26.40
25.56
24.83
24.24
23.80
23.58
23.69
24.12
24.75
25.34
25.65
25.53
24.99
24.10
22.98
21.58
19.82
17.60
14.92
12.01
9.18
6.76
4.84
3.25
1.66
-0.29
-2.76
-5.74
-9.05
-12.46
-15.74
-18.73
-21.38
-23.77
-26.13
-28.86
-32.39
-36.99
-42.55
-48.38
-53.14
-55.23
-53.24
-46.54
-35.62
-22.04
-7.89
4.88
15.09
22.54
27.69
31.21
33.48
34.51
34.18
32.60
30.35
28.21
26.88
26.58
26.90
27.15
26.71
25.41
23.54
21.69
20.33
19.55
19.05
18.35
17.00
14.89
12.13
9.03
5.87
2.83
0.01
-2.55
-4.74
-6.54
-8.06
-9.55
-11.39
-13.85
-16.92
-20.30
-23.53
-26.23
-28.37
-30.27
-32.55
-35.82
-40.41
-46.04
-51.78
-56.14
-57.55
-54.80
-47.52
-36.37
-22.92
-9.11
3.29
13.19
20.37
25.22
28.42
30.52
31.76
32.14
31.69
30.57
29.17
27.94
27.14
26.72
26.38
25.73
24.67
23.36
22.27
21.78
21.95
22.41
22.47
21.50
19.17
15.68
11.58
7.58
4.29
1.96
0.47
-0.65
-2.00
-4.10
-7.16
-11.06
-15.42
-19.79
-23.85
-27.45
-30.61
-33.42
-36.05
-38.75
-41.95
-46.14
-51.48
-57.48
-62.76
-65.38
-63.54
-56.46
-44.71
-30.12
-15.05
-1.44
9.70
18.36
25.01
30.12
33.80
35.85
36.17
35.01
33.02
31.01
29.55
28.79
28.42
27.96
27.01
25.55
23.87
22.37
21.40
21.03
21.06
21.10
20.73
19.65
17.74
15.12
12.15
9.16
6.45
4.07
1.75
-0.92
-4.23
-8.23
-12.52
-16.52
-19.67
-21.79
-23.11
-24.29
-26.07
-29.11
-33.83
-40.23
-47.81
-55.48
-61.74
-64.91
-63.63
-57.35
-46.54
-32.65
-17.59
-3.22
9.10
18.68
25.45
29.68
31.85
32.42
31.85
30.53
28.77
26.85
25.12
23.93
23.55
23.98
24.95
25.93
26.42
26.12
25.04
23.45
21.65
19.86
18.08
16.24
14.25
12.15
10.05
8.03
5.99
3.72
0.93
-2.46
-6.35
-10.44
-14.37
-17.90
-21.01
-23.95
-27.15
-31.18
-36.51
-43.18
-50.61
-57.41
-61.78
-61.98
-57.13
-47.66
-35.24
-22.27
-10.94
-2.68
2.15
4.00
3.68
1.91
-0.81
-4.18
-8.04
-12.18
-16.42
-20.57
-24.50
-28.06
-31.06
-33.32
-34.67
-35.06
-34.46
-32.90
-30.37
-26.76
-21.89
-15.60
-7.78
1.46
11.73
22.46
32.91
42.30
49.85
54.95
57.30
56.96
54.39
50.26
45.28
39.88
34.15
27.80
20.43
11.80
2.16
-7.61
-16.12
-21.70
-23.03
-19.42
-11.19
0.31
13.20
25.53
35.85
43.48
48.44
51.03
51.66
50.58
48.11
44.75
41.22
38.25
36.29
35.23
34.51
33.48
31.80
29.64
27.57
26.20
25.77
26.04
26.47
26.42
25.48
23.53
20.71
17.37
13.82
10.35
7.08
3.96
0.85
-2.44
-6.03
-9.85
-13.70
-17.32
-20.47
-23.17
-25.62
-28.27
-31.61
-36.13
-42.04
-49.08
-56.31
-62.13
-64.61
-62.16
-54.23
-41.60
-26.35
-11.03
2.20
12.30
19.42
24.40
28.15
31.01
32.80
33.18
32.07
29.93
27.49
25.42
23.98
23.00
22.14
21.13
20.02
19.12
18.70
18.86
19.39
19.93
20.12
19.79
18.88
17.47
15.58
13.19
10.31
7.04
3.67
0.52
-2.13
-4.20
-5.92
-7.70
-9.94
-12.89
-16.56
-20.73
-25.08
-29.32
-33.20
-36.69
-39.95
-43.35
-47.33
-52.18
-57.67
-62.95
-66.63
-67.14
-63.38
-55.17
-43.39
-29.70
-15.97
-3.63
6.56
14.49
20.45
24.68
27.33
28.48
28.37
27.50
26.53
26.05
26.37
27.41
28.82
30.16
31.08
31.44
31.30
30.84
30.21
29.46
28.46
26.93
24.66
21.62
18.07
14.51
11.46
9.17
7.52
6.00
4.04
1.31
-2.15
-5.99
-9.78
-13.19
-16.11
-18.64
-20.99
-23.51
-26.64
-30.77
-36.03
-42.03
-47.69
-51.42
-51.62
-47.26
-38.33
-25.95
-11.91
1.81
13.75
23.09
29.69
33.84
35.93
36.35
35.43
33.49
30.92
28.13
25.53
23.45
21.98
21.06
20.45
20.02
19.74
19.71
20.02
20.61
21.15
21.12
20.02
17.62
14.10
9.95
5.79
2.16
-0.67
-2.73
-4.25
-5.66
-7.45
-9.96
-13.34
-17.37
-21.56
-25.30
-28.22
-30.27
-31.80
-33.41
-35.82
-39.55
-44.75
-51.03
-57.43
-62.45
-64.39
-61.78
-53.92
-41.25
-25.37
-8.63
6.62
18.67
26.93
31.81
34.27
35.32
35.57
35.23
34.29
32.85
31.22
29.88
29.19
29.22
29.70
30.18
30.24
29.70
28.73
27.66
26.78
26.14
25.45
24.24
22.12
18.93
14.90
10.58
6.58
3.40
1.18
-0.34
-1.66
-3.36
-5.83
-9.22
-13.34
-17.83
-22.24
-26.16
-29.42
-32.12
-34.62
-37.45
-41.10
-45.77
-51.17
-56.31
-59.74
-59.88
-55.54
-46.47
-33.51
-18.33
-2.97
10.81
21.96
30.21
35.82
39.30
41.03
41.22
40.05
37.79
34.99
32.27
30.22
29.04
28.56
28.32
27.88
27.02
25.90
24.82
24.01
23.46
22.88
21.88
20.12
17.53
14.27
10.71
7.25
4.21
1.74
-0.19
-1.78
-3.38
-5.36
-7.95
-11.28
-15.15
-19.23
-23.04
-26.21
-28.54
-30.19
-31.58
-33.31
-35.93
-39.81
-44.92
-50.73
-56.19
-59.83
-60.18
-56.28
-48.08
-36.52
-23.25
-10.07
1.75
11.63
19.68
26.09
30.90
33.88
34.82
33.80
31.49
28.86
26.81
25.73
25.37
25.10
24.29
22.75
20.84
19.27
18.60
18.97
19.94
20.76
20.78
19.74
17.84
15.57
13.34
11.27
9.19
6.84
4.05
0.86
-2.59
-6.09
-9.46
-12.58
-15.28
-17.48
-19.04
-20.03
-20.75
-21.65
-23.34
-26.35
-30.83
-36.37
-41.90
-45.84
-46.58
-43.02
-35.07
-23.85
-11.27
0.65
10.44
17.55
22.24
25.10
26.58
26.84
25.89
23.92
21.43
19.14
17.66
17.19
17.42
17.77
17.70
16.98
15.84
14.70
13.97
13.71
13.63
13.21
12.02
9.95
7.28
4.52
2.04
-0.07
-2.00
-4.16
-6.80
-9.89
-13.10
-16.05
-18.40
-20.14
-21.57
-23.13
-25.33
-28.48
-32.68
-37.70
-42.93
-47.42
-50.08
-49.82
-45.96
-38.33
-27.50
-14.60
-1.10
11.52
22.16
30.19
35.59
38.65
39.80
39.47
38.06
35.93
33.46
30.99
28.78
26.98
25.60
24.59
23.87
23.43
23.26
23.30
23.40
23.32
22.72
21.33
18.95
15.65
11.78
7.84
4.37
1.68
-0.34
-2.19
-4.50
-7.73
-11.86
-16.45
-20.80
-24.31
-26.81
-28.66
-30.51
-33.13
-36.98
-42.09
-47.95
-53.53
-57.45
-58.33
-55.14
-47.60
-36.35
-22.88
-9.09
3.22
12.89
19.54
23.43
25.13
25.21
24.10
22.16
19.83
17.68
16.26
15.91
16.61
17.99
19.41
20.36
20.54
20.05
19.19
18.36
17.76
17.35
16.83
15.79
13.97
11.36
8.26
5.14
2.37
0.05
-2.07
-4.46
-7.56
-11.49
-15.96
-20.40
-24.25
-27.21
-29.32
-30.94
-32.53
-34.45
-36.96
-40.17
-44.07
-48.41
-52.50
-55.20
-55.18
-51.37
-43.45
-32.07
-18.76
-5.30
6.80
16.59
23.78
28.43
30.73
31.01
29.77
27.72
25.66
24.30
23.89
24.21
24.76
25.02
24.75
24.01
23.11
22.36
21.87
21.58
21.28
20.68
19.57
17.84
15.50
12.64
9.45
6.12
2.86
-0.18
-2.89
-5.29
-7.46
-9.58
-11.86
-14.41
-17.21
-20.04
-22.66
-24.90
-26.94
-29.18
-32.10
-35.87
-40.02
-43.33
-44.21
-41.34
-34.25
-23.67
-11.24
1.07
11.68
19.80
25.39
28.81
30.45
30.53
29.23
26.92
24.23
21.93
20.64
20.46
21.01
21.59
21.65
21.01
19.95
18.98
18.52
18.61
18.88
18.74
17.66
15.50
12.50
9.16
6.00
3.30
0.99
-1.25
-3.76
-6.74
-10.11
-13.55
-16.70
-19.25
-21.10
-22.41
-23.52
-24.88
-26.97
-30.20
-34.76
-40.39
-46.30
-51.10
-53.09
-50.80
-43.63
-32.17
-18.13
-3.75
8.95
18.86
25.85
30.53
33.65
35.69
36.76
36.80
35.87
34.36
32.85
31.87
31.70
32.18
33.02
33.84
34.52
35.08
35.67
36.32
36.95
37.30
37.09
36.12
34.35
31.95
29.23
26.53
24.13
22.06
20.05
17.64
14.27
9.62
3.72
-2.93
-9.53
-15.25
-19.52
-22.26
-23.91
-25.31
-27.35
-30.66
-35.19
-40.08
-43.72
-44.27
-40.24
-31.12
-17.61
-1.47
15.13
30.11
41.89
49.51
52.44
50.78
45.31
37.73
30.40
25.65
24.80
27.50
31.82
34.94
34.12
27.29
13.28
-8.34
-37.19
-71.78
-109.15
-144.88
-173.92
-192.01
-197.16
-190.43
-175.71
-158.35
-143.53
-134.70
-132.88
-136.75
-143.34
-149.26
-151.74
-149.29
-141.99
-131.01
-117.97
-104.34
-90.95
-77.92
-64.93
-51.53
-37.48
-22.97
-8.47
5.50
18.71
31.34
43.95
57.09
70.99
85.27
99.08
111.54
122.15
131.13
139.27
147.55
156.66
166.88
178.12
190.13
202.56
214.85
225.81
233.58
236.03
231.43
219.18
200.07
175.93
148.83
120.22
90.79
60.64
30.05
-0.13
-28.27
-52.50
-71.31
-84.24
-92.27
-97.63
-103.28
-112.01
-125.43
-143.18
-162.69
-179.68
-189.43
-188.50
-175.99
-154.00
-126.80
-99.31
-75.28
-56.22
-41.39
-28.60
-15.61
-1.18
14.53
30.25
44.41
55.86
64.24
69.89
73.40
75.27
75.74
74.99
73.36
71.56
70.54
71.02
73.01
75.61
77.26
76.47
72.59
66.22
59.02
52.96
49.41
48.62
49.86
51.93
53.76
54.70
54.50
52.92
49.63
44.26
36.75
27.38
16.85
5.93
-4.76
-14.78
-23.65
-30.69
-34.93
-35.55
-32.30
-25.88
-17.78
-9.91
-3.98
-1.15
-1.87
-6.03
-13.15
-22.48
-33.09
-43.93
-53.95
-62.30
-68.42
-71.98
-72.86
-71.00
-66.38
-59.15
-49.93
-39.84
-30.38
-23.09
-19.09
-18.79
-21.82
-27.26
-33.80
-40.05
-44.66
-46.55
-45.28
-41.13
-35.22
-29.14
-24.62
-23.06
-25.44
-32.16
-43.13
-57.69
-74.58
-91.96
-107.72
-120.01
-127.54
-129.82
-126.88
-118.84
-105.81
-88.00
-66.28
-42.41
-18.90
1.74
17.84
29.17
36.83
42.57
48.10
54.44
61.78
69.75
77.71
84.86
90.40
93.53
93.70
90.88
85.67
79.14
72.39
66.14
60.42
54.74
48.43
41.06
32.68
23.67
14.58
5.86
-2.16
-9.31
-15.56
-21.07
-26.33
-32.04
-38.78
-46.65
-54.89
-61.87
-65.59
-64.36
-57.50
-45.62
-30.35
-13.77
2.25
16.46
28.26
37.38
43.71
47.18
47.90
46.36
43.39
40.01
37.14
35.28
34.58
34.88
35.89
37.39
39.13
40.89
42.35
43.19
43.14
42.10
40.17
37.49
34.24
30.53
26.46
22.19
17.87
13.59
9.29
4.78
-0.10
-5.39
-10.84
-16.02
-20.57
-24.35
-27.62
-30.94
-35.01
-40.26
-46.66
-53.50
-59.46
-62.84
-62.10
-56.29
-45.42
-30.59
-13.59
3.54
19.13
32.12
42.16
49.31
53.82
55.96
55.98
54.28
51.44
48.21
45.37
43.56
43.06
43.79
45.36
47.29
49.14
50.60
51.53
51.93
51.94
51.86
52.01
52.64
53.72
54.98
55.94
56.28
55.93
55.20
54.55
54.43
55.07
56.61
59.22
63.23
68.93
76.34
84.83
93.03
99.14
101.42
98.81
91.25
79.74
65.91
51.54
38.08
26.35
16.55
8.63
2.43
-2.02
-4.64
-5.45
-4.77
-3.20
-1.45
-0.10
0.63
0.89
0.98
1.14
1.41
1.70
1.99
2.39
3.10
4.30
5.91
7.67
9.24
10.39
11.04
11.19
10.80
9.64
7.49
4.24
0.08
-4.45
-8.75
-12.44
-15.49
-18.23
-21.08
-24.26
-27.79
-31.60
-35.65
-40.11
-45.28
-51.43
-58.55
-66.31
-74.11
-81.23
-86.94
-90.72
-92.22
-91.35
-88.31
-83.56
-77.84
-71.99
-66.67
-62.21
-58.52
-55.23
-51.88
-48.27
-44.53
-41.09
-38.46
-36.96
-36.63
-37.21
-38.30
-39.45
-40.37
-40.98
-41.44
-42.13
-43.43
-45.66
-48.83
-52.74
-57.00
-61.28
-65.45
-69.62
-74.00
-78.63
-83.26
-87.28
-89.88
-90.34
-88.31
-83.93
-77.73
-70.38
-62.36
-53.80
-44.49
-34.15
-22.69
-10.43
1.88
13.30
23.02
30.60
36.09
39.95
42.74
44.86
46.39
47.05
46.39
44.16
40.49
35.97
31.42
27.50
24.55
22.44
20.92
19.82
19.22
19.39
20.49
22.42
24.84
27.41
30.01
32.87
36.28
40.29
44.43
47.89
49.97
50.40
49.59
48.32
47.27
46.71
46.37
45.72
44.21
41.49
37.38
31.80
24.86
16.91
8.71
1.38
-3.92
-6.41
-6.02
-3.45
0.05
3.11
4.67
4.27
1.94
-1.95
-7.02
-13.04
-19.84
-27.09
-34.20
-40.37
-44.88
-47.50
-48.47
-48.40
-47.94
-47.50
-47.33
-47.68
-48.87
-51.20
-54.67
-58.77
-62.55
-64.96
-65.26
-63.18
-58.96
-53.21
-46.69
-40.17
-34.24
-29.26
-25.28
-22.12
-19.57
-17.54
-16.22
-15.79
-16.13
-16.74
-16.93
-16.20
-14.62
-12.75
-11.18
-10.06
-8.86
-6.62
-2.54
3.56
11.06
18.86
25.92
31.73
36.36
40.27
43.86
47.18
49.91
51.63
52.04
51.13
49.23
46.75
44.13
41.63
39.36
37.28
35.23
32.96
30.17
26.69
22.56
18.14
14.01
10.73
8.56
7.32
6.43
5.20
3.09
-0.06
-4.06
-8.53
-13.08
-17.47
-21.56
-25.38
-29.03
-32.72
-36.79
-41.55
-47.11
-53.08
-58.40
-61.49
-60.74
-55.20
-44.97
-31.41
-16.65
-2.89
8.29
16.29
21.34
23.98
24.61
23.29
19.94
14.83
8.78
3.16
-0.57
-1.50
0.23
3.43
6.31
7.20
5.21
0.54
-5.77
-12.37
-18.18
-22.77
-26.46
-30.06
-34.46
-40.27
-47.64
-56.28
-65.49
-74.55
-82.90
-90.45
-97.66
-105.50
-115.17
-127.36
-141.66
-155.99
-166.65
-169.07
-159.11
-134.43
-95.70
-46.77
6.07
55.70
96.11
123.89
138.84
143.34
141.11
135.60
129.13
122.83
117.07
112.10
108.29
106.01
105.37
106.08
107.70
109.91
112.54
115.24
117.10
116.57
111.92
102.08
87.33
69.43
51.02
34.69
22.04
13.37
7.73
3.53
-0.86
-6.66
-14.33
-23.64
-33.85
-44.09
-53.71
-62.55
-70.98
-79.62
-88.88
-98.33
-106.57
-111.38
-110.56
-102.82
-88.52
-69.58
-48.75
-28.56
-10.32
5.90
20.74
34.67
47.39
57.86
64.87
67.96
67.90
66.55
66.19
68.54
74.05
81.79
89.88
96.44
100.23
101.01
99.09
94.79
87.96
78.11
64.95
49.07
32.22
16.76
4.81
-2.80
-6.76
-8.96
-11.42
-15.35
-20.57
-25.90
-29.93
-31.84
-31.87
-31.01
-30.44
-31.02
-33.09
-36.70
-41.69
-47.67
-53.76
-58.39
-59.74
-56.57
-49.03
-38.99
-29.37
-22.92
-20.94
-22.82
-26.59
-30.05
-31.80
-31.59
-29.97
-27.64
-24.96
-21.87
-18.16
-13.63
-8.22
-1.82
5.97
15.82
28.32
43.38
59.72
74.85
85.66
89.44
84.84
72.37
54.08
32.79
11.07
-9.30
-27.51
-43.23
-56.26
-66.25
-72.85
-75.79
-75.34
-72.31
-68.07
-64.33
-62.80
-64.69
-70.30
-78.93
-89.14
-99.21
-107.70
-113.64
-116.60
-116.36
-112.85
-106.14
-96.63
-85.19
-73.00
-61.22
-50.49
-40.88
-32.16
-24.09
-16.78
-10.62
-5.88
-2.41
0.46
3.81
8.64
15.57
24.57
34.98
45.71
55.64
64.06
70.93
77.00
83.42
91.28
101.08
112.50
124.68
136.73
148.00
158.10
166.55
172.46
174.62
172.04
164.58
153.23
139.81
126.18
113.53
102.09
91.40
80.87
70.34
60.20
51.10
43.57
37.79
33.54
30.40
27.88
25.52
22.84
19.42
15.01
9.69
3.93
-1.53
-6.02
-9.22
-11.34
-12.99
-14.80
-17.04
-19.50
-21.50
-22.26
-21.29
-18.75
-15.42
-12.43
-10.78
-10.95
-12.59
-14.78
-16.44
-16.87
-16.14
-14.91
-14.13
-14.48
-15.92
-17.63
-18.14
-15.76
-9.05
2.70
19.11
38.44
57.75
73.38
81.87
81.02
70.75
53.19
32.10
11.68
-4.61
-14.85
-18.85
-17.93
-14.37
-10.78
-9.46
-11.90
-18.37
-27.81
-38.15
-46.92
-52.17
-52.98
-49.79
-44.05
-37.59
-32.04
-28.40
-26.91
-27.12
-28.09
-28.75
-28.33
-26.65
-24.30
-22.42
-22.32
-24.83
-30.02
-37.05
-44.63
-51.61
-57.45
-62.38
-67.11
-72.49
-79.05
-86.78
-94.94
-101.98
-105.71
-103.70
-94.09
-76.41
-52.09
-24.24
3.33
27.43
46.44
60.51
70.90
78.92
85.13
89.15
90.09
87.16
80.17
69.59
56.32
41.49
26.29
11.96
-0.17
-8.90
-13.41
-13.62
-10.20
-4.40
2.39
9.09
15.10
20.23
24.53
28.06
30.98
33.54
36.09
38.92
42.00
44.91
46.93
47.47
46.30
43.52
39.35
33.60
25.38
13.21
-4.58
-29.13
-60.65
-97.89
-137.91
-176.02
-206.38
-223.18
-222.53
-204.03
-171.40
-131.49
-92.00
-58.82
-34.40
-17.72
-5.86
3.94
12.90
20.58
25.83
28.05
27.83
26.85
27.09
29.95
35.81
43.89
52.75
60.87
67.25
71.59
74.15
75.51
76.06
75.80
74.36
71.21
66.04
59.00
50.62
41.61
32.53
23.53
14.35
4.65
-5.74
-16.50
-26.85
-35.92
-43.13
-48.55
-52.73
-56.30
-59.35
-61.21
-60.69
-56.69
-48.89
-37.98
-25.50
-13.16
-2.27
6.57
13.42
18.68
22.71
25.72
27.77
28.94
29.38
29.39
29.27
29.21
29.18
28.99
28.35
27.16
25.64
24.26
23.61
24.01
25.31
26.83
27.61
26.77
23.92
19.30
13.68
8.04
3.11
-0.93
-4.46
-8.23
-12.87
-18.59
-25.01
-31.41
-37.01
-41.41
-44.77
-47.70
-51.10
-55.88
-62.70
-71.58
-81.77
-91.53
-98.44
-99.86
-93.95
-80.41
-60.74
-37.93
-15.41
4.09
19.20
30.05
37.60
42.97
46.82
49.32
50.39
50.06
48.74
47.07
45.64
44.74
44.23
43.76
43.04
42.14
41.46
41.55
42.80
45.11
47.81
49.94
50.60
49.37
46.46
42.56
38.53
34.93
31.95
29.37
26.84
24.11
21.17
18.16
15.26
12.58
10.26
8.55
7.87
8.64
10.92
14.08
16.81
17.32
14.00
5.91
-6.96
-23.72
-42.80
-62.15
-79.38
-91.91
-97.36
-94.19
-82.31
-63.35
-40.37
-17.06
3.37
18.87
28.87
33.97
35.36
34.27
31.74
28.53
25.31
22.74
21.52
22.27
25.37
30.81
38.01
45.89
52.88
57.23
57.41
52.58
42.94
29.84
15.38
1.79
-9.25
-17.04
-21.70
-23.86
-24.12
-22.85
-20.28
-16.77
-13.06
-10.20
-9.15
-10.38
-13.60
-17.82
-21.77
-24.43
-25.46
-25.24
-24.65
-24.66
-25.96
-28.76
-32.76
-37.09
-40.41
-40.98
-36.96
-26.88
-10.26
12.06
38.01
64.90
90.22
112.27
130.26
143.89
152.81
156.35
153.65
144.20
128.33
107.38
83.45
58.90
35.79
15.54
-1.17
-14.35
-24.58
-32.64
-39.40
-45.57
-51.56
-57.58
-63.76
-70.22
-77.02
-84.05
-90.86
-96.67
-100.60
-102.03
-100.91
-97.85
-93.94
-90.37
-87.94
-86.80
-86.48
-86.12
-84.89
-82.34
-78.64
-74.50
-70.93
-68.86
-68.91
-71.18
-75.17
-79.67
-82.90
-82.69
-77.05
-64.92
-46.68
-24.30
-0.80
20.73
38.03
50.22
57.62
61.24
62.09
60.88
58.05
54.03
49.43
44.97
41.31
38.78
37.31
36.55
36.06
35.48
34.67
33.61
32.34
30.89
29.28
27.52
25.58
23.50
21.27
18.91
16.51
14.17
11.98
9.86
7.52
4.64
1.03
-3.18
-7.56
-11.63
-15.12
-18.16
-21.13
-24.49
-28.38
-32.67
-36.99
-41.11
-45.18
-49.64
-55.11
-62.09
-70.68
-80.43
-90.28
-98.55
-103.30
-102.72
-95.77
-82.60
-64.59
-43.96
-23.14
-4.15
11.73
24.10
33.11
39.20
42.87
44.65
45.01
44.42
43.34
42.09
40.86
39.65
38.43
37.15
35.86
34.73
33.91
33.49
33.42
33.51
33.47
33.12
32.36
31.28
29.95
28.42
26.63
24.43
21.65
18.33
14.71
11.29
8.53
6.57
5.05
3.23
0.25
-4.29
-10.13
-16.39
-21.99
-26.25
-29.25
-31.73
-34.75
-39.31
-45.85
-54.18
-63.48
-72.36
-79.10
-81.89
-79.37
-70.96
-57.27
-39.90
-21.08
-3.09
12.36
24.44
33.09
38.77
42.06
43.44
43.21
41.63
39.08
36.14
33.48
31.65
30.83
30.76
31.02
31.24
31.32
31.41
31.71
32.25
32.83
33.09
32.76
31.76
30.18
28.19
25.92
23.46
20.95
18.57
16.59
15.20
14.34
13.69
12.69
10.69
7.21
2.12
-4.25
-11.16
-17.72
-23.21
-27.38
-30.53
-33.43
-36.96
-41.86
-48.52
-56.82
-66.07
-74.97
-81.70
-84.27
-81.06
-71.37
-55.82
-36.23
-15.21
4.57
21.05
33.14
40.84
44.85
46.23
45.91
44.52
42.38
39.65
36.48
33.17
30.07
27.56
25.94
25.32
25.73
27.07
29.14
31.55
33.82
35.47
36.19
35.89
34.64
32.57
29.80
26.50
22.91
19.28
15.81
12.46
8.90
4.73
-0.28
-5.92
-11.62
-16.74
-20.94
-24.37
-27.59
-31.16
-35.27
-39.64
-43.74
-47.12
-49.88
-52.73
-56.80
-63.14
-72.06
-82.75
-93.31
-101.16
-103.85
-99.89
-89.16
-72.91
-53.23
-32.38
-12.24
5.87
21.08
32.80
40.70
44.77
45.47
43.71
40.61
37.18
34.10
31.64
29.79
28.38
27.26
26.32
25.51
24.77
24.15
23.70
23.51
23.61
23.92
24.24
24.31
23.99
23.27
22.33
21.44
20.90
20.86
21.24
21.82
22.28
22.29
21.60
19.95
17.09
12.87
7.28
0.64
-6.42
-13.17
-18.98
-23.59
-27.35
-31.01
-35.48
-41.30
-48.27
-55.31
-60.73
-62.68
-59.81
-51.68
-38.81
-22.60
-4.80
12.86
28.99
42.67
53.43
61.27
66.41
69.24
70.10
69.18
66.67
62.83
58.07
52.99
48.19
44.13
41.02
38.81
37.31
36.36
35.81
35.59
35.67
35.86
35.93
35.63
34.78
33.41
31.69
29.91
28.38
27.25
26.45
25.66
24.48
22.53
19.65
16.06
12.22
8.77
6.18
4.63
3.90
3.53
3.00
1.95
0.28
-1.90
-4.36
-6.91
-9.44
-11.98
-14.52
-17.06
-19.52
-21.74
-23.56
-24.82
-25.36
-25.00
-23.57
-20.90
-16.98
-11.99
-6.29
-0.48
4.94
9.58
13.33
16.22
18.38
19.87
20.69
20.90
20.65
20.22
19.95
20.09
20.72
21.65
22.50
22.87
22.51
21.54
20.37
19.55
19.46
20.08
20.97
21.51
21.22
19.98
18.08
15.98
14.12
12.65
11.51
10.50
9.46
8.27
6.89
5.28
3.47
1.59
-0.11
-1.33
-1.89
-1.84
-1.44
-1.13
-1.28
-2.12
-3.63
-5.62
-7.72
-9.56
-10.73
-10.99
-10.31
-8.92
-7.24
-5.70
-4.60
-3.92
-3.46
-2.92
-2.16
-1.17
-0.12
0.83
1.54
1.94
2.09
2.03
1.91
1.88
2.08
2.53
3.13
3.66
3.91
3.79
3.40
2.97
2.69
2.58
2.45
2.07
1.27
0.09
-1.21
-2.38
-3.24
-3.81
-4.28
-4.91
-5.88
-7.23
-8.87
-10.70
-12.73
-15.03
-17.68
-20.62
-23.58
-26.11
-27.90
-28.90
-29.49
-30.22
-31.58
-33.56
-35.59
-36.75
-36.10
-33.15
-28.04
-21.38
-14.14
-7.19
-1.16
3.63
7.14
9.45
10.71
11.08
10.82
10.27
9.86
9.95
10.72
12.09
13.75
15.27
16.33
16.81
16.75
16.25
15.41
14.30
13.05
11.88
11.06
10.71
10.69
10.62
10.09
8.86
7.01
4.92
2.96
1.35
-0.00
-1.35
-2.95
-4.86
-6.93
-8.92
-10.64
-12.06
-13.31
-14.68
-16.46
-18.84
-21.90
-25.48
-29.29
-32.86
-35.62
-36.95
-36.28
-33.31
-28.09
-21.17
-13.43
-5.87
0.66
5.69
9.27
11.70
13.41
14.74
15.83
16.65
17.13
17.24
17.04
16.67
16.32
16.13
16.16
16.32
16.39
16.21
15.76
15.13
14.55
14.17
13.92
13.59
12.90
11.74
10.17
8.42
6.68
5.08
3.57
2.11
0.68
-0.68
-1.93
-3.16
-4.59
-6.47
-8.87
-11.62
-14.36
-16.68
-18.35
-19.40
-20.21
-21.34
-23.42
-26.92
-31.94
-37.94
-43.67
-47.46
-47.64
-43.25
-34.56
-23.01
-10.78
0.10
8.43
14.08
17.65
19.94
21.48
22.41
22.69
22.37
21.71
21.03
20.57
20.30
20.01
19.50
18.69
17.74
16.93
16.50
16.52
16.87
17.24
17.30
16.82
15.79
14.39
12.94
11.67
10.68
9.86
9.02
7.99
6.67
5.09
3.31
1.41
-0.52
-2.36
-4.02
-5.43
-6.68
-7.94
-9.42
-11.19
-13.10
-14.87
-16.25
-17.21
-17.94
-18.81
-20.11
-21.93
-24.12
-26.37
-28.33
-29.68
-30.15
-29.48
-27.46
-24.00
-19.22
-13.57
-7.69
-2.24
2.30
5.72
8.02
9.35
9.79
9.40
8.29
6.73
5.16
4.08
3.90
4.79
6.64
9.13
11.85
14.38
16.41
17.66
17.98
17.33
15.83
13.71
11.32
9.05
7.22
6.07
5.64
5.84
6.41
6.98
7.17
6.62
5.16
2.79
-0.28
-3.67
-6.91
-9.60
-11.54
-12.79
-13.62
-14.41
-15.48
-16.96
-18.83
-20.95
-23.16
-25.40
-27.56
-29.43
-30.65
-30.67
-29.02
-25.51
-20.39
-14.42
-8.50
-3.44
0.44
3.28
5.54
7.58
9.51
11.15
12.27
12.82
13.01
13.21
13.69
14.49
15.39
16.11
16.45
16.41
16.13
15.78
15.42
14.99
14.42
13.66
12.78
11.88
11.06
10.27
9.40
8.31
6.99
5.59
4.35
3.51
3.11
2.93
2.58
1.65
-0.03
-2.38
-5.01
-7.39
-9.07
-9.89
-10.04
-9.96
-10.17
-10.99
-12.53
-14.60
-16.96
-19.39
-21.72
-23.79
-25.34
-26.03
-25.51
-23.66
-20.69
-17.01
-13.17
-9.52
-6.21
-3.20
-0.38
2.31
4.83
7.05
8.83
10.08
10.84
11.20
11.29
11.26
11.18
11.09
11.03
10.97
10.94
10.89
10.72
10.32
9.63
8.72
7.85
7.30
7.23
7.57
8.00
8.19
7.95
7.40
6.79
6.38
6.19
6.07
5.78
5.20
4.42
3.61
2.93
2.36
1.75
0.87
-0.39
-1.95
-3.63
-5.15
-6.31
-7.00
-7.24
-7.10
-6.67
-6.01
-5.16
-4.13
-2.93
-1.64
-0.37
0.84
1.96
2.91
3.62
3.94
3.74
3.02
1.96
0.86
-0.01
-0.46
-0.54
-0.35
0.00
0.52
1.27
2.20
3.09
3.63
3.58
2.99
2.18
1.60
1.55
1.99
2.57
2.94
2.87
2.43
1.92
1.58
1.41
1.21
0.71
-0.25
-1.54
-2.80
-3.70
-4.09
-4.19
-4.40
-5.14
-6.57
-8.53
-10.64
-12.52
-13.96
-14.94
-15.55
-15.82
-15.61
-14.80
-13.32
-11.34
-9.26
-7.53
-6.45
-6.03
-5.98
-5.88
-5.43
-4.53
-3.32
-2.08
-1.08
-0.43
-0.13
-0.06
-0.11
-0.21
-0.32
-0.38
-0.36
-0.24
-0.02
0.15
0.14
-0.15
-0.72
-1.53
-2.43
-3.34
-4.15
-4.85
-5.41
-5.88
-6.31
-6.78
-7.37
-8.13
-9.07
-10.22
-11.59
-13.20
-15.06
-17.11
-19.20
-21.17
-22.91
-24.37
-25.69
-27.07
-28.72
-30.82
-33.44
-36.56
-40.04
-43.70
-47.20
-50.03
-51.54
-51.05
-48.10
-42.67
-35.26
-26.78
-18.16
-10.16
-3.12
2.88
7.85
11.74
14.44
15.90
16.38
16.41
16.66
17.67
19.57
22.16
24.97
27.59
29.75
31.39
32.59
33.38
33.74
33.59
32.85
31.57
29.90
28.02
26.09
24.10
21.84
19.05
15.57
11.50
7.27
3.42
0.39
-1.76
-3.39
-5.09
-7.38
-10.42
-13.89
-17.26
-20.05
-22.08
-23.53
-24.74
-26.03
-27.59
-29.60
-32.37
-36.33
-41.66
-47.91
-53.68
-56.94
-55.70
-48.99
-37.47
-23.24
-9.08
2.67
10.98
16.23
19.74
22.86
26.33
29.98
33.02
34.56
34.09
31.63
27.71
23.04
18.16
13.33
8.51
3.65
-1.16
-5.61
-9.33
-12.10
-13.86
-14.52
-13.69
-10.63
-4.63
4.39
15.41
26.27
34.43
38.15
37.31
33.60
29.63
27.64
28.36
30.79
32.82
32.42
28.50
21.37
12.44
3.48
-3.79
-8.07
-8.68
-5.88
-1.19
2.55
1.70
-6.93
-24.60
-49.64
-77.55
-102.24
-118.06
-121.61
-112.69
-93.93
-69.63
-44.30
-21.52
-3.49
8.92
15.79
17.89
16.31
12.37
7.41
2.72
-0.62
-2.04
-1.36
1.15
5.06
9.84
15.08
20.53
26.10
31.75
37.31
42.42
46.48
48.81
48.83
46.50
42.31
37.29
32.61
29.06
26.82
25.34
23.73
21.20
17.50
13.07
8.90
6.18
5.85
8.27
13.12
19.56
26.58
33.39
39.59
45.26
50.54
55.39
59.26
61.20
60.15
55.27
46.16
32.88
15.90
-3.70
-24.05
-42.50
-56.29
-63.47
-63.85
-59.22
-52.61
-46.90
-43.42
-41.53
-39.20
-34.45
-26.46
-16.01
-4.80
5.53
14.14
21.05
26.58
30.78
33.21
33.26
30.59
25.52
18.88
11.71
4.70
-1.96
-8.37
-14.47
-19.74
-23.10
-23.34
-19.69
-12.19
-1.68
10.47
22.90
34.55
44.69
52.62
57.52
58.40
54.37
45.02
30.55
11.85
-9.75
-32.57
-54.77
-74.32
-89.06
-96.85
-95.85
-84.93
-64.01
-34.45
1.00
38.54
74.11
104.25
126.98
142.04
150.71
154.96
156.63
156.88
156.07
154.26
151.66
148.84
146.57
145.11
143.84
141.14
134.98
123.83
107.41
86.85
64.10
41.00
18.52
-3.31
-24.82
-45.98
-65.99
-83.49
-97.30
-107.02
-113.18
-116.90
-119.24
-120.85
-121.96
-122.60
-122.79
-122.40
-120.90
-117.25
-110.21
-98.93
-83.70
-66.14
-48.87
-34.66
-25.40
-21.52
-21.96
-24.58
-27.03
-27.41
-24.71
-18.95
-11.16
-3.10
3.06
5.34
2.55
-5.19
-16.35
-28.36
-38.34
-43.92
-43.95
-38.65
-29.42
-18.43
-8.03
-0.34
3.18
1.97
-3.61
-12.39
-22.93
-34.04
-45.39
-57.45
-71.13
-87.05
-104.95
-123.41
-140.22
-153.12
-160.58
-162.34
-159.23
-152.50
-142.82
-129.93
-112.92
-90.93
-63.97
-33.05
0.22
34.26
67.85
99.95
129.15
153.39
170.22
177.64
175.07
163.84
146.93
128.11
110.85
97.54
89.22
85.61
85.44
86.97
88.40
88.36
86.09
81.47
74.90
67.03
58.71
50.73
43.83
38.50
34.83
32.42
30.56
28.46
25.60
21.87
17.51
12.93
8.49
4.38
0.71
-2.44
-4.90
-6.54
-7.47
-8.16
-9.35
-11.79
-15.80
-21.12
-26.79
-31.55
-34.26
-34.27
-31.65
-27.04
-21.40
-15.73
-10.76
-6.88
-4.14
-2.42
-1.51
-1.25
-1.51
-2.12
-2.85
-3.44
-3.64
-3.40
-2.90
-2.42
-2.20
-2.27
-2.47
-2.54
-2.33
-1.88
-1.43
-1.24
-1.51
-2.23
-3.21
-4.14
-4.76
-4.94
-4.80
-4.56
-4.48
-4.70
-5.18
-5.77
-6.32
-6.77
-7.17
-7.62
-8.20
-8.86
-9.56
-10.21
-10.78
-11.20
-11.33
-10.97
-9.94
-8.20
-5.93
-3.47
-1.14
0.87
2.50
3.77
4.69
5.20
5.19
4.68
3.76
2.67
1.68
0.98
0.64
0.59
0.65
0.57
0.18
-0.59
-1.65
-2.82
-3.85
-4.52
-4.72
-4.52
-4.11
-3.79
-3.77
-4.13
-4.77
-5.49
-6.05
-6.28
-6.12
-5.60
-4.88
-4.22
-3.97
-4.40
-5.61
-7.40
-9.33
-10.87
-11.62
-11.42
-10.39
-8.83
-7.00
-5.12
-3.33
-1.79
-0.66
-0.05
0.05
-0.18
-0.51
-0.73
-0.78
-0.74
-0.70
-0.74
-0.86
-1.03
-1.20
-1.36
-1.53
-1.74
-1.99
-2.29
-2.66
-3.07
-3.50
-3.93
-4.36
-4.81
-5.30
-5.87
-6.45
-6.90
-7.03
-6.71
-5.89
-4.75
-3.55
-2.53
-1.87
-1.60
-1.63
-1.87
-2.27
-2.78
-3.33
-3.84
-4.22
-4.49
-4.77
-5.17
-5.78
-6.48
-7.05
-7.18
-6.64
-5.34
-3.37
-0.96
1.53
3.68
5.06
5.42
4.71
3.17
1.29
-0.49
-1.83
-2.68
-3.13
-3.24
-3.02
-2.35
-1.21
0.25
1.65
2.56
2.67
1.99
0.87
-0.17
-0.67
-0.52
0.06
0.62
0.74
0.27
-0.65
-1.68
-2.51
-3.03
-3.31
-3.54
-3.88
-4.38
-4.95
-5.47
-5.81
-5.89
-5.75
-5.45
-5.11
-4.77
-4.51
-4.33
-4.20
-4.05
-3.79
-3.30
-2.53
-1.46
-0.18
1.07
1.99
2.33
2.02
1.30
0.58
0.30
0.70
1.66
2.83
3.80
4.28
4.24
3.87
3.42
3.12
3.11
3.41
4.04
4.92
5.95
6.97
7.79
8.24
8.27
7.89
7.22
6.42
5.65
5.09
4.91
5.18
5.85
6.70
7.46
8.03
8.45
8.99
9.86
10.97
11.93
12.19
11.32
9.34
6.66
3.94
1.65
-0.01
-1.16
-2.05
-2.75
-3.25
-3.52
-3.64
-3.77
-3.97
-4.09
-3.82
-2.92
-1.43
0.18
1.28
1.38
0.41
-1.23
-2.89
-4.08
-4.63
-4.70
-4.67
-4.85
-5.32
-5.87
-6.17
-5.86
-4.76
-2.94
-0.71
1.46
3.10
3.87
3.59
2.29
0.13
-2.54
-5.28
-7.60
-9.13
-9.72
-9.52
-8.95
-8.46
-8.41
-8.86
-9.58
-10.24
-10.56
-10.49
-10.19
-9.89
-9.77
-9.80
-9.80
-9.52
-8.72
-7.42
-5.78
-4.15
-2.82
-1.97
-1.59
-1.54
-1.65
-1.86
-2.17
-2.67
-3.37
-4.24
-5.08
-5.67
-5.78
-5.35
-4.49
-3.49
-2.71
-2.39
-2.58
-3.08
-3.55
-3.72
-3.46
-2.87
-2.19
-1.60
-1.26
-1.17
-1.38
-1.91
-2.75
-3.75
-4.59
-4.92
-4.55
-3.63
-2.60
-2.00
-2.19
-3.19
-4.65
-6.12
-7.18
-7.67
-7.64
-7.27
-6.75
-6.16
-5.51
-4.74
-3.78
-2.67
-1.57
-0.74
-0.34
-0.42
-0.87
-1.41
-1.78
-1.81
-1.49
-0.91
-0.22
0.51
1.22
1.91
2.53
2.99
3.11
2.77
1.99
0.95
-0.03
-0.64
-0.79
-0.61
-0.38
-0.35
-0.51
-0.73
-0.83
-0.81
-0.88
-1.28
-2.14
-3.34
-4.52
-5.38
-5.79
-5.90
-5.97
-6.23
-6.76
-7.48
-8.21
-8.76
-9.02
-8.92
-8.49
-7.80
-6.94
-5.96
-4.81
-3.36
-1.59
0.38
2.24
3.58
4.12
3.91
3.32
2.77
2.55
2.56
2.53
2.20
1.55
0.88
0.59
0.95
1.88
3.01
3.85
4.17
4.03
3.83
3.99
4.72
5.85
6.94
7.52
7.22
6.09
4.42
2.67
1.15
-0.09
-1.19
-2.32
-3.50
-4.53
-5.05
-4.87
-4.02
-2.82
-1.81
-1.39
-1.78
-2.89
-4.44
-6.05
-7.49
-8.66
-9.59
-10.32
-10.87
-11.19
-11.21
-10.87
-10.17
-9.14
-7.86
-6.40
-4.89
-3.42
-2.14
-1.16
-0.55
-0.25
-0.17
-0.21
-0.29
-0.40
-0.51
-0.53
-0.33
0.18
1.11
2.48
4.24
6.29
8.45
10.55
12.46
14.11
15.48
16.67
17.79
18.91
20.12
21.48
23.13
25.25
27.97
31.20
34.52
37.26
38.70
38.41
36.32
32.88
28.71
24.38
20.19
16.06
11.69
6.84
1.63
-3.43
-7.61
-10.30
-11.32
-11.05
-10.23
-9.61
-9.57
-10.00
-10.55
-10.92
-11.07
-11.32
-12.02
-13.34
-15.08
-16.75
-17.87
-18.20
-17.91
-17.43
-17.27
-17.69
-18.54
-19.29
-19.30
-18.22
-16.23
-14.01
-12.39
-11.95
-12.60
-13.68
-14.36
-14.12
-12.96
-11.38
-9.95
-8.99
-8.50
-8.24
-8.00
-7.74
-7.56
-7.55
-7.66
-7.77
-7.72
-7.47
-7.14
-6.96
-7.17
-7.91
-9.19
-10.81
-12.35
-13.25
-13.01
-11.42
-8.73
-5.55
-2.60
-0.36
1.07
1.97
2.74
3.62
4.58
5.41
5.95
6.20
6.26
6.25
6.19
5.92
5.38
4.69
4.20
4.31
5.19
6.61
8.08
9.00
8.99
8.03
6.37
4.38
2.44
0.80
-0.35
-0.89
-0.91
-0.58
-0.29
-0.39
-1.03
-2.07
-3.10
-3.69
-3.73
-3.51
-3.54
-4.35
-6.05
-8.27
-10.33
-11.54
-11.48
-10.17
-7.89
-5.09
-2.17
0.55
2.87
4.65
5.86
6.48
6.63
6.42
6.00
5.47
4.98
4.77
5.03
5.80
6.89
7.81
8.05
7.38
5.97
4.45
3.51
3.54
4.44
5.65
6.49
6.47
5.55
4.04
2.44
1.13
0.23
-0.40
-1.00
-1.83
-2.99
-4.37
-5.74
-6.88
-7.77
-8.57
-9.46
-10.56
-11.65
-12.36
-12.39
-11.69
-10.53
-9.35
-8.37
-7.59
-6.74
-5.52
-3.85
-1.96
-0.14
1.32
2.33
2.97
3.45
3.89
4.43
5.09
5.88
6.70
7.40
7.86
8.05
8.13
8.27
8.53
8.77
8.75
8.22
7.20
5.96
4.90
4.37
4.49
5.18
6.17
7.21
8.08
8.60
8.69
8.27
7.42
6.27
5.04
3.87
2.79
1.73
0.61
-0.56
-1.70
-2.71
-3.53
-4.24
-4.96
-5.79
-6.72
-7.72
-8.72
-9.64
-10.33
-10.60
-10.21
-9.04
-7.11
-4.66
-2.06
0.31
2.22
3.65
4.77
5.83
6.95
8.13
9.20
9.94
10.13
9.69
8.70
7.45
6.33
5.72
5.91
6.84
8.19
9.47
10.18
10.03
9.10
7.73
6.39
5.46
5.16
5.46
6.16
6.95
7.49
7.48
6.70
5.09
2.78
0.07
-2.63
-4.86
-6.24
-6.54
-5.84
-4.54
-3.32
-3.03
-4.27
-7.10
-10.96
-14.79
-17.44
-18.16
-16.83
-13.97
-10.34
-6.66
-3.30
-0.38
2.09
4.02
5.21
5.45
4.77
3.51
2.18
1.34
1.18
1.61
2.36
3.11
3.81
4.56
5.48
6.61
7.78
8.78
9.55
10.16
10.78
11.47
12.09
12.30
11.80
10.53
8.70
6.73
5.05
3.97
3.60
3.90
4.63
5.42
5.88
5.74
4.92
3.63
2.18
0.85
-0.30
-1.39
-2.55
-3.80
-4.97
-5.88
-6.58
-7.33
-8.55
-10.42
-12.75
-14.93
-16.26
-16.27
-14.92
-12.59
-9.88
-7.32
-5.25
-3.71
-2.50
-1.38
-0.14
1.24
2.62
3.75
4.41
4.55
4.40
4.27
4.46
5.04
5.84
6.51
6.79
6.60
6.18
5.85
5.92
6.47
7.32
8.10
8.43
8.11
7.18
5.93
4.67
3.70
3.13
2.92
2.98
3.23
3.64
4.16
4.68
4.96
4.72
3.75
1.98
-0.38
-2.95
-5.25
-6.88
-7.71
-7.96
-8.04
-8.38
-9.24
-10.56
-12.02
-13.23
-13.85
-13.71
-12.82
-11.23
-8.94
-6.02
-2.68
0.67
3.51
5.44
6.34
6.45
6.15
5.77
5.40
4.92
4.13
3.04
1.85
1.01
0.94
1.79
3.35
5.17
6.73
7.67
7.90
7.49
6.65
5.62
4.57
3.62
2.87
2.42
2.29
2.47
2.77
2.91
2.56
1.52
-0.10
-1.88
-3.31
-3.96
-3.78
-3.12
-2.62
-2.88
-4.21
-6.42
-9.02
-11.43
-13.21
-14.19
-14.30
-13.53
-11.94
-9.69
-7.10
-4.62
-2.63
-1.22
-0.21
0.82
2.19
3.92
5.70
7.07
7.72
7.69
7.32
7.01
6.95
7.03
6.98
6.61
6.01
5.46
5.27
5.50
5.93
6.19
6.00
5.33
4.39
3.52
2.97
2.82
2.98
3.38
3.91
4.50
5.02
5.26
4.90
3.80
1.98
-0.23
-2.29
-3.64
-3.97
-3.40
-2.41
-1.69
-1.82
-3.02
-5.07
-7.46
-9.62
-11.19
-11.99
-12.05
-11.49
-10.40
-8.91
-7.15
-5.26
-3.41
-1.67
-0.04
1.59
3.33
5.19
7.02
8.45
9.07
8.53
6.85
4.44
2.06
0.46
0.04
0.68
1.84
2.92
3.56
3.86
4.16
4.73
5.54
6.22
6.30
5.40
3.55
1.09
-1.50
-3.90
-6.03
-8.11
-10.39
-13.04
-16.05
-19.26
-22.44
-25.43
-28.21
-30.92
-33.76
-36.93
-40.51
-44.49
-48.87
-53.78
-59.57
-66.71
-75.64
-86.59
-99.42
-113.51
-127.85
-141.05
-151.46
-157.33
-157.36
-151.21
-139.91
-125.78
-111.89
-101.31
-96.39
-98.53
-108.26
-125.41
-148.96
-176.87
-205.83
-231.55
-249.61
-256.67
-251.37
-234.53
-208.62
-176.48
-140.43
-101.71
-60.74
-17.94
25.55
67.58
105.49
137.05
161.45
179.57
193.48
205.40
216.47
226.50
234.23
238.38
238.51
235.44
230.74
226.01
222.02
218.45
214.29
208.38
200.16
189.91
178.64
167.57
157.67
149.43
142.76
137.39
132.88
128.92
125.23
121.56
117.66
113.34
108.63
103.79
99.18
95.07
91.57
88.61
86.10
84.11
82.79
82.22
82.09
81.67
79.91
75.92
69.38
60.73
51.03
41.39
32.47
24.22
15.99
7.04
-3.26
-15.17
-28.78
-44.09
-61.03
-79.20
-97.64
-114.68
-128.22
-136.29
-137.74
-132.51
-121.71
-107.03
-90.32
-73.07
-56.37
-40.95
-27.34
-15.85
-6.47
1.06
7.30
12.88
18.20
23.19
27.32
29.87
30.25
28.37
24.67
20.09
15.75
12.78
12.05
13.97
18.31
24.13
29.93
34.02
35.07
32.53
26.82
19.09
10.74
3.00
-3.45
-8.40
-12.03
-14.56
-16.35
-17.69
-18.98
-20.63
-22.97
-26.02
-29.46
-32.61
-34.57
-34.52
-31.95
-26.88
-19.87
-11.94
-4.35
1.68
5.25
6.01
4.17
0.56
-3.77
-7.88
-11.38
-14.55
-18.09
-22.59
-28.10
-34.02
-39.41
-43.49
-46.08
-47.45
-47.94
-47.50
-45.53
-41.29
-34.61
-26.11
-17.19
-9.08
-2.13
4.22
10.79
17.51
22.80
24.16
19.48
8.63
-6.12
-20.90
-31.87
-36.63
-34.87
-27.81
-17.45
-6.14
3.40
7.82
3.68
-11.21
-36.07
-66.16
-93.72
-110.66
-112.10
-98.77
-76.96
-55.89
-43.66
-43.95
-55.07
-71.44
-86.58
-95.75
-97.16
-91.40
-80.30
-65.86
-49.94
-34.35
-20.75
-10.26
-2.93
2.38
7.44
13.67
21.48
30.15
38.52
45.61
51.08
55.08
57.88
59.60
60.29
60.24
60.27
61.59
65.34
71.94
80.84
90.58
99.52
106.67
112.15
116.98
122.48
129.42
137.64
146.05
153.18
157.65
158.61
155.83
149.66
140.93
130.80
120.54
111.31
103.70
97.51
91.73
84.98
76.06
64.44
50.51
35.32
20.21
6.33
-5.65
-15.62
-23.80
-30.61
-36.37
-41.44
-46.12
-50.65
-55.07
-59.08
-62.03
-63.11
-61.74
-57.88
-52.12
-45.55
-39.38
-34.51
-31.36
-29.91
-29.90
-30.94
-32.66
-34.58
-36.10
-36.58
-35.55
-32.95
-29.18
-24.97
-21.08
-17.97
-15.70
-14.03
-12.63
-11.37
-10.28
-9.51
-8.98
-8.38
-7.27
-5.34
-2.69
0.15
2.49
3.89
4.41
4.55
4.88
5.70
6.81
7.68
7.81
7.06
5.71
4.18
2.81
1.60
0.36
-1.04
-2.49
-3.77
-4.68
-5.37
-6.26
-7.77
-10.03
-12.67
-15.04
-16.63
-17.32
-17.54
-17.98
-19.19
-21.18
-23.51
-25.49
-26.74
-27.36
-27.94
-29.15
-31.31
-34.05
-36.39
-37.26
-36.05
-32.98
-28.99
-25.26
-22.60
-21.16
-20.49
-19.87
-18.88
-17.45
-15.84
-14.39
-13.27
-12.47
-11.84
-11.25
-10.69
-10.23
-9.88
-9.61
-9.25
-8.64
-7.70
-6.42
-4.86
-3.18
-1.53
-0.03
1.14
1.85
2.00
1.60
0.82
-0.10
-0.86
-1.38
-1.69
-2.02
-2.54
-3.24
-3.99
-4.61
-5.02
-5.34
-5.76
-6.40
-7.22
-8.07
-8.80
-9.47
-10.21
-11.25
-12.69
-14.45
-16.27
-17.85
-18.95
-19.44
-19.32
-18.61
-17.32
-15.49
-13.17
-10.47
-7.59
-4.79
-2.36
-0.54
0.55
0.94
0.84
0.57
0.47
0.75
1.55
2.82
4.39
6.07
7.59
8.74
9.40
9.59
9.42
9.08
8.75
8.56
8.57
8.71
8.78
8.56
7.90
6.77
5.31
3.74
2.25
0.87
-0.50
-1.98
-3.62
-5.32
-6.93
-8.34
-9.57
-10.81
-12.20
-13.77
-15.32
-16.64
-17.61
-18.28
-18.87
-19.42
-19.86
-19.91
-19.32
-17.94
-15.95
-13.60
-11.20
-8.88
-6.70
-4.60
-2.54
-0.56
1.27
2.85
4.13
5.14
5.84
6.30
6.54
6.64
6.71
6.87
7.22
7.88
8.98
10.54
12.42
14.29
15.63
15.95
15.00
12.93
10.37
8.09
6.78
6.70
7.63
8.94
9.94
10.09
9.12
7.11
4.29
1.08
-2.06
-4.61
-6.22
-6.79
-6.59
-6.26
-6.54
-8.02
-10.78
-14.40
-18.09
-21.02
-22.68
-22.93
-22.04
-20.33
-18.06
-15.32
-12.12
-8.57
-4.98
-1.78
0.69
2.32
3.35
4.13
5.00
6.02
7.06
7.90
8.43
8.79
9.20
9.84
10.75
11.78
12.71
13.40
13.84
14.11
14.33
14.54
14.70
14.70
14.39
13.71
12.65
11.35
9.96
8.64
7.41
6.21
4.94
3.55
2.16
1.00
0.27
0.00
0.06
0.12
-0.07
-0.62
-1.53
-2.71
-4.12
-5.77
-7.65
-9.70
-11.78
-13.78
-15.58
-17.06
-18.03
-18.23
-17.46
-15.70
-13.27
-10.65
-8.37
-6.64
-5.37
-4.16
-2.72
-0.98
0.84
2.31
3.17
3.46
3.40
3.36
3.56
4.00
4.53
5.00
5.39
5.84
6.46
7.33
8.30
9.15
9.62
9.58
9.04
8.11
7.04
6.05
5.31
4.83
4.44
3.84
2.73
1.00
-1.16
-3.34
-5.08
-6.13
-6.48
-6.43
-6.41
-6.82
-7.95
-9.88
-12.50
-15.54
-18.58
-21.11
-22.66
-22.89
-21.78
-19.49
-16.37
-12.75
-8.95
-5.19
-1.62
1.60
4.34
6.48
7.98
8.81
9.09
9.01
8.89
8.95
9.25
9.63
9.75
9.34
8.36
7.10
6.08
5.74
6.24
7.26
8.30
8.88
8.78
8.06
6.96
5.68
4.31
2.92
1.65
0.68
0.11
-0.12
-0.29
-0.77
-1.80
-3.40
-5.38
-7.49
-9.63
-11.79
-14.11
-16.71
-19.55
-22.50
-25.26
-27.39
-28.42
-27.96
-25.80
-22.11
-17.39
-12.43
-7.90
-4.17
-1.21
1.36
3.88
6.39
8.66
10.25
10.94
10.77
10.16
9.61
9.49
9.85
10.52
11.18
11.70
12.12
12.64
13.47
14.67
15.99
17.05
17.42
16.83
15.34
13.31
11.27
9.61
8.42
7.51
6.56
5.42
4.17
3.05
2.33
1.98
1.83
1.49
0.66
-0.76
-2.68
-4.83
-6.94
-8.82
-10.42
-11.83
-13.24
-14.82
-16.67
-18.74
-20.89
-22.88
-24.43
-25.28
-25.18
-23.97
-21.62
-18.32
-14.43
-10.42
-6.71
-3.53
-0.84
1.52
3.71
5.80
7.73
9.31
10.47
11.16
11.47
11.59
11.68
11.90
12.31
12.82
13.36
13.82
14.12
14.24
14.22
14.10
13.92
13.75
13.56
13.27
12.79
12.05
11.18
10.37
9.84
9.66
9.70
9.69
9.39
8.77
7.97
7.25
6.77
6.47
6.10
5.37
4.15
2.51
0.67
-1.09
-2.55
-3.63
-4.31
-4.75
-5.16
-5.84
-7.08
-9.08
-11.89
-15.37
-19.22
-23.03
-26.36
-28.78
-29.94
-29.62
-27.82
-24.71
-20.70
-16.21
-11.70
-7.53
-3.97
-1.13
1.05
2.81
4.53
6.47
8.73
11.00
12.78
13.61
13.31
12.18
10.85
9.94
9.78
10.30
11.12
11.90
12.50
13.00
13.56
14.19
14.72
14.88
14.55
13.81
12.88
11.97
11.15
10.36
9.51
8.64
7.90
7.41
7.21
7.20
7.21
7.06
6.66
5.88
4.77
3.38
1.88
0.54
-0.48
-1.16
-1.76
-2.63
-4.03
-5.92
-7.97
-9.71
-10.84
-11.43
-11.86
-12.70
-14.37
-16.99
-20.35
-24.01
-27.38
-29.83
-30.81
-30.00
-27.37
-23.19
-18.01
-12.47
-7.13
-2.38
1.59
4.67
6.88
8.24
8.85
8.87
8.53
8.10
7.83
7.79
7.89
8.02
8.09
8.11
8.31
8.86
9.96
11.59
13.51
15.32
16.64
17.25
17.17
16.62
15.88
15.12
14.44
13.81
13.16
12.46
11.65
10.69
9.55
8.22
6.71
5.10
3.45
1.77
0.08
-1.59
-3.14
-4.42
-5.29
-5.73
-5.87
-5.96
-6.18
-6.70
-7.67
-9.24
-11.60
-14.87
-18.89
-23.27
-27.31
-30.29
-31.57
-30.91
-28.39
-24.38
-19.40
-14.02
-8.72
-3.86
0.40
3.98
6.86
9.02
10.37
10.94
10.81
10.21
9.47
8.90
8.63
8.68
8.99
9.45
10.04
10.70
11.31
11.75
11.94
11.91
11.84
11.87
12.06
12.27
12.32
12.10
11.69
11.33
11.26
11.60
12.21
12.75
12.83
12.15
10.69
8.65
6.42
4.41
2.93
2.10
1.81
1.80
1.78
1.59
1.14
0.45
-0.61
-2.18
-4.43
-7.43
-10.98
-14.72
-18.23
-21.25
-23.73
-25.69
-27.16
-27.88
-27.48
-25.55
-22.06
-17.31
-12.04
-7.02
-2.84
0.35
2.75
4.66
6.35
7.80
8.83
9.23
9.02
8.38
7.72
7.43
7.66
8.32
9.01
9.34
9.13
8.50
7.86
7.66
8.13
9.14
10.30
11.10
11.11
10.16
8.40
6.21
4.06
2.42
1.53
1.34
1.39
1.12
0.03
-1.96
-4.49
-6.93
-8.71
-9.69
-10.12
-10.56
-11.49
-13.09
-15.15
-17.27
-19.10
-20.36
-20.95
-20.82
-19.96
-18.32
-15.94
-12.96
-9.67
-6.35
-3.19
-0.33
2.26
4.55
6.54
8.09
9.05
9.32
8.93
8.06
7.06
6.34
6.13
6.48
7.13
7.73
7.99
7.92
7.82
8.05
8.86
10.18
11.62
12.66
12.85
12.08
10.59
8.80
7.18
5.99
5.26
4.79
4.23
3.28
1.80
-0.15
-2.34
-4.51
-6.42
-8.02
-9.27
-10.30
-11.27
-12.36
-13.82
-15.76
-18.21
-20.98
-23.65
-25.70
-26.57
-25.86
-23.48
-19.68
-15.01
-10.21
-5.96
-2.74
-0.66
0.57
1.42
2.40
3.84
5.82
8.15
10.48
12.44
13.70
14.15
13.89
13.22
12.57
12.34
12.81
13.99
15.66
17.28
18.35
18.43
17.37
15.41
13.03
10.81
9.18
8.27
7.90
7.79
7.61
7.27
6.76
6.19
5.58
4.90
4.04
3.01
1.91
0.87
-0.07
-1.05
-2.38
-4.37
-7.06
-10.16
-13.20
-15.72
-17.59
-19.13
-20.87
-23.25
-26.20
-29.10
-31.01
-31.12
-29.06
-25.04
-19.72
-13.85
-8.07
-2.84
1.56
4.96
7.30
8.65
9.25
9.43
9.57
9.88
10.48
11.30
12.19
12.98
13.50
13.66
13.48
13.11
12.73
12.53
12.60
12.92
13.39
13.86
14.15
14.10
13.63
12.72
11.55
10.27
9.07
8.07
7.31
6.80
6.54
6.46
6.49
6.41
6.03
5.11
3.54
1.34
-1.27
-3.95
-6.27
-7.90
-8.70
-8.88
-9.00
-9.66
-11.31
-14.02
-17.27
-20.37
-22.59
-23.52
-23.13
-21.70
-19.53
-16.93
-14.08
-11.17
-8.31
-5.59
-3.00
-0.51
1.87
4.08
6.01
7.56
8.66
9.24
9.32
8.89
8.06
7.05
6.15
5.65
5.74
6.54
7.92
9.71
11.69
13.57
15.08
15.86
15.60
14.09
11.51
8.38
5.49
3.49
2.64
2.64
2.79
2.40
1.12
-0.83
-2.84
-4.35
-5.13
-5.33
-5.42
-5.78
-6.60
-7.90
-9.64
-11.81
-14.38
-17.18
-19.79
-21.59
-21.94
-20.46
-17.28
-13.01
-8.53
-4.64
-1.77
0.15
1.50
2.71
3.98
5.14
5.86
5.94
5.51
5.04
5.12
6.05
7.72
9.57
10.90
11.22
10.40
8.77
6.93
5.55
5.05
5.44
6.34
7.18
7.41
6.81
5.52
3.94
2.55
1.64
1.29
1.32
1.41
1.26
0.70
-0.36
-1.89
-3.71
-5.69
-7.61
-9.33
-10.83
-12.22
-13.72
-15.61
-18.07
-21.07
-24.33
-27.31
-29.42
-30.16
-29.27
-26.83
-23.11
-18.59
-13.79
-9.17
-5.06
-1.66
1.05
3.19
4.94
6.43
7.78
8.98
10.03
10.97
11.90
12.88
13.95
14.99
15.76
16.09
15.88
15.37
14.94
15.02
15.77
17.06
18.41
19.29
19.38
18.69
17.49
16.18
14.95
13.76
12.41
10.73
8.78
6.76
4.92
3.40
2.05
0.57
-1.24
-3.38
-5.56
-7.40
-8.64
-9.37
-9.99
-11.05
-12.97
-15.80
-19.27
-22.74
-25.46
-26.74
-26.23
-23.88
-20.06
-15.41
-10.68
-6.55
-3.39
-1.18
0.43
1.91
3.65
5.77
8.14
10.44
12.41
13.90
14.92
15.54
15.78
15.71
15.38
14.99
14.81
15.09
15.90
17.00
18.05
18.64
18.55
17.78
16.49
14.99
13.54
12.33
11.45
10.84
10.41
9.97
9.42
8.67
7.75
6.74
5.75
4.87
4.13
3.46
2.78
2.01
1.14
0.21
-0.71
-1.58
-2.46
-3.62
-5.47
-8.39
-12.55
-17.68
-23.05
-27.66
-30.52
-30.94
-28.80
-24.59
-19.20
-13.66
-8.77
-5.03
-2.54
-1.07
-0.24
0.37
1.07
1.99
2.98
3.85
4.46
4.88
5.37
6.13
7.14
8.12
8.73
8.78
8.53
8.49
9.17
10.72
12.78
14.58
15.32
14.48
12.08
8.69
5.16
2.38
0.86
0.56
0.99
1.36
1.02
-0.25
-2.08
-3.91
-5.25
-6.06
-6.79
-8.02
-10.11
-12.96
-16.09
-18.93
-21.06
-22.41
-23.00
-22.89
-21.97
-20.10
-17.24
-13.65
-9.83
-6.32
-3.48
-1.30
0.55
2.43
4.56
6.84
8.94
10.45
11.09
10.86
10.01
8.93
8.02
7.55
7.59
8.09
8.93
9.91
10.90
11.74
12.30
12.44
12.15
11.39
10.26
8.86
7.35
5.82
4.32
2.82
1.26
-0.41
-2.22
-4.09
-5.84
-7.30
-8.28
-8.77
-9.00
-9.42
-10.61
-12.99
-16.55
-20.77
-24.62
-27.02
-27.19
-25.08
-21.28
-16.79
-12.57
-9.15
-6.48
-4.18
-1.81
0.82
3.57
6.10
8.10
9.44
10.23
10.64
10.79
10.67
10.20
9.44
8.66
8.30
8.73
10.04
11.95
13.84
15.11
15.36
14.56
12.96
10.99
9.02
7.36
6.24
5.79
5.93
6.38
6.62
6.15
4.76
2.68
0.52
-1.17
-2.12
-2.53
-2.87
-3.57
-4.83
-6.57
-8.58
-10.77
-13.25
-16.19
-19.65
-23.30
-26.40
-28.06
-27.55
-24.76
-20.16
-14.76
-9.73
-5.83
-3.20
-1.34
0.45
2.71
5.36
7.94
9.88
10.92
11.33
11.60
12.29
13.55
15.13
16.51
17.23
17.08
16.30
15.33
14.62
14.46
14.82
15.50
16.24
16.86
17.22
17.23
16.74
15.48
13.27
10.13
6.52
3.18
0.91
0.13
0.67
1.92
2.91
2.93
1.70
-0.56
-3.27
-5.79
-7.69
-8.84
-9.44
-9.93
-10.77
-12.31
-14.56
-17.31
-20.15
-22.60
-24.24
-24.71
-23.68
-20.94
-16.55
-10.98
-5.03
0.30
4.27
6.58
7.46
7.42
6.97
6.41
5.80
5.22
4.74
4.57
4.82
5.37
5.93
6.22
6.16
5.93
5.87
6.24
7.04
8.03
8.84
9.15
8.83
7.99
6.77
5.39
4.02
2.82
1.90
1.26
0.80
0.29
-0.50
-1.77
-3.47
-5.38
-7.12
-8.39
-9.11
-9.54
-10.12
-11.21
-12.89
-14.91
-16.78
-18.05
-18.41
-17.78
-16.22
-13.85
-10.81
-7.33
-3.73
-0.50
1.96
3.40
3.95
3.97
3.99
4.37
5.24
6.50
7.80
8.74
9.00
8.44
7.19
5.65
4.33
3.72
4.15
5.53
7.42
9.18
10.20
10.22
9.42
8.21
7.00
5.96
4.96
3.74
2.15
0.27
-1.59
-3.21
-4.47
-5.50
-6.53
-7.77
-9.32
-11.24
-13.51
-16.05
-18.64
-20.91
-22.43
-22.85
-22.05
-20.14
-17.35
-13.91
-10.00
-5.88
-1.85
1.70
4.46
6.40
7.70
8.74
9.78
10.83
11.65
11.98
11.73
11.10
10.45
10.04
9.86
9.67
9.24
8.55
7.89
7.58
7.82
8.37
8.75
8.52
7.54
6.11
4.74
3.83
3.43
3.23
2.77
1.72
0.12
-1.72
-3.39
-4.65
-5.56
-6.44
-7.65
-9.44
-11.79
-14.45
-17.15
-19.64
-21.80
-23.55
-24.73
-25.09
-24.36
-22.31
-18.98
-14.65
-9.70
-4.62
0.19
4.43
7.75
9.95
11.03
11.30
11.21
11.30
11.82
12.57
13.14
13.10
12.39
11.25
10.17
9.52
9.37
9.58
9.96
10.49
11.20
12.05
12.79
13.04
12.54
11.36
9.91
8.64
7.81
7.36
6.92
6.16
4.94
3.31
1.41
-0.67
-2.92
-5.26
-7.45
-9.21
-10.36
-11.04
-11.78
-13.16
-15.54
-18.79
-22.23
-24.86
-25.79
-24.58
-21.33
-16.63
-11.35
-6.25
-1.89
1.49
3.90
5.39
6.18
6.45
6.41
6.27
6.22
6.37
6.70
7.12
7.47
7.63
7.64
7.63
7.87
8.55
9.70
11.15
12.53
13.43
13.56
12.80
11.27
9.28
7.25
5.50
4.27
3.57
3.31
3.18
2.88
2.23
1.20
-0.12
-1.48
-2.70
-3.77
-4.77
-5.81
-7.05
-8.54
-10.29
-12.29
-14.52
-16.89
-19.20
-21.03
-21.93
-21.46
-19.47
-16.14
-12.04
-7.73
-3.71
-0.23
2.66
4.89
6.33
6.86
6.55
5.69
4.74
4.10
3.93
4.12
4.41
4.59
4.67
4.87
5.45
6.46
7.74
8.87
9.43
9.13
7.92
6.00
3.75
1.64
0.09
-0.71
-0.87
-0.78
-0.86
-1.37
-2.23
-3.14
-3.72
-3.87
-3.85
-4.23
-5.51
-7.85
-10.92
-14.02
-16.46
-17.89
-18.32
-18.04
-17.24
-15.88
-13.68
-10.46
-6.25
-1.56
2.82
6.19
8.13
8.71
8.34
7.59
6.93
6.65
6.83
7.32
7.90
8.37
8.70
8.94
9.32
10.05
11.24
12.79
14.31
15.33
15.44
14.49
12.64
10.42
8.40
7.05
6.54
6.58
6.68
6.25
4.92
2.65
-0.21
-3.26
-6.14
-8.68
-10.85
-12.58
-13.86
-14.74
-15.39
-16.16
-17.47
-19.52
-22.10
-24.63
-26.18
-25.96
-23.53
-19.14
-13.63
-8.16
-3.71
-0.76
0.87
1.86
2.96
4.55
6.57
8.58
10.16
11.23
12.06
12.99
14.17
15.33
16.08
16.07
15.34
14.21
13.16
12.44
12.11
12.05
12.16
12.46
13.03
13.76
14.37
14.44
13.79
12.54
11.13
10.04
9.40
8.98
8.32
6.99
4.99
2.60
0.29
-1.56
-2.87
-3.71
-4.26
-4.71
-5.26
-6.11
-7.46
-9.32
-11.50
-13.62
-15.38
-16.73
-17.97
-19.52
-21.57
-23.92
-25.92
-26.83
-26.09
-23.68
-19.96
-15.48
-10.70
-5.91
-1.34
2.68
5.73
7.40
7.63
6.79
5.68
5.19
5.90
7.80
10.40
12.91
14.68
15.38
15.17
14.42
13.58
12.91
12.50
12.29
12.19
12.08
11.93
11.68
11.32
10.82
10.25
9.62
9.00
8.32
7.50
6.42
5.02
3.36
1.59
-0.05
-1.43
-2.50
-3.26
-3.74
-3.98
-4.16
-4.58
-5.64
-7.68
-10.84
-14.77
-18.71
-21.74
-23.11
-22.62
-20.57
-17.60
-14.34
-11.11
-7.83
-4.31
-0.50
3.27
6.33
8.04
8.15
7.00
5.38
4.11
3.66
3.95
4.58
5.19
5.65
6.22
7.18
8.66
10.47
12.22
13.51
14.13
14.05
13.39
12.34
11.07
9.76
8.55
7.52
6.69
6.03
5.55
5.29
5.39
5.76
6.12
5.95
4.73
2.30
-0.99
-4.35
-6.97
-8.40
-8.80
-8.84
-9.32
-10.76
-13.26
-16.54
-20.16
-23.73
-26.85
-29.06
-29.76
-28.36
-24.66
-19.06
-12.59
-6.62
-2.24
0.12
0.86
0.89
1.20
2.29
4.16
6.42
8.61
10.38
11.66
12.42
12.69
12.47
11.88
11.18
10.73
10.92
11.86
13.39
15.04
16.22
16.53
15.86
14.50
12.93
11.60
10.70
10.04
9.18
7.75
5.65
3.26
1.17
-0.11
-0.48
-0.34
-0.38
-1.08
-2.50
-4.18
-5.55
-6.30
-6.66
-7.28
-8.87
-11.83
-15.96
-20.54
-24.57
-27.14
-27.81
-26.57
-23.84
-20.14
-15.87
-11.28
-6.56
-1.98
1.94
4.64
5.73
5.33
4.09
3.03
2.98
4.18
6.14
8.02
9.09
9.12
8.41
7.49
6.74
6.28
6.00
5.80
5.81
6.24
7.19
8.45
9.44
9.58
8.62
6.87
5.01
3.74
3.32
3.49
3.68
3.36
2.28
0.56
-1.41
-3.26
-4.75
-5.88
-6.82
-7.80
-9.12
-10.89
-13.07
-15.39
-17.41
-18.73
-19.08
-18.38
-16.69
-14.18
-10.94
-7.21
-3.25
0.54
3.68
5.75
6.62
6.42
5.57
4.66
4.14
4.32
5.17
6.36
7.44
7.97
7.79
7.02
6.03
5.24
4.93
5.23
5.95
6.86
7.64
8.02
7.77
6.73
4.85
2.31
-0.54
-3.25
-5.40
-6.80
-7.55
-7.91
-8.18
-8.60
-9.28
-10.28
-11.69
-13.63
-16.12
-18.89
-21.33
-22.72
-22.58
-20.85
-17.92
-14.39
-10.76
-7.23
-3.81
-0.45
2.71
5.36
7.17
8.06
8.24
8.16
8.20
8.51
9.00
9.47
9.80
10.06
10.44
11.08
11.98
12.93
13.55
13.59
12.96
11.86
10.66
9.67
9.06
8.75
8.62
8.50
8.41
8.29
8.01
7.28
5.72
3.17
-0.20
-3.76
-6.85
-8.88
-9.79
-10.05
-10.50
-11.98
-14.88
-19.00
-23.48
-27.21
-29.20
-29.01
-26.82
-23.25
-19.01
-14.61
-10.26
-5.98
-1.89
1.75
4.68
6.85
8.40
9.67
10.86
11.91
12.59
12.64
12.10
11.37
11.02
11.54
13.05
15.27
17.62
19.54
20.51
20.36
19.20
17.41
15.48
13.88
12.93
12.63
12.66
12.57
11.97
10.73
9.03
7.20
5.53
4.08
2.68
1.06
-0.90
-3.09
-5.19
-6.89
-8.16
-9.17
-10.31
-11.88
-14.00
-16.58
-19.42
-22.26
-24.71
-26.33
-26.66
-25.39
-22.61
-18.71
-14.34
-10.12
-6.40
-3.20
-0.50
1.77
3.52
4.69
5.44
6.17
7.31
9.07
11.22
13.19
14.42
14.68
14.21
13.62
13.52
14.23
15.63
17.24
18.44
18.83
18.38
17.38
16.35
15.65
15.33
15.08
14.41
12.98
10.88
8.50
6.28
4.55
3.20
1.89
0.28
-1.70
-3.79
-5.53
-6.56
-6.80
-6.51
-6.17
-6.26
-7.11
-8.82
-11.34
-14.47
-18.03
-21.78
-25.43
-28.51
-30.29
-30.08
-27.45
-22.66
-16.59
-10.52
-5.47
-1.86
0.59
2.55
4.64
6.99
9.30
11.05
11.86
11.69
10.77
9.47
8.13
6.97
6.23
6.07
6.61
7.85
9.55
11.30
12.71
13.55
13.83
13.73
13.43
13.00
12.46
11.72
10.78
9.71
8.62
7.57
6.49
5.25
3.82
2.35
1.11
0.36
0.10
0.03
-0.33
-1.36
-3.22
-5.79
-8.83
-12.15
-15.57
-19.04
-22.37
-25.21
-27.14
-27.76
-26.91
-24.71
-21.58
-17.91
-14.03
-10.08
-6.12
-2.38
0.91
3.51
5.36
6.66
7.76
8.92
10.20
11.36
12.03
12.05
11.50
10.70
9.98
9.57
9.41
9.35
9.35
9.44
9.75
10.29
10.96
11.49
11.63
11.37
10.89
10.54
10.58
10.98
11.41
11.29
10.25
8.24
5.71
3.31
1.54
0.45
-0.42
-1.71
-3.82
-6.60
-9.48
-11.81
-13.29
-14.16
-15.18
-16.96
-19.74
-23.08
-26.02
-27.53
-26.95
-24.30
-20.13
-15.31
-10.55
-6.30
-2.69
0.37
2.94
5.04
6.56
7.39
7.60
7.51
7.48
7.77
8.39
9.15
9.78
10.23
10.66
11.36
12.42
13.66
14.56
14.64
13.67
11.97
10.19
9.06
8.82
9.25
9.77
9.87
9.30
8.21
6.92
5.73
4.76
3.86
2.89
1.72
0.36
-1.09
-2.51
-3.81
-5.01
-6.18
-7.47
-9.08
-11.18
-13.80
-16.73
-19.57
-21.89
-23.30
-23.60
-22.77
-20.87
-18.03
-14.46
-10.40
-6.22
-2.30
1.05
3.71
5.68
7.09
8.06
8.59
8.60
8.04
6.99
5.74
4.76
4.42
4.95
6.22
7.84
9.29
10.13
10.19
9.52
8.40
7.14
6.06
5.34
5.00
4.92
4.81
4.33
3.21
1.46
-0.69
-2.81
-4.57
-5.82
-6.64
-7.25
-7.89
-8.64
-9.54
-10.66
-12.07
-13.87
-16.06
-18.34
-20.15
-20.77
-19.66
-16.65
-12.16
-7.01
-2.17
1.65
4.23
5.84
6.99
8.06
9.07
9.71
9.59
8.58
6.94
5.28
4.28
4.37
5.53
7.41
9.44
11.10
12.10
12.39
12.22
11.93
11.88
12.22
12.81
13.33
13.30
12.39
10.58
8.16
5.69
3.75
2.63
2.25
2.13
1.73
0.66
-0.97
-2.82
-4.42
-5.49
-6.18
-6.93
-8.20
-10.21
-12.77
-15.50
-18.04
-20.39
-22.69
-25.08
-27.37
-28.92
-29.01
-27.21
-23.66
-19.11
-14.53
-10.58
-7.47
-4.89
-2.43
0.11
2.56
4.57
5.90
6.60
7.10
7.82
8.93
10.26
11.39
12.00
11.99
11.64
11.39
11.63
12.52
13.85
15.21
16.13
16.34
15.84
14.83
13.65
12.53
11.61
10.94
10.45
9.98
9.37
8.45
7.12
5.37
3.35
1.31
-0.45
-1.70
-2.42
-2.81
-3.10
-3.54
-4.24
-5.18
-6.23
-7.40
-8.82
-10.69
-13.16
-16.14
-19.37
-22.42
-24.91
-26.61
-27.43
-27.37
-26.33
-24.25
-21.12
-17.17
-12.86
-8.73
-5.14
-2.20
0.28
2.56
4.71
6.66
8.14
8.97
9.10
8.69
8.02
7.37
6.96
6.95
7.49
8.68
10.47
12.63
14.73
16.32
17.05
16.83
15.92
14.76
13.75
13.14
12.90
12.79
12.54
12.00
11.13
10.00
8.67
7.23
5.72
4.32
3.15
2.33
1.89
1.73
1.74
1.81
1.80
1.61
1.10
0.13
-1.44
-3.60
-6.20
-8.94
-11.53
-13.81
-15.89
-18.07
-20.67
-23.81
-27.17
-30.06
-31.58
-31.04
-28.33
-24.07
-19.31
-15.11
-12.11
-10.13
-8.57
-6.64
-3.88
-0.45
3.06
5.89
7.57
8.07
7.82
7.28
6.80
6.48
6.18
5.81
5.52
5.69
6.67
8.57
10.97
13.12
14.21
13.84
12.21
10.07
8.34
7.64
8.08
9.13
10.11
10.41
9.70
8.11
5.86
3.25
0.50
-2.16
-4.50
-6.29
-7.47
-8.28
-9.24
-10.97
-13.80
-17.45
-21.09
-23.59
-24.03
-22.17
-18.47
-13.88
-9.41
-5.76
-3.13
-1.30
0.10
1.41
2.77
4.13
5.41
6.56
7.59
8.55
9.39
10.01
10.23
9.89
8.95
7.55
6.02
4.79
4.27
4.73
6.14
8.21
10.44
12.16
12.82
12.26
10.70
8.79
7.14
6.12
5.66
5.39
4.81
3.65
1.87
-0.39
-2.95
-5.57
-8.06
-10.17
-11.70
-12.64
-13.29
-14.23
-16.01
-18.82
-22.24
-25.28
-26.81
-26.04
-22.97
-18.22
-12.78
-7.53
-2.96
0.84
3.87
6.11
7.42
7.73
7.18
6.20
5.32
4.89
5.01
5.46
6.02
6.62
7.33
8.28
9.42
10.61
11.52
11.97
11.90
11.36
10.51
9.44
8.26
7.04
5.85
4.71
3.56
2.29
0.85
-0.65
-1.95
-2.75
-3.03
-3.01
-3.21
-4.16
-6.13
-9.09
-12.72
-16.60
-20.32
-23.57
-26.01
-27.32
-27.16
-25.35
-21.96
-17.38
-12.19
-7.04
-2.45
1.29
4.14
6.20
7.63
8.59
9.23
9.69
10.15
10.79
11.72
12.92
14.21
15.27
15.79
15.67
15.08
14.41
14.10
14.37
15.06
15.66
15.55
14.39
12.29
9.78
7.59
6.30
6.02
6.37
6.68
6.38
5.18
3.19
0.75
-1.76
-4.14
-6.42
-8.80
-11.52
-14.68
-18.10
-21.22
-23.33
-23.78
-22.23
-18.80
-14.09
-8.90
-3.97
0.23
3.61
6.26
8.39
10.05
11.24
11.97
12.26
12.33
12.41
12.66
13.13
13.64
14.00
14.08
13.90
13.69
13.73
14.19
15.12
16.35
17.52
18.14
17.76
16.23
13.81
11.06
8.65
7.07
6.33
6.04
5.53
4.27
2.08
-0.77
-3.72
-6.17
-7.78
-8.55
-8.88
-9.33
-10.43
-12.53
-15.59
-19.29
-22.95
-25.84
-27.42
-27.37
-25.71
-22.66
-18.55
-13.77
-8.69
-3.74
0.60
3.88
5.82
6.39
5.91
4.95
4.15
3.91
4.38
5.43
6.83
8.39
9.96
11.42
12.60
13.32
13.48
13.11
12.38
11.52
10.65
9.65
8.41
6.83
4.99
3.15
1.62
0.55
-0.03
-0.21
-0.25
-0.42
-1.00
-2.24
-4.21
-6.74
-9.54
-12.28
-14.81
-17.23
-19.68
-22.04
-23.85
-24.43
-23.21
-20.20
-16.01
-11.54
-7.61
-4.54
-2.16
-0.09
1.87
3.65
4.96
5.59
5.57
5.28
5.24
5.87
7.26
9.16
11.05
12.46
13.23
13.48
13.57
13.82
14.30
14.79
14.95
14.56
13.68
12.65
11.78
11.22
10.88
10.40
9.47
8.02
6.13
4.10
2.08
0.08
-1.99
-4.25
-6.65
-8.99
-11.05
-12.77
-14.47
-16.62
-19.65
-23.53
-27.66
-31.00
-32.45
-31.36
-27.80
-22.46
-16.35
-10.42
-5.29
-1.21
1.87
4.18
5.94
7.33
8.48
9.45
10.33
11.18
11.99
12.78
13.49
13.97
14.12
13.87
13.22
12.39
11.70
11.48
12.00
13.24
14.92
16.53
17.46
17.33
16.06
14.02
11.74
9.77
8.35
7.34
6.37
5.06
3.26
1.05
-1.33
-3.64
-5.73
-7.43
-8.63
-9.19
-9.11
-8.59
-8.05
-8.11
-9.31
-11.95
-15.93
-20.69
-25.34
-28.92
-30.63
-30.02
-27.18
-22.60
-17.03
-11.16
-5.50
-0.33
4.12
7.73
10.39
12.09
13.00
13.38
13.46
13.38
13.21
12.97
12.76
12.71
12.91
13.33
13.86
14.44
15.15
16.06
17.14
18.09
18.38
17.54
15.49
12.71
9.90
7.82
6.79
6.66
6.96
7.18
7.03
6.51
5.77
4.94
4.05
2.93
1.42
-0.57
-2.91
-5.23
-7.12
-8.18
-8.37
-8.10
-8.09
-9.13
-11.73
-15.74
-20.45
-24.82
-27.84
-28.96
-28.13
-25.79
-22.52
-18.82
-15.07
-11.41
-7.87
-4.39
-0.93
2.45
5.48
7.75
8.87
8.68
7.44
5.79
4.60
4.51
5.73
7.92
10.30
12.10
12.81
12.39
11.17
9.68
8.40
7.61
7.35
7.51
7.87
8.25
8.46
8.40
8.06
7.48
6.68
5.78
4.78
3.70
2.50
1.13
-0.39
-2.08
-3.96
-5.94
-8.00
-10.05
-12.01
-13.94
-15.97
-18.30
-21.06
-24.13
-27.06
-29.15
-29.73
-28.36
-24.99
-20.01
-14.12
-8.10
-2.61
1.99
5.56
8.16
9.85
10.64
10.57
9.80
8.62
7.47
6.69
6.44
6.66
7.17
7.80
8.52
9.37
10.37
11.34
11.98
12.00
11.35
10.29
9.16
8.17
7.26
6.18
4.62
2.49
-0.09
-2.88
-5.59
-8.07
-10.29
-12.32
-14.31
-16.42
-18.86
-21.90
-25.79
-30.74
-36.65
-43.25
-50.15
-57.07
-63.88
-70.74
-78.01
-86.15
-95.62
-106.59
-118.90
-131.92
-144.86
-157.03
-168.18
-178.56
-188.86
-199.86
-212.06
-225.63
-240.45
-256.45
-273.59
-291.73
-310.15
-327.30
-341.03
-349.11
-350.13
-343.96
-331.62
-314.67
-294.45
-271.79
-247.32
-221.90
-196.94
-174.07
-154.35
-137.71
-122.82
-107.86
-91.48
-73.61
-55.40
-38.65
-24.85
-14.54
-7.28
-2.10
1.92
5.26
8.07
10.31
12.11
13.81
15.86
18.66
22.33
26.70
31.36
35.86
39.84
43.13
45.79
47.99
49.95
51.80
53.63
55.40
57.02
58.41
59.54
60.47
61.45
62.78
64.75
67.58
71.24
75.53
80.13
84.75
89.28
93.89
98.96
104.90
112.03
120.36
129.62
139.37
149.27
159.16
169.22
179.82
191.38
204.22
218.65
234.94
253.25
273.32
294.10
313.74
329.83
340.16
343.32
339.09
328.31
312.41
293.08
271.89
250.28
229.45
210.07
192.04
174.26
155.00
132.39
105.33
74.00
40.09
6.53
-23.11
-45.27
-57.32
-58.38
-49.82
-35.16
-19.14
-6.24
0.83
1.95
-0.75
-4.12
-5.62
-4.33
-0.99
2.85
6.06
8.79
12.30
18.25
27.56
39.91
53.87
67.71
80.22
91.03
100.35
108.30
114.38
117.48
116.41
110.72
101.16
89.59
78.27
68.88
61.87
56.36
50.75
43.68
34.78
25.07
16.42
10.71
8.84
10.30
13.42
16.10
16.43
13.05
5.01
-8.13
-25.84
-46.03
-64.80
-77.23
-79.07
-68.63
-47.77
-21.27
5.16
27.17
43.17
54.10
62.02
68.49
73.70
76.73
76.52
72.82
66.51
59.14
52.09
45.94
40.27
34.21
27.16
19.40
11.97
6.09
2.40
0.54
-0.60
-2.20
-4.84
-8.31
-11.97
-15.40
-18.82
-23.07
-29.08
-37.17
-46.79
-56.72
-65.77
-73.35
-79.81
-85.94
-92.40
-99.06
-104.96
-108.69
-109.14
-106.04
-100.15
-92.96
-86.09
-80.87
-78.23
-78.89
-83.47
-92.15
-104.13
-117.01
-126.92
-129.35
-120.63
-99.18
-66.35
-25.90
17.10
57.82
92.83
120.56
141.07
155.35
164.62
169.91
171.87
171.01
167.82
163.02
157.41
151.75
146.55
141.97
137.92
134.25
131.02
128.48
126.90
126.30
126.35
126.32
125.28
122.29
116.63
107.95
96.42
82.76
68.09
53.62
40.40
29.04
19.67
12.12
6.01
0.99
-3.19
-6.67
-9.49
-11.59
-12.88
-13.35
-13.23
-13.13
-14.00
-17.03
-23.31
-33.51
-47.57
-64.42
-81.93
-97.12
-106.85
-108.59
-101.32
-85.91
-64.87
-41.50
-18.87
1.08
17.74
31.56
43.30
53.42
61.72
67.56
70.21
69.47
65.80
60.36
54.49
49.31
45.35
42.49
40.27
38.28
36.46
34.95
34.03
33.73
33.74
33.46
32.27
29.69
25.53
19.91
13.14
5.58
-2.47
-10.85
-19.55
-28.63
-37.97
-47.18
-55.50
-62.22
-67.10
-70.74
-74.48
-79.76
-87.26
-96.36
-105.39
-112.48
-116.70
-118.72
-120.59
-124.78
-133.04
-145.55
-160.85
-176.26
-188.68
-195.25
-194.09
-184.71
-168.26
-147.32
-125.17
-104.65
-87.26
-72.73
-59.48
-45.61
-29.93
-12.51
5.49
22.39
36.81
48.08
56.34
62.33
67.00
71.15
75.27
79.42
83.37
86.74
89.21
90.70
91.32
91.20
90.39
88.78
86.20
82.44
77.43
71.18
63.81
55.49
46.48
37.15
27.93
19.27
11.53
4.84
-0.97
-6.30
-11.72
-17.78
-24.88
-33.16
-42.47
-52.40
-62.45
-72.19
-81.39
-90.15
-98.88
-108.29
-119.09
-131.54
-144.91
-157.18
-165.30
-166.10
-157.52
-139.47
-114.06
-84.79
-55.36
-28.56
-5.78
12.80
27.58
39.05
47.62
53.62
57.46
59.67
60.83
61.53
62.28
63.56
65.69
68.72
72.41
76.32
79.94
82.91
85.12
86.64
87.58
88.05
88.12
87.85
87.27
86.24
84.43
81.31
76.35
69.22
60.01
49.29
37.95
27.00
17.14
8.58
0.88
-6.83
-15.48
-25.53
-36.51
-47.11
-55.58
-60.56
-61.80
-60.55
-59.13
-60.13
-65.34
-75.09
-88.12
-102.01
-113.91
-121.13
-121.67
-114.34
-99.12
-77.30
-51.49
-25.19
-2.05
15.28
25.67
29.58
28.31
23.25
15.33
5.24
-6.13
-17.23
-26.10
-31.04
-31.46
-28.16
-22.90
-17.41
-12.69
-8.61
-4.33
1.04
7.91
15.98
24.54
32.74
40.05
46.39
52.17
57.95
64.10
70.49
76.46
81.10
83.74
84.38
83.65
82.43
81.31
80.28
78.92
76.92
74.58
72.88
73.08
76.03
81.69
89.11
96.78
103.28
107.61
109.40
108.77
106.07
101.75
96.29
90.18
83.94
78.11
73.16
69.50
67.25
66.19
65.67
64.83
62.81
59.10
53.78
47.40
40.82
34.70
29.31
24.43
19.64
14.59
9.21
3.72
-1.57
-6.37
-10.57
-14.22
-17.42
-20.28
-22.89
-25.27
-27.46
-29.44
-31.15
-32.43
-33.15
-33.26
-32.78
-31.77
-30.30
-28.45
-26.38
-24.45
-23.08
-22.70
-23.49
-25.31
-27.74
-30.32
-32.78
-35.07
-37.39
-39.93
-42.74
-45.65
-48.47
-51.01
-53.24
-55.21
-56.98
-58.47
-59.56
-60.04
-59.84
-58.98
-57.70
-56.33
-55.13
-54.26
-53.59
-52.94
-52.08
-50.92
-49.55
-48.16
-46.94
-45.91
-44.97
-43.93
-42.62
-41.04
-39.26
-37.39
-35.53
-33.71
-31.97
-30.42
-29.23
-28.59
-28.57
-29.04
-29.74
-30.29
-30.42
-29.98
-29.11
-28.02
-26.99
-26.20
-25.68
-25.30
-24.94
-24.57
-24.30
-24.29
-24.75
-25.71
-27.07
-28.59
-30.01
-31.18
-32.01
-32.48
-32.57
-32.18
-31.17
-29.54
-27.41
-25.05
-22.79
-20.86
-19.32
-18.03
-16.83
-15.58
-14.26
-13.03
-12.03
-11.32
-10.87
-10.53
-10.24
-10.02
-10.03
-10.38
-11.04
-11.78
-12.23
-12.13
-11.40
-10.27
-9.07
-8.17
-7.66
-7.46
-7.35
-7.18
-6.92
-6.69
-6.67
-6.91
-7.42
-8.17
-9.13
-10.29
-11.58
-12.82
-13.71
-14.07
-13.92
-13.53
-13.34
-13.72
-14.78
-16.37
-18.14
-19.78
-21.04
-21.78
-21.93
-21.41
-20.26
-18.56
-16.51
-14.40
-12.45
-10.81
-9.49
-8.45
-7.56
-6.66
-5.66
-4.60
-3.68
-3.20
-3.42
-4.29
-5.50
-6.61
-7.21
-7.18
-6.71
-6.12
-5.72
-5.68
-5.96
-6.44
-6.99
-7.54
-7.99
-8.28
-8.36
-8.22
-8.00
-7.91
-8.14
-8.78
-9.76
-10.84
-11.75
-12.26
-12.26
-11.88
-11.40
-11.24
-11.77
-13.16
-15.26
-17.65
-19.72
-20.93
-21.00
-19.88
-17.81
-15.12
-12.16
-9.20
-6.46
-4.07
-2.13
-0.68
0.28
0.77
0.87
0.62
0.06
-0.72
-1.56
-2.22
-2.51
-2.32
-1.74
-0.97
-0.30
0.01
-0.20
-0.87
-1.80
-2.70
-3.35
-3.57
-3.34
-2.81
-2.17
-1.70
-1.58
-1.93
-2.70
-3.76
-4.88
-5.87
-6.58
-6.98
-7.15
-7.25
-7.41
-7.72
-8.17
-8.68
-9.19
-9.76
-10.56
-11.80
-13.56
-15.67
-17.62
-18.72
-18.41
-16.55
-13.38
-9.53
-5.67
-2.19
0.76
3.22
5.21
6.64
7.37
7.39
6.88
6.19
5.64
5.34
5.13
4.81
4.24
3.50
2.83
2.48
2.53
2.90
3.42
3.88
4.22
4.43
4.57
4.68
4.78
4.82
4.75
4.51
4.04
3.37
2.51
1.55
0.63
-0.13
-0.63
-0.79
-0.74
-0.71
-1.02
-1.90
-3.35
-5.05
-6.55
-7.45
-7.63
-7.26
-6.75
-6.42
-6.49
-6.99
-7.95
-9.44
-11.56
-14.28
-17.28
-19.89
-21.29
-20.84
-18.34
-14.15
-9.09
-4.07
0.13
3.22
5.20
6.39
7.05
7.40
7.50
7.40
7.19
6.98
6.82
6.63
6.23
5.38
4.01
2.31
0.62
-0.60
-1.07
-0.74
0.14
1.28
2.41
3.36
4.06
4.41
4.32
3.70
2.66
1.44
0.40
-0.19
-0.29
-0.17
-0.26
-0.86
-2.01
-3.38
-4.60
-5.42
-5.92
-6.35
-6.91
-7.67
-8.48
-9.23
-9.97
-10.94
-12.34
-14.06
-15.50
-15.75
-14.06
-10.21
-4.79
1.02
5.97
9.22
10.70
10.99
10.95
11.24
12.02
12.88
13.18
12.54
10.99
9.02
7.28
6.18
5.67
5.35
4.74
3.68
2.43
1.53
1.43
2.09
3.00
3.53
3.25
2.28
1.16
0.49
0.63
1.38
2.20
2.51
2.00
0.78
-0.74
-2.13
-3.22
-4.12
-5.09
-6.31
-7.74
-9.11
-10.06
-10.33
-9.93
-9.17
-8.50
-8.41
-9.18
-10.84
-13.16
-15.76
-18.11
-19.69
-20.05
-18.90
-16.25
-12.43
-7.94
-3.35
0.88
4.43
7.21
9.20
10.48
11.18
11.52
11.72
11.96
12.30
12.61
12.71
12.49
12.04
11.59
11.37
11.34
11.25
10.78
9.83
8.59
7.52
7.02
7.15
7.62
7.91
7.66
6.79
5.58
4.46
3.78
3.60
3.77
3.98
3.94
3.51
2.69
1.63
0.57
-0.33
-1.02
-1.58
-2.12
-2.75
-3.46
-4.19
-4.88
-5.50
-6.05
-6.43
-6.57
-6.45
-6.21
-6.18
-6.70
-7.98
-10.00
-12.59
-15.52
-18.55
-21.43
-23.76
-25.04
-24.76
-22.67
-18.86
-13.83
-8.29
-2.97
1.50
4.74
6.62
7.23
6.94
6.17
5.37
4.83
4.59
4.59
4.72
4.89
5.13
5.44
5.76
5.96
6.05
6.13
6.46
7.26
8.54
10.03
11.29
11.90
11.74
11.01
10.17
9.69
9.87
10.74
12.10
13.66
15.01
15.84
15.92
15.15
13.72
12.00
10.40
9.30
8.70
8.39
8.01
7.27
6.10
4.62
2.94
1.19
-0.59
-2.27
-3.74
-4.88
-5.71
-6.50
-7.72
-9.79
-12.80
-16.43
-19.98
-22.55
-23.43
-22.22
-18.89
-13.84
-7.76
-1.53
3.97
8.07
10.54
11.60
11.78
11.67
11.58
11.49
11.14
10.34
9.14
7.85
6.85
6.33
6.24
6.39
6.61
6.85
7.18
7.65
8.14
8.42
8.28
7.67
6.75
5.78
5.13
4.98
5.35
5.99
6.56
6.72
6.42
5.75
5.03
4.52
4.35
4.35
4.25
3.71
2.62
1.12
-0.43
-1.65
-2.31
-2.42
-2.23
-2.07
-2.19
-2.63
-3.30
-3.97
-4.47
-4.84
-5.31
-6.04
-7.10
-8.30
-9.35
-10.07
-10.50
-11.05
-12.18
-14.18
-16.88
-19.63
-21.57
-21.86
-20.16
-16.67
-12.08
-7.23
-2.84
0.66
3.21
4.93
6.01
6.61
6.85
6.84
6.66
6.33
5.83
5.06
4.14
3.30
2.81
2.88
3.39
4.03
4.46
4.54
4.45
4.54
5.07
6.09
7.36
8.54
9.31
9.52
9.17
8.27
6.83
4.95
2.78
0.67
-0.95
-1.73
-1.64
-0.96
-0.28
-0.20
-1.02
-2.66
-4.62
-6.39
-7.63
-8.43
-9.21
-10.39
-12.21
-14.45
-16.62
-18.18
-18.77
-18.21
-16.52
-13.75
-10.06
-5.72
-1.14
3.11
6.55
8.90
10.14
10.50
10.34
10.01
9.77
9.84
10.25
10.94
11.67
12.13
11.98
11.15
9.86
8.58
7.79
7.71
8.15
8.67
8.79
8.34
7.51
6.77
6.48
6.66
6.92
6.78
5.91
4.39
2.68
1.27
0.41
-0.05
-0.51
-1.33
-2.59
-4.00
-5.07
-5.45
-5.18
-4.63
-4.30
-4.51
-5.29
-6.44
-7.71
-9.02
-10.45
-12.13
-14.12
-16.25
-18.19
-19.52
-19.85
-18.97
-16.85
-13.74
-10.05
-6.24
-2.65
0.57
3.44
6.00
8.15
9.56
9.96
9.28
7.85
6.36
5.55
5.76
6.81
8.10
8.94
8.96
8.28
7.35
6.75
6.86
7.75
9.10
10.40
11.21
11.21
10.39
8.91
7.06
5.13
3.42
2.17
1.49
1.37
1.61
1.93
2.10
2.04
1.79
1.45
1.00
0.32
-0.66
-1.87
-3.00
-3.70
-3.78
-3.46
-3.23
-3.59
-4.75
-6.55
-8.63
-10.63
-12.46
-14.10
-15.39
-15.94
-15.18
-12.77
-8.91
-4.36
-0.15
2.91
4.61
5.41
6.05
7.08
8.51
9.84
10.38
9.82
8.43
6.99
6.32
6.69
7.72
8.63
8.71
7.78
6.22
4.61
3.38
2.50
1.65
0.57
-0.68
-1.76
-2.25
-2.02
-1.32
-0.67
-0.57
-1.18
-2.35
-3.67
-4.78
-5.51
-5.97
-6.41
-7.08
-8.10
-9.39
-10.78
-12.00
-12.83
-13.10
-12.81
-12.13
-11.44
-11.23
-11.92
-13.70
-16.35
-19.25
-21.54
-22.38
-21.24
-18.10
-13.33
-7.60
-1.70
3.75
8.23
11.45
13.38
14.15
14.05
13.43
12.59
11.76
10.98
10.14
9.12
7.86
6.47
5.21
4.51
4.69
5.95
8.18
11.08
14.15
16.86
18.80
19.71
19.55
18.46
16.72
14.67
12.59
10.72
9.23
8.14
7.40
6.88
6.45
5.96
5.36
4.62
3.80
2.97
2.22
1.64
1.27
1.12
1.06
0.90
0.39
-0.64
-2.14
-3.84
-5.26
-6.03
-6.04
-5.59
-5.24
-5.66
-7.27
-10.10
-13.77
-17.62
-20.86
-22.81
-22.98
-21.18
-17.65
-12.90
-7.67
-2.68
1.55
4.73
6.85
8.05
8.57
8.73
8.85
9.14
9.57
9.89
9.79
9.16
8.24
7.55
7.58
8.48
9.94
11.39
12.31
12.54
12.26
11.89
11.69
11.62
11.45
10.80
9.48
7.57
5.42
3.54
2.35
1.97
2.23
2.63
2.76
2.47
1.98
1.70
1.91
2.55
3.14
3.06
1.87
-0.44
-3.36
-6.17
-8.22
-9.22
-9.38
-9.17
-9.05
-9.23
-9.75
-10.50
-11.59
-13.29
-15.94
-19.61
-23.76
-27.29
-28.89
-27.68
-23.57
-17.43
-10.65
-4.62
-0.19
2.47
3.84
4.65
5.50
6.67
7.95
8.95
9.32
9.06
8.51
8.25
8.68
9.87
11.45
12.79
13.45
13.36
12.86
12.41
12.29
12.41
12.39
11.82
10.59
8.93
7.37
6.37
6.16
6.55
7.03
6.99
6.09
4.37
2.27
0.37
-0.95
-1.67
-2.15
-2.93
-4.31
-6.23
-8.24
-9.81
-10.58
-10.65
-10.45
-10.50
-11.13
-12.40
-14.18
-16.24
-18.36
-20.20
-21.31
-21.11
-19.18
-15.45
-10.35
-4.70
0.64
5.05
8.38
10.76
12.46
13.56
13.95
13.46
12.06
10.04
7.94
6.33
5.59
5.70
6.35
7.06
7.43
7.31
6.76
6.04
5.48
5.40
6.01
7.37
9.28
11.24
12.66
13.06
12.33
10.82
9.16
7.90
7.18
6.70
5.90
4.48
2.58
0.75
-0.42
-0.71
-0.42
-0.28
-0.99
-2.78
-5.26
-7.64
-9.16
-9.52
-9.03
-8.39
-8.28
-9.02
-10.50
-12.39
-14.49
-16.91
-19.83
-23.21
-26.43
-28.40
-27.99
-24.72
-19.03
-12.13
-5.54
-0.34
3.07
5.08
6.35
7.50
8.74
9.90
10.71
10.95
10.65
10.07
9.55
9.36
9.61
10.19
10.86
11.43
11.85
12.21
12.62
13.11
13.52
13.63
13.34
12.71
12.01
11.47
11.22
11.17
11.18
11.15
11.09
11.15
11.30
11.41
11.11
10.13
8.42
6.30
4.27
2.78
1.92
1.44
0.92
0.02
-1.27
-2.71
-3.97
-4.77
-5.08
-5.18
-5.42
-6.16
-7.57
-9.64
-12.32
-15.50
-19.03
-22.64
-25.81
-27.89
-28.21
-26.47
-22.84
-17.95
-12.67
-7.74
-3.56
-0.15
2.70
5.19
7.40
9.22
10.50
11.08
10.96
10.23
9.17
8.10
7.35
7.12
7.39
7.97
8.62
9.19
9.73
10.33
11.12
12.02
12.86
13.41
13.51
13.14
12.38
11.34
10.11
8.76
7.34
5.97
4.79
3.90
3.28
2.80
2.32
1.77
1.21
0.72
0.27
-0.33
-1.40
-3.21
-5.68
-8.40
-10.75
-12.12
-12.27
-11.34
-9.93
-8.80
-8.68
-10.02
-12.83
-16.65
-20.61
-23.75
-25.26
-24.77
-22.37
