1529339403.00
64.000000
-0.00
-0.00
-0.00
-0.00
-0.00
-0.00
-0.00
-0.00
-0.00
-0.00
0.00
0.01
0.01
-0.00
-0.03
-0.05
-0.05
0.00
0.13
0.36
0.66
1.01
1.37
1.72
2.06
2.40
2.79
3.24
3.80
4.42
5.06
5.66
6.20
6.68
7.15
7.68
8.31
9.14
10.09
11.04
11.88
12.56
13.14
13.76
14.65
15.96
17.91
20.32
22.90
25.38
27.58
29.57
31.68
34.32
37.81
42.54
48.15
54.10
59.83
64.97
69.58
74.14
79.34
85.71
93.76
103.00
112.62
121.73
129.77
136.75
143.30
150.75
157.77
166.64
177.95
191.79
206.97
220.57
228.25
225.36
208.53
176.87
132.76
80.05
23.07
-34.94
-92.44
-149.16
-205.23
-260.37
-313.74
-363.87
-409.83
-450.91
-486.50
-515.74
-537.23
-549.22
-549.96
-538.37
-514.21
-478.67
-433.88
-382.45
-327.02
-269.84
-212.63
-156.66
-102.95
-52.37
-5.90
35.58
71.43
101.35
125.50
144.38
158.69
169.15
176.37
180.75
182.57
182.07
179.51
175.23
169.65
163.18
156.15
148.81
141.30
133.69
126.02
118.33
110.69
103.16
95.80
88.68
81.83
75.25
68.95
62.95
57.25
51.86
46.78
42.03
37.59
33.45
29.61
26.07
22.81
19.83
17.11
14.67
12.48
10.54
8.83
7.35
6.07
4.97
4.05
3.27
2.62
2.09
1.65
1.30
1.01
0.79
0.61
0.47
0.37
0.29
0.23
0.19
0.16
0.15
0.15
0.15
0.17
0.19
0.22
0.25
0.29
0.33
0.38
0.42
0.47
0.51
0.56
0.61
0.67
0.72
0.78
0.85
0.92
1.00
1.09
1.19
1.30
1.42
1.56
1.72
1.89
2.08
2.30
2.53
2.80
3.08
3.41
3.76
4.14
4.56
5.01
5.50
6.03
6.59
7.20
7.85
8.55
9.29
10.07
10.90
11.78
12.69
13.66
14.69
15.78
16.93
18.15
19.41
20.70
21.95
23.11
24.08
24.74
24.97
24.64
23.67
21.98
19.56
16.45
12.70
8.50
4.02
-0.53
-4.93
-8.97
-12.46
-15.30
-17.39
-18.72
-19.30
-19.22
-18.58
-17.51
-16.14
-14.59
-12.97
-11.33
-9.68
-8.00
-6.27
-4.51
-2.70
-0.87
0.95
2.75
4.50
6.28
8.18
10.17
12.26
14.45
16.70
18.97
21.20
23.44
25.80
28.50
31.50
34.77
38.28
41.89
45.40
48.66
51.62
54.50
57.70
61.23
65.14
69.36
73.58
77.37
80.32
82.31
83.59
84.79
86.03
87.39
88.65
89.08
87.55
82.75
73.36
57.98
40.02
20.99
1.88
-16.92
-35.57
-54.70
-75.12
-97.66
-122.93
-150.80
-180.67
-210.30
-236.11
-254.17
-261.55
-257.50
-243.77
-223.87
-201.64
-180.37
-161.36
-144.19
-127.70
-110.87
-93.41
-75.67
-58.22
-41.40
-25.65
-11.16
1.86
13.02
21.84
27.93
31.31
32.45
32.27
31.68
31.45
32.00
33.30
34.99
36.63
37.88
38.56
38.75
38.49
37.89
36.99
35.73
34.02
31.77
28.99
25.82
22.45
19.13
15.98
12.93
9.77
6.17
1.94
-2.78
-7.45
-11.17
-12.98
-12.16
-8.49
-2.38
5.19
13.08
20.22
25.91
29.92
32.33
33.43
33.45
32.60
30.98
28.78
26.27
23.86
21.87
20.55
19.83
19.46
19.15
18.62
17.85
16.96
16.17
15.56
14.99
14.12
12.63
10.32
7.29
3.86
0.47
-2.60
-5.32
-7.90
-10.66
-13.90
-17.78
-22.24
-26.96
-31.42
-34.84
-36.37
-35.28
-31.23
-24.46
-15.78
-6.40
2.49
10.03
15.83
19.92
22.55
24.03
24.54
24.24
23.27
21.85
20.21
18.67
17.43
16.55
15.95
15.42
14.77
13.90
12.84
11.73
10.64
9.51
8.12
6.18
3.54
0.25
-3.33
-6.73
-9.56
-11.71
-13.39
-15.08
-17.25
-20.19
-23.77
-27.45
-30.36
-31.56
-30.32
-26.34
-19.89
-11.78
-3.11
5.02
11.77
16.69
19.73
21.16
21.32
20.57
19.20
17.40
15.34
13.18
11.08
9.21
7.72
6.69
6.11
5.88
5.78
5.58
5.09
4.19
2.90
1.35
-0.31
-2.00
-3.72
-5.54
-7.60
-9.96
-12.64
-15.65
-18.91
-22.28
-25.41
-27.75
-28.60
-27.31
-23.59
-17.61
-10.09
-2.04
5.53
11.86
16.59
19.70
21.36
21.78
21.17
19.75
17.82
15.74
13.84
12.35
11.35
10.78
10.47
10.26
10.01
9.61
8.99
8.11
6.90
5.32
3.33
0.95
-1.74
-4.53
-7.21
-9.64
-11.91
-14.37
-17.44
-21.35
-25.86
-30.17
-33.14
-33.69
-31.17
-25.67
-17.97
-9.25
-0.75
6.57
12.19
16.04
18.31
19.33
19.40
18.76
17.63
16.17
14.59
13.03
11.59
10.29
9.17
8.29
7.78
7.71
8.06
8.59
8.95
8.77
7.84
6.16
3.96
1.50
-1.00
-3.51
-6.15
-9.12
-12.61
-16.69
-21.27
-25.95
-30.09
-32.80
-33.28
-30.95
-25.79
-18.36
-9.66
-0.92
6.87
13.02
17.31
19.86
20.94
20.87
19.93
18.43
16.63
14.85
13.29
12.11
11.34
10.92
10.76
10.75
10.77
10.66
10.27
9.44
8.14
6.41
4.37
2.18
-0.09
-2.42
-4.81
-7.28
-9.87
-12.71
-15.96
-19.75
-23.91
-27.83
-30.49
-30.78
-28.01
-22.20
-14.24
-5.46
2.78
9.59
14.65
18.07
20.11
20.92
20.58
19.16
16.94
14.36
11.93
10.03
8.84
8.29
8.15
8.19
8.17
7.96
7.48
6.69
5.56
4.12
2.37
0.34
-1.94
-4.47
-7.23
-10.20
-13.38
-16.79
-20.43
-24.24
-27.93
-30.95
-32.54
-31.94
-28.70
-22.93
-15.29
-6.84
1.32
8.37
13.94
18.01
20.70
22.14
22.38
21.53
19.86
17.75
15.69
14.04
12.95
12.36
12.12
12.02
11.97
11.88
11.68
11.27
10.51
9.31
7.63
5.55
3.22
0.83
-1.50
-3.70
-5.83
-8.02
-10.46
-13.38
-16.93
-21.09
-25.55
-29.66
-32.50
-33.15
-31.01
-26.03
-18.82
-10.45
-2.07
5.38
11.41
15.91
18.99
20.78
21.38
20.87
19.43
17.39
15.20
13.29
11.96
11.29
11.11
11.15
11.13
10.91
10.52
10.03
9.47
8.76
7.73
6.21
4.13
1.59
-1.18
-3.93
-6.50
-8.87
-11.16
-13.59
-16.43
-19.85
-23.81
-27.90
-31.38
-33.34
-32.98
-29.92
-24.35
-16.97
-8.76
-0.74
6.31
11.89
15.81
18.15
19.13
19.09
18.37
17.26
15.98
14.69
13.48
12.50
11.83
11.57
11.72
12.15
12.64
12.92
12.77
12.07
10.82
9.16
7.21
5.07
2.74
0.18
-2.60
-5.53
-8.51
-11.47
-14.48
-17.77
-21.52
-25.74
-30.00
-33.43
-35.02
-33.93
-29.85
-23.18
-14.89
-6.11
2.14
9.30
15.17
19.73
22.99
24.87
25.28
24.28
22.23
19.76
17.55
16.10
15.53
15.58
15.78
15.68
15.08
14.07
12.88
11.73
10.63
9.42
7.81
5.62
2.86
-0.19
-3.19
-5.84
-8.04
-9.87
-11.58
-13.44
-15.70
-18.55
-22.07
-26.12
-30.24
-33.63
-35.35
-34.56
-30.88
-24.59
-16.60
-8.09
-0.21
6.33
11.29
14.78
17.06
18.30
18.60
18.02
16.71
14.97
13.20
11.78
10.91
10.59
10.63
10.80
10.90
10.84
10.59
10.19
9.61
8.76
7.51
5.77
3.55
1.01
-1.65
-4.27
-6.85
-9.54
-12.60
-16.17
-20.11
-23.88
-26.69
-27.75
-26.49
-22.83
-17.18
-10.29
-3.05
3.72
9.39
13.63
16.32
17.58
17.63
16.81
15.45
13.81
12.09
10.42
8.88
7.53
6.52
5.93
5.83
6.11
6.50
6.65
6.26
5.18
3.53
1.57
-0.43
-2.38
-4.31
-6.39
-8.69
-11.22
-13.91
-16.77
-19.92
-23.39
-27.05
-30.29
-32.21
-31.86
-28.65
-22.73
-14.92
-6.47
1.41
7.92
12.77
16.10
18.17
19.23
19.36
18.60
17.01
14.82
12.36
10.09
8.37
7.40
7.10
7.19
7.25
6.96
6.14
4.86
3.31
1.73
0.22
-1.27
-2.86
-4.69
-6.89
-9.53
-12.71
-16.46
-20.72
-25.10
-28.91
-31.23
-31.22
-28.39
-22.89
-15.44
-7.10
1.05
8.23
14.03
18.34
21.20
22.67
22.83
21.85
20.05
17.89
15.81
14.15
13.00
12.24
11.66
11.10
10.49
9.89
9.31
8.70
7.86
6.57
4.70
2.27
-0.53
-3.42
-6.18
-8.73
-11.09
-13.44
-16.00
-18.97
-22.47
-26.45
-30.61
-34.34
-36.83
-37.24
-34.99
-29.97
-22.66
-13.99
-5.09
3.06
9.80
14.87
18.31
20.29
21.00
20.64
19.39
17.50
15.29
13.13
11.34
10.10
9.44
9.18
9.10
8.92
8.56
8.01
7.33
6.57
5.68
4.54
3.03
1.08
-1.28
-3.95
-6.86
-9.97
-13.29
-16.87
-20.58
-24.12
-26.98
-28.51
-28.14
-25.50
-20.65
-14.07
-6.56
0.99
7.83
13.49
17.80
20.70
22.24
22.44
21.39
19.33
16.64
13.76
11.11
8.93
7.33
6.28
5.70
5.47
5.43
5.30
4.77
3.55
1.56
-1.06
-4.02
-7.00
-9.82
-12.49
-15.18
-18.07
-21.40
-25.34
-30.06
-35.61
-41.80
-48.00
-53.28
-56.56
-57.02
-54.43
-49.31
-42.62
-35.46
-28.66
-22.52
-17.03
-12.01
-7.37
-3.12
0.62
3.83
6.55
8.99
11.36
13.86
16.65
19.74
23.05
26.26
28.95
30.62
30.90
29.75
27.45
24.57
21.63
18.95
16.57
14.26
11.77
8.93
5.79
2.44
-0.98
-4.31
-7.29
-9.50
-10.44
-9.67
-7.23
-3.69
-0.01
2.92
4.78
5.98
7.26
9.15
11.45
13.27
13.56
11.86
8.61
4.87
1.66
-0.75
-3.00
-6.14
-10.81
-16.78
-22.98
-28.18
-31.77
-34.14
-36.42
-39.78
-44.69
-50.56
-55.94
-58.98
-58.18
-52.94
-43.75
-31.97
-19.26
-6.91
4.69
16.06
28.21
41.88
56.95
72.30
86.24
97.20
104.36
107.82
108.28
106.57
103.21
98.34
92.03
84.54
76.41
68.37
61.04
54.72
49.44
44.97
41.13
37.79
34.82
31.95
28.77
24.86
20.06
14.60
9.06
4.03
-0.17
-3.74
-7.25
-11.30
-16.06
-21.10
-25.56
-28.47
-29.28
-27.98
-25.08
-21.27
-17.03
-12.59
-7.96
-3.14
1.62
5.81
8.83
10.24
9.90
8.14
5.54
2.88
0.89
0.10
0.77
2.77
5.61
8.43
10.29
10.43
8.50
4.69
-0.40
-5.98
-11.39
-16.30
-20.67
-24.69
-28.55
-32.35
-36.07
-39.60
-42.80
-45.46
-47.32
-48.02
-47.11
-44.24
-39.38
-32.88
-25.49
-18.12
-11.59
-6.47
-2.95
-1.00
-0.47
-1.09
-2.49
-4.22
-5.74
-6.62
-6.72
-6.24
-5.65
-5.44
-5.94
-7.13
-8.77
-10.53
-12.14
-13.54
-14.91
-16.58
-18.92
-22.20
-26.45
-31.41
-36.42
-40.61
-43.04
-42.96
-39.98
-34.21
-26.17
-16.67
-6.68
2.98
11.61
18.79
24.30
28.13
30.40
31.35
31.30
30.56
29.45
28.17
26.84
25.47
24.08
22.69
21.39
20.27
19.44
18.89
18.54
18.18
17.59
16.43
14.41
11.24
6.76
1.07
-5.39
-11.82
-17.14
-20.31
-20.65
-18.09
-13.18
-6.99
-0.71
4.68
8.56
10.69
11.09
9.84
7.10
3.11
-1.66
-6.55
-10.82
-13.89
-15.54
-15.94
-15.60
-15.06
-14.72
-14.66
-14.75
-14.74
-14.49
-13.99
-13.38
-12.85
-12.59
-12.80
-13.68
-15.42
-18.02
-21.15
-24.06
-25.68
-25.05
-21.57
-15.36
-7.18
1.83
10.58
18.20
24.27
28.62
31.21
32.08
31.31
29.14
25.99
22.48
19.27
16.86
15.47
14.94
14.86
14.79
14.37
13.57
12.51
11.36
10.16
8.73
6.75
3.96
0.25
-4.29
-9.37
-14.67
-19.77
-24.14
-27.15
-28.10
-26.44
-22.05
-15.41
-7.47
0.59
7.72
13.26
17.00
19.02
19.51
18.60
16.37
12.97
8.75
4.23
0.06
-3.25
-5.42
-6.54
-6.95
-7.11
-7.34
-7.79
-8.40
-9.00
-9.54
-10.09
-10.96
-12.51
-15.04
-18.60
-22.93
-27.40
-31.08
-33.02
-32.43
-28.95
-22.78
-14.67
-5.68
3.12
10.88
17.14
21.81
24.97
26.71
27.08
26.13
23.98
21.01
17.76
14.86
12.79
11.81
11.81
12.40
13.10
13.45
13.19
12.32
11.02
9.54
8.05
6.50
4.67
2.28
-0.88
-4.78
-9.25
-13.90
-18.31
-21.98
-24.31
-24.70
-22.62
-17.92
-10.89
-2.35
6.56
14.72
21.27
25.81
28.37
29.23
28.77
27.35
25.27
22.81
20.27
17.91
15.99
14.67
13.98
13.76
13.70
13.50
12.88
11.77
10.27
8.57
6.82
5.08
3.24
1.10
-1.50
-4.66
-8.37
-12.51
-16.91
-21.38
-25.57
-28.98
-30.94
-30.76
-27.98
-22.63
-15.32
-7.11
0.81
7.49
12.46
15.72
17.55
18.27
18.05
16.96
15.05
12.50
9.64
6.87
4.56
2.91
1.95
1.56
1.50
1.52
1.43
1.11
0.53
-0.25
-1.18
-2.25
-3.53
-5.06
-6.86
-8.89
-11.08
-13.44
-16.09
-19.10
-22.42
-25.63
-27.98
-28.58
-26.77
-22.36
-15.77
-7.90
0.23
7.70
13.89
18.49
21.41
22.70
22.51
21.14
18.95
16.35
13.75
11.47
9.78
8.83
8.65
9.13
9.95
10.72
11.08
10.86
10.08
8.96
7.70
6.37
4.87
2.99
0.49
-2.73
-6.65
-11.05
-15.53
-19.55
-22.48
-23.69
-22.74
-19.48
-14.18
-7.48
-0.28
6.47
11.98
15.82
17.90
18.44
17.78
16.24
14.05
11.39
8.45
5.56
3.11
1.49
0.87
1.11
1.77
2.31
2.23
1.33
-0.31
-2.38
-4.53
-6.53
-8.33
-10.03
-11.79
-13.74
-15.93
-18.40
-21.17
-24.27
-27.59
-30.78
-33.21
-34.07
-32.67
-28.66
-22.25
-14.18
-5.53
2.60
9.37
14.40
17.70
19.50
20.13
19.81
18.67
16.85
14.58
12.19
10.09
8.61
7.87
7.74
7.98
8.30
8.52
8.58
8.48
8.17
7.52
6.37
4.63
2.36
-0.28
-3.03
-5.71
-8.26
-10.74
-13.37
-16.38
-19.85
-23.57
-26.97
-29.21
-29.44
-27.11
-22.21
-15.30
-7.32
0.71
7.97
13.98
18.49
21.43
22.75
22.50
20.91
18.37
15.49
12.82
10.79
9.58
9.14
9.25
9.63
10.07
10.38
10.41
10.05
9.20
7.84
6.00
3.85
1.52
-0.78
-2.97
-5.03
-7.04
-9.09
-11.31
-13.82
-16.73
-20.11
-23.86
-27.62
-30.74
-32.35
-31.68
-28.37
-22.63
-15.27
-7.35
0.17
6.63
11.77
15.56
18.00
19.01
18.50
16.54
13.45
9.89
6.65
4.39
3.41
3.57
4.44
5.51
6.39
7.01
7.41
7.69
7.82
7.59
6.74
5.15
2.90
0.30
-2.25
-4.49
-6.33
-7.88
-9.38
-11.07
-13.15
-15.73
-18.88
-22.60
-26.74
-30.94
-34.57
-36.76
-36.59
-33.45
-27.27
-18.62
-8.65
1.32
10.08
16.87
21.40
23.74
24.18
23.08
20.88
18.09
15.28
13.01
11.57
11.03
11.15
11.58
12.03
12.38
12.61
12.75
12.72
12.37
11.45
9.88
7.74
5.29
2.86
0.67
-1.23
-3.00
-4.96
-7.40
-10.53
-14.35
-18.63
-22.88
-26.41
-28.38
-28.05
-24.95
-19.17
-11.37
-2.68
5.65
12.62
17.71
20.88
22.43
22.71
21.97
20.34
17.97
15.13
12.20
9.62
7.74
6.65
6.27
6.34
6.60
6.79
6.73
6.35
5.62
4.54
3.17
1.53
-0.37
-2.50
-4.84
-7.35
-10.07
-13.07
-16.42
-20.08
-23.78
-27.01
-29.07
-29.31
-27.34
-23.13
-17.10
-10.00
-2.64
4.20
9.94
14.21
16.87
17.95
17.63
16.19
14.06
11.67
9.44
7.66
6.44
5.72
5.33
5.16
5.11
5.16
5.24
5.18
4.76
3.78
2.20
0.11
-2.23
-4.59
-6.80
-8.83
-10.78
-12.79
-15.06
-17.80
-21.22
-25.38
-30.04
-34.52
-37.81
-38.80
-36.72
-31.41
-23.47
-14.02
-4.39
4.28
11.30
16.41
19.73
21.47
21.91
21.29
19.85
17.86
15.67
13.66
12.15
11.34
11.24
11.73
12.61
13.64
14.59
15.23
15.30
14.54
12.82
10.11
6.63
2.72
-1.24
-4.97
-8.34
-11.43
-14.45
-17.72
-21.52
-25.91
-30.60
-34.86
-37.66
-38.00
-35.26
-29.45
-21.22
-11.70
-2.07
6.70
13.98
19.42
22.91
24.48
24.32
22.77
20.36
17.66
15.13
13.04
11.44
10.32
9.61
9.35
9.58
10.29
11.30
12.29
12.86
12.68
11.57
9.59
6.98
4.03
1.02
-1.89
-4.69
-7.46
-10.43
-13.78
-17.59
-21.64
-25.42
-28.08
-28.71
-26.56
-21.43
-13.70
-4.33
5.45
14.46
21.85
27.19
30.45
31.76
31.36
29.48
26.41
22.55
18.44
14.70
11.84
10.18
9.69
10.06
10.83
11.51
11.78
11.47
10.59
9.19
7.36
5.17
2.68
-0.06
-3.03
-6.28
-9.90
-13.99
-18.59
-23.55
-28.37
-32.31
-34.48
-34.10
-30.79
-24.73
-16.63
-7.51
1.56
9.69
16.35
21.26
24.35
25.67
25.37
23.76
21.29
18.54
16.08
14.28
13.24
12.81
12.67
12.56
12.33
12.01
11.71
11.51
11.34
10.98
10.12
8.50
5.99
2.70
-1.07
-4.93
-8.54
-11.70
-14.46
-17.07
-19.86
-23.17
-27.09
-31.44
-35.68
-38.95
-40.31
-38.94
-34.49
-27.24
-18.02
-8.02
1.58
9.94
16.65
21.66
25.09
27.02
27.54
26.73
24.84
22.29
19.63
17.41
16.04
15.71
16.32
17.53
18.89
19.95
20.37
20.06
19.12
17.76
16.14
14.24
11.93
9.04
5.55
1.66
-2.24
-5.73
-8.57
-10.80
-12.70
-14.64
-16.97
-19.88
-23.44
-27.56
-32.04
-36.45
-40.12
-42.17
-41.71
-38.13
-31.41
-22.21
-11.69
-1.23
8.00
15.29
20.44
23.61
25.16
25.45
24.78
23.40
21.60
19.69
18.00
16.80
16.23
16.31
16.89
17.72
18.52
19.06
19.12
18.59
17.43
15.68
13.43
10.88
8.27
5.83
3.68
1.80
0.00
-1.96
-4.30
-7.05
-10.05
-13.00
-15.63
-17.79
-19.56
-21.22
-23.17
-25.74
-29.06
-32.89
-36.58
-39.17
-39.61
-37.11
-31.42
-22.99
-12.84
-2.20
7.72
16.04
22.30
26.37
28.37
28.56
27.32
25.12
22.48
19.92
17.86
16.55
16.07
16.26
16.85
17.51
17.92
17.93
17.53
16.85
16.03
15.16
14.13
12.69
10.58
7.68
4.07
0.08
-3.84
-7.32
-10.14
-12.35
-14.16
-15.93
-17.95
-20.42
-23.31
-26.36
-29.09
-30.83
-30.83
-28.46
-23.41
-15.84
-6.42
3.81
13.68
22.21
28.79
33.28
35.84
36.75
36.26
34.57
31.89
28.57
25.13
22.16
20.06
18.94
18.55
18.44
18.23
17.75
17.08
16.40
15.76
14.97
13.65
11.41
8.07
3.83
-0.79
-5.12
-8.63
-11.10
-12.75
-14.06
-15.65
-17.96
-21.11
-24.86
-28.66
-31.71
-33.19
-32.37
-28.92
-22.99
-15.27
-6.78
1.37
8.34
13.70
17.42
19.72
20.84
20.96
20.19
18.69
16.69
14.47
12.37
10.64
9.41
8.68
8.35
8.23
8.15
8.01
7.74
7.31
6.65
5.60
3.98
1.71
-1.14
-4.26
-7.29
-9.96
-12.30
-14.61
-17.36
-20.99
-25.66
-31.08
-36.56
-41.11
-43.72
-43.57
-40.30
-34.11
-25.70
-16.12
-6.49
2.20
9.27
14.47
17.83
19.63
20.17
19.79
18.72
17.18
15.35
13.41
11.42
9.32
6.93
4.03
0.49
-3.62
-7.96
-12.07
-15.48
-17.86
-19.10
-19.30
-18.63
-17.30
-15.45
-13.15
-10.53
-7.79
-5.28
-3.44
-2.77
-3.67
-6.29
-10.42
-15.46
-20.50
-24.45
-26.33
-25.54
-22.06
-16.43
-9.60
-2.64
3.58
8.55
12.13
14.39
15.47
15.45
14.42
12.56
10.18
7.68
5.47
3.80
2.69
1.91
1.08
-0.19
-2.23
-5.24
-9.24
-14.09
-19.52
-25.13
-30.39
-34.71
-37.51
-38.37
-37.16
-34.09
-29.66
-24.60
-19.61
-15.29
-11.94
-9.58
-7.94
-6.49
-4.60
-1.62
2.94
9.25
17.02
25.51
33.71
40.51
45.07
46.97
46.32
43.64
39.69
35.24
30.83
26.69
22.78
18.90
14.89
10.80
6.88
3.54
1.06
-0.52
-1.53
-2.52
-4.01
-6.31
-9.34
-12.68
-15.74
-17.83
-18.35
-16.81
-12.96
-6.81
1.25
10.47
19.84
28.41
35.51
41.05
45.53
49.81
54.76
60.87
68.07
75.75
83.07
89.28
93.98
97.18
99.04
99.72
99.17
97.26
93.86
89.10
83.28
76.80
69.96
62.86
55.43
47.63
39.58
31.60
24.15
17.61
12.17
7.80
4.35
1.65
-0.39
-1.77
-2.41
-2.25
-1.36
0.05
1.58
2.70
2.86
1.58
-1.39
-6.01
-11.83
-18.01
-23.53
-27.33
-28.80
-27.93
-25.44
-22.57
-20.65
-20.64
-22.90
-27.19
-32.89
-39.30
-45.84
-52.01
-57.39
-61.55
-64.09
-64.80
-63.72
-61.17
-57.60
-53.52
-49.32
-45.21
-41.29
-37.67
-34.45
-31.82
-29.97
-29.04
-29.01
-29.74
-30.99
-32.61
-34.53
-36.82
-39.57
-42.82
-46.41
-50.07
-53.32
-55.57
-56.16
-54.43
-49.92
-42.55
-32.74
-21.47
-10.03
0.25
8.40
13.91
16.83
17.53
16.54
14.40
11.53
8.31
5.14
2.43
0.59
-0.10
0.42
1.86
3.67
5.17
5.85
5.42
4.00
1.90
-0.48
-2.84
-5.00
-6.96
-8.81
-10.69
-12.78
-15.25
-18.24
-21.70
-25.38
-28.76
-31.13
-31.76
-30.15
-26.21
-20.36
-13.41
-6.34
-0.04
4.92
8.33
10.24
10.79
10.16
8.47
5.95
2.92
-0.19
-2.95
-5.00
-6.17
-6.46
-6.04
-5.23
-4.37
-3.75
-3.54
-3.79
-4.40
-5.23
-6.17
-7.16
-8.19
-9.38
-10.88
-12.90
-15.59
-18.88
-22.35
-25.23
-26.53
-25.40
-21.45
-14.90
-6.56
2.49
11.17
18.63
24.35
28.02
29.60
29.18
27.05
23.73
19.80
15.86
12.40
9.69
7.85
6.80
6.34
6.19
6.01
5.50
4.50
3.00
1.20
-0.69
-2.50
-4.25
-6.17
-8.63
-12.02
-16.52
-21.95
-27.75
-32.99
-36.63
-37.77
-36.01
-31.45
-24.74
-16.89
-8.97
-1.93
3.54
7.06
8.53
8.06
5.91
2.44
-1.96
-6.89
-11.99
-16.95
-21.50
-25.44
-28.63
-31.06
-32.83
-34.20
-35.54
-37.27
-39.74
-43.11
-47.26
-51.68
-55.60
-58.06
-58.15
-55.23
-49.15
-40.29
-29.45
-17.45
-4.72
9.06
24.90
44.09
67.57
95.26
125.84
156.98
185.89
210.00
227.48
237.43
239.79
235.18
224.61
209.31
190.58
169.64
147.56
125.20
103.16
81.85
61.54
42.34
24.28
7.34
-8.52
-23.24
-36.65
-48.57
-58.81
-67.31
-74.14
-79.49
-83.63
-86.85
-89.50
-91.89
-94.33
-96.96
-99.60
-101.77
-102.70
-101.54
-97.66
-90.86
-81.51
-70.50
-58.96
-48.06
-38.67
-31.29
-25.97
-22.48
-20.40
-19.32
-18.84
-18.62
-18.39
-17.95
-17.20
-16.09
-14.66
-12.88
-10.69
-7.98
-4.66
-0.87
3.07
6.64
9.35
10.83
11.01
10.03
8.11
5.41
1.97
-2.22
-7.22
-13.00
-19.48
-26.48
-33.65
-40.44
-46.00
-49.32
-49.46
-45.98
-39.11
-29.79
-19.40
-9.33
-0.58
6.37
11.53
15.09
17.26
18.20
18.04
17.04
15.64
14.33
13.54
13.41
13.81
14.38
14.76
14.76
14.43
14.00
13.69
13.57
13.46
13.00
11.74
9.41
6.00
1.83
-2.55
-6.56
-9.83
-12.33
-14.30
-16.10
-18.10
-20.49
-23.36
-26.65
-30.16
-33.41
-35.65
-35.95
-33.47
-27.87
-19.47
-9.31
1.21
10.77
18.45
23.89
27.18
28.57
28.41
27.00
24.69
21.92
19.20
17.02
15.69
15.24
15.43
15.91
16.35
16.55
16.51
16.27
15.85
15.14
13.97
12.17
9.71
6.73
3.53
0.45
-2.26
-4.52
-6.45
-8.36
-10.59
-13.49
-17.19
-21.56
-26.16
-30.25
-32.92
-33.29
-30.79
-25.38
-17.63
-8.60
0.46
8.46
14.71
19.05
21.61
22.70
22.49
21.07
18.55
15.26
11.81
8.94
7.33
7.30
8.73
11.15
13.96
16.62
18.80
20.46
21.63
22.41
22.79
22.62
21.77
20.09
17.55
14.31
10.60
6.70
2.83
-0.89
-4.48
-8.00
-11.55
-15.30
-19.43
-24.08
-29.19
-34.32
-38.66
-41.15
-40.85
-37.28
-30.65
-21.77
-11.83
-2.00
6.82
14.19
19.97
24.19
26.92
28.19
28.05
26.66
24.34
21.47
18.42
15.40
12.51
9.73
7.09
4.71
2.81
1.59
1.12
1.26
1.68
1.99
1.83
0.99
-0.58
-2.82
-5.55
-8.56
-11.61
-14.51
-17.14
-19.56
-21.95
-24.62
-27.83
-31.58
-35.60
-39.24
-41.70
-42.22
-40.42
-36.41
-30.84
-24.66
-18.91
-14.38
-11.47
-10.17
-10.18
-11.06
-12.32
-13.46
-14.12
-14.02
-13.07
-11.37
-9.13
-6.65
-4.16
-1.82
0.30
2.15
3.71
4.98
6.10
7.37
9.33
12.69
18.20
26.48
37.77
51.80
67.73
84.28
99.93
113.21
122.95
128.41
129.37
126.21
119.84
111.63
103.10
95.56
89.72
85.57
82.44
79.38
75.57
70.61
64.55
57.67
50.25
42.40
34.04
25.03
15.33
5.09
-5.28
-15.24
-24.17
-31.55
-37.01
-40.45
-42.00
-42.00
-40.89
-39.21
-37.48
-36.14
-35.49
-35.66
-36.61
-38.12
-39.95
-41.87
-43.77
-45.71
-47.87
-50.46
-53.62
-57.23
-60.88
-63.86
-65.29
-64.41
-60.85
-54.80
-47.02
-38.60
-30.59
-23.73
-18.27
-14.06
-10.78
-8.19
-6.28
-5.22
-5.15
-6.01
-7.43
-8.86
-9.75
-9.82
-9.11
-7.96
-6.85
-6.19
-6.21
-6.93
-8.20
-9.80
-11.54
-13.30
-15.05
-16.85
-18.77
-20.89
-23.28
-26.01
-29.11
-32.53
-35.98
-38.93
-40.58
-40.13
-37.01
-31.18
-23.22
-14.21
-5.40
2.15
7.87
11.70
13.93
14.96
15.07
14.39
12.95
10.85
8.37
5.90
3.92
2.74
2.41
2.72
3.26
3.60
3.40
2.56
1.16
-0.58
-2.44
-4.33
-6.23
-8.26
-10.53
-13.20
-16.40
-20.22
-24.59
-29.14
-33.12
-35.49
-35.29
-31.94
-25.55
-16.90
-7.23
2.19
10.40
16.84
21.37
24.05
25.08
24.73
23.38
21.46
19.42
17.58
16.08
14.87
13.82
12.79
11.77
10.87
10.19
9.79
9.49
8.99
7.94
6.16
3.70
0.80
-2.19
-5.04
-7.73
-10.38
-13.24
-16.54
-20.42
-24.86
-29.63
-34.17
-37.63
-38.99
-37.36
-32.36
-24.33
-14.31
-3.71
6.14
14.36
20.57
24.83
27.40
28.55
28.56
27.64
26.09
24.19
22.27
20.54
19.21
18.32
17.84
17.62
17.45
17.12
16.55
15.77
14.95
14.19
13.41
12.31
10.52
7.79
4.21
0.21
-3.57
-6.63
-8.74
-10.16
-11.44
-13.21
-16.00
-20.01
-25.04
-30.48
-35.38
-38.58
-38.98
-35.83
-29.05
-19.28
-7.81
3.79
14.12
22.30
28.04
31.56
33.29
33.68
33.08
31.78
30.00
28.09
26.37
25.11
24.46
24.38
24.68
25.13
25.52
25.72
25.66
25.28
24.50
23.25
21.50
19.33
16.89
14.40
12.02
9.77
7.52
5.12
2.48
-0.35
-3.18
-5.84
-8.25
-10.49
-12.75
-15.33
-18.46
-22.29
-26.80
-31.64
-36.20
-39.60
-40.90
-39.35
-34.69
-27.26
-17.95
-8.01
1.30
9.00
14.54
17.86
19.24
19.14
18.04
16.26
14.03
11.48
8.79
6.19
3.97
2.36
1.44
1.07
0.99
0.90
0.61
0.15
-0.29
-0.51
-0.39
-0.05
0.17
-0.08
-1.07
-2.80
-5.00
-7.27
-9.26
-10.79
-11.95
-13.01
-14.24
-15.87
-18.05
-20.83
-24.15
-27.75
-31.06
-33.24
-33.35
-30.65
-24.96
-16.79
-7.21
2.45
11.04
17.82
22.55
25.39
26.66
26.72
25.84
24.23
22.11
19.78
17.58
15.79
14.59
14.00
13.91
14.14
14.54
15.04
15.52
15.82
15.66
14.71
12.81
10.01
6.61
3.08
-0.23
-3.11
-5.65
-8.09
-10.74
-13.83
-17.45
-21.44
-25.38
-28.60
-30.26
-29.60
-26.19
-20.10
-11.95
-2.83
6.07
13.67
19.30
22.72
24.05
23.65
21.98
19.48
16.54
13.49
10.59
8.11
6.26
5.18
4.85
5.10
5.59
5.93
5.82
5.11
3.83
2.09
0.07
-2.09
-4.24
-6.21
-7.79
-8.82
-9.26
-9.29
-9.32
-9.82
-11.23
-13.77
-17.29
-21.27
-24.83
-26.84
-26.28
-22.47
-15.42
-5.82
5.08
15.88
25.33
32.62
37.45
39.82
40.01
38.31
35.10
30.81
25.93
20.98
16.28
11.99
8.01
4.13
0.23
-3.60
-7.02
-9.60
-11.01
-11.26
-10.68
-9.81
-9.15
-8.94
-9.10
-9.34
-9.32
-8.82
-7.78
-6.35
-4.80
-3.52
-2.91
-3.27
-4.58
-6.41
-8.02
-8.47
-7.11
-3.83
0.86
6.00
10.53
13.64
14.94
14.44
12.38
9.02
4.58
-0.73
-6.66
-12.83
-18.73
-23.85
-27.66
-29.73
-29.76
-27.66
-23.56
-17.85
-11.12
-4.01
2.95
9.39
15.24
20.57
25.53
30.17
34.28
37.44
39.10
38.83
36.59
32.94
28.96
25.85
24.53
25.28
27.76
31.35
35.56
40.30
45.86
52.59
60.65
69.89
79.86
89.78
98.53
104.52
106.00
101.63
91.14
75.82
58.29
41.59
28.06
18.54
12.33
7.88
3.72
-0.79
-5.35
-9.15
-11.65
-13.06
-14.38
-16.86
-21.25
-27.21
-33.21
-37.18
-37.41
-33.43
-26.24
-17.95
-10.85
-6.53
-5.45
-7.11
-10.64
-15.40
-21.33
-28.91
-38.89
-51.81
-67.53
-84.91
-101.46
-113.30
-115.44
-102.89
-72.31
-23.72
38.54
106.40
170.04
220.61
252.54
264.43
258.43
238.56
209.17
173.99
136.04
97.88
61.80
29.49
1.75
-21.74
-41.97
-59.97
-76.16
-90.10
-100.79
-107.12
-108.53
-105.36
-98.87
-90.97
-83.72
-78.73
-76.79
-77.65
-80.26
-83.32
-85.79
-87.28
-88.08
-88.87
-90.28
-92.47
-95.11
-97.61
-99.37
-100.11
-99.92
-99.03
-97.67
-95.90
-93.58
-90.48
-86.44
-81.49
-75.83
-69.70
-63.26
-56.58
-49.74
-42.98
-36.74
-31.54
-27.67
-24.98
-22.82
-20.18
-16.18
-10.31
-2.69
6.06
15.09
23.55
30.82
36.49
40.37
42.38
42.61
41.41
39.49
37.85
37.50
39.04
42.19
45.77
48.13
47.94
44.88
39.81
34.32
29.81
26.79
24.61
21.98
17.78
11.63
3.97
-4.25
-12.19
-19.39
-25.76
-31.32
-36.02
-39.76
-42.52
-44.57
-46.44
-48.75
-51.89
-55.80
-59.92
-63.34
-65.20
-65.00
-62.86
-59.48
-55.72
-52.09
-48.33
-43.52
-36.63
-27.33
-16.41
-5.60
3.35
9.63
13.94
18.02
23.64
31.35
39.92
46.70
48.83
44.54
33.83
18.33
0.49
-17.22
-32.72
-44.42
-51.13
-52.00
-46.70
-35.99
-21.88
-7.27
4.89
12.76
16.24
17.11
18.21
22.35
30.94
43.23
56.56
67.52
73.41
73.06
67.04
57.16
45.70
33.75
20.61
3.84
-19.94
-53.17
-96.44
-147.16
-198.98
-241.64
-264.50
-260.38
-228.76
-177.06
-118.00
-66.61
-35.68
-31.94
-53.16
-90.95
-133.69
-169.21
-187.60
-181.16
-146.59
-85.50
-4.05
89.73
184.63
267.69
327.33
355.95
354.11
328.66
290.19
237.35
173.61
105.39
38.40
-20.68
-77.64
-135.41
-192.11
-242.45
-279.55
-297.11
-294.16
-275.48
-249.12
-223.37
-202.01
-185.24
-171.30
-158.18
-143.69
-127.56
-110.76
-93.85
-76.44
-55.80
-29.39
3.54
41.66
82.92
124.75
165.04
203.10
239.36
275.85
314.61
357.16
404.47
457.15
514.20
571.96
623.90
661.57
677.49
667.50
632.37
577.70
511.86
442.92
376.23
313.87
255.43
199.70
145.58
91.99
37.27
-21.14
-85.67
-156.70
-230.58
-299.51
-353.15
-382.29
-382.37
-355.08
-307.13
-246.96
-181.38
-114.01
-46.13
20.97
84.11
137.97
176.66
195.97
194.93
175.94
143.84
104.61
64.36
28.51
1.22
-15.25
-21.00
-18.63
-12.51
-7.48
-7.36
-14.03
-27.39
-45.85
-67.25
-89.72
-112.10
-134.04
-155.93
-178.83
-204.12
-232.88
-265.25
-299.71
-332.95
-360.43
-377.41
-380.17
-367.02
-338.89
-299.10
-252.38
-203.49
-155.84
-110.76
-67.75
-25.85
14.77
51.64
80.16
95.06
92.43
71.24
33.40
-17.28
-76.50
-140.22
-204.68
-265.90
-319.74
-362.59
-392.54
-409.83
-416.44
-414.83
-406.59
-391.99
-370.45
-341.84
-307.39
-269.58
-231.36
-194.88
-160.88
-128.83
-97.60
-66.11
-33.62
0.05
34.25
67.28
96.27
117.91
129.64
130.86
123.66
112.49
102.90
99.90
106.74
124.24
150.94
183.80
219.02
253.04
283.37
309.23
331.65
352.92
375.87
403.04
436.25
476.09
521.24
567.98
610.09
640.03
651.10
639.58
606.21
555.52
493.59
425.26
352.75
276.42
197.38
120.06
52.77
5.49
-14.51
-6.89
20.34
53.12
76.84
82.14
68.34
42.43
14.78
-6.51
-19.18
-26.78
-35.71
-51.46
-76.42
-109.82
-148.95
-190.23
-229.20
-259.76
-274.31
-265.80
-231.20
-174.44
-106.66
-43.26
1.16
17.30
3.06
-37.72
-98.10
-170.04
-245.06
-313.52
-364.66
-388.29
-378.62
-337.17
-273.29
-201.36
-135.60
-85.32
-52.72
-34.25
-23.87
-16.38
-9.05
-1.66
4.67
8.74
9.77
7.46
1.88
-6.71
-18.10
-32.23
-49.19
-69.07
-91.48
-115.25
-138.93
-161.58
-183.53
-206.08
-230.76
-258.40
-288.47
-318.82
-346.55
-368.59
-382.41
-386.24
-379.48
-362.94
-338.84
-310.44
-281.17
-253.70
-229.20
-207.45
-187.62
-169.13
-151.87
-136.06
-121.60
-107.81
-93.72
-78.42
-61.50
-43.30
-24.70
-6.55
10.69
27.24
43.92
61.75
81.59
103.67
127.64
152.67
177.91
202.82
227.30
251.74
276.84
303.57
332.85
365.11
399.78
434.81
466.71
491.27
504.79
505.31
493.29
471.25
442.81
411.44
379.70
349.12
320.48
294.22
270.57
249.45
230.41
212.66
195.34
177.88
160.19
142.57
125.59
109.80
95.55
82.92
71.71
61.58
52.08
42.87
33.69
24.47
15.37
6.69
-1.15
-7.82
-13.26
-17.72
-21.72
-25.77
-30.16
-34.89
-39.81
-44.80
-49.84
-54.69
-58.59
-60.09
-57.55
-49.88
-37.42
-22.06
-6.65
6.14
14.88
19.65
21.57
21.84
21.07
19.16
15.83
11.25
6.13
1.49
-1.94
-4.13
-5.68
-7.38
-9.80
-12.97
-16.57
-20.16
-23.47
-26.47
-29.30
-32.17
-35.24
-38.58
-42.13
-45.68
-48.83
-51.17
-52.42
-52.54
-51.74
-50.38
-48.81
-47.34
-46.19
-45.48
-45.30
-45.57
-46.10
-46.68
-47.14
-47.49
-47.81
-48.21
-48.73
-49.35
-50.01
-50.72
-51.50
-52.33
-53.18
-53.91
-54.46
-54.87
-55.24
-55.62
-55.89
-55.71
-54.70
-52.52
-49.11
-44.64
-39.50
-34.14
-28.98
-24.31
-20.26
-16.85
-14.03
-11.80
-10.26
-9.56
-9.81
-10.87
-12.39
-13.85
-14.79
-15.07
-14.83
-14.42
-14.13
-14.05
-14.02
-13.85
-13.48
-13.04
-12.84
-13.15
-14.13
-15.72
-17.70
-19.72
-21.38
-22.27
-22.02
-20.41
-17.47
-13.53
-9.10
-4.72
-0.88
2.14
4.23
5.36
5.57
4.97
3.71
2.02
0.17
-1.58
-3.08
-4.32
-5.42
-6.53
-7.82
-9.33
-11.04
-12.80
-14.43
-15.83
-17.02
-18.17
-19.58
-21.52
-24.02
-26.83
-29.41
-31.10
-31.38
-30.05
-27.31
-23.63
-19.62
-15.77
-12.46
-9.95
-8.40
-8.01
-8.86
-10.87
-13.76
-17.08
-20.39
-23.32
-25.74
-27.70
-29.36
-30.86
-32.30
-33.69
-35.00
-36.22
-37.40
-38.72
-40.46
-43.02
-46.78
-51.96
-58.41
-65.56
-72.36
-77.65
-80.46
-80.38
-77.75
-73.52
-68.87
-64.81
-61.90
-60.26
-59.64
-59.67
-59.98
-60.17
-59.81
-58.49
-55.98
-52.45
-48.50
-45.00
-42.68
-41.75
-41.75
-41.77
-40.82
-38.42
-34.86
-31.09
-28.41
-27.90
-30.09
-34.80
-41.18
-48.00
-53.85
-57.48
-57.95
-54.83
-48.33
-39.29
-28.98
-18.77
-9.73
-2.39
3.27
7.79
11.93
16.50
22.17
29.17
37.23
45.51
52.85
58.23
61.19
62.00
61.56
60.95
61.09
62.43
65.03
68.70
73.04
77.48
81.17
83.14
82.62
79.41
74.23
68.65
64.75
64.60
69.66
80.55
96.96
117.85
141.64
166.62
191.23
214.20
234.75
252.66
268.28
282.41
296.07
310.01
324.28
338.00
349.52
356.90
358.65
354.07
343.38
327.39
307.01
282.79
254.82
222.86
186.65
146.28
102.43
56.56
10.85
-32.02
-69.27
-98.72
-119.27
-131.35
-136.86
-138.77
-140.45
-144.74
-153.23
-165.86
-181.07
-196.44
-209.62
-219.25
-225.30
-228.83
-231.24
-233.39
-235.28
-236.11
-234.95
-231.29
-225.13
-216.65
-205.80
-192.19
-175.36
-155.42
-133.39
-111.11
-90.62
-73.32
-59.35
-47.52
-35.89
-22.76
-7.55
8.71
23.73
34.81
39.92
38.33
30.71
18.58
3.74
-12.17
-27.70
-41.40
-51.81
-57.79
-59.10
-56.64
-52.33
-48.37
-46.39
-46.91
-49.34
-52.40
-54.76
-55.64
-55.02
-53.62
-52.44
-52.38
-53.73
-56.03
-58.18
-58.90
-57.13
-52.42
-44.96
-35.45
-24.73
-13.57
-2.44
8.39
18.81
28.58
37.31
44.45
49.52
52.30
53.01
52.29
50.91
49.52
48.45
47.65
46.79
45.54
43.61
40.89
37.49
33.64
29.71
26.10
23.10
20.71
18.61
16.30
13.39
9.94
6.59
4.43
4.60
7.84
14.28
23.51
34.77
47.13
59.41
70.13
77.42
79.43
74.88
63.70
47.25
27.98
8.60
-8.78
-23.17
-34.68
-43.95
-51.61
-57.88
-62.60
-65.52
-66.54
-65.89
-64.10
-61.87
-59.92
-58.80
-58.77
-59.69
-61.01
-61.83
-61.15
-58.13
-52.28
-43.58
-32.45
-19.60
-5.84
8.15
21.89
35.13
47.72
59.40
69.76
78.26
84.45
88.24
89.89
89.90
88.63
86.02
81.64
75.04
66.24
55.96
45.55
36.44
29.51
24.74
21.21
17.62
12.87
6.59
-0.71
-7.78
-13.06
-15.28
-13.77
-8.71
-0.92
8.34
17.75
26.14
32.63
36.65
37.98
36.76
33.43
28.71
23.41
18.31
13.95
10.57
8.06
6.01
3.86
1.05
-2.80
-7.78
-13.72
-20.35
-27.50
-35.22
-43.72
-53.20
-63.75
-75.04
-86.39
-96.77
-104.89
-109.50
-109.60
-104.79
-95.42
-82.57
-67.74
-52.42
-37.67
-24.04
-11.63
-0.44
9.41
17.65
24.07
28.68
31.87
34.24
36.30
38.28
40.09
41.48
42.31
42.68
42.83
42.95
42.96
42.45
40.83
37.60
32.61
26.10
18.65
11.04
4.06
-1.52
-5.04
-6.10
-4.59
-0.79
4.69
11.04
17.54
23.61
28.93
33.24
36.30
37.80
37.49
35.44
32.19
28.73
26.14
25.28
26.36
28.88
31.89
34.42
35.95
36.60
37.07
38.18
40.40
43.44
46.27
47.46
45.80
40.91
33.54
25.47
18.76
15.16
15.25
18.30
22.76
26.85
29.45
30.31
30.23
30.72
33.73
41.24
54.72
73.97
96.21
116.00
126.59
122.57
102.44
69.81
32.20
-2.04
-26.93
-40.77
-45.66
-45.28
-42.66
-39.00
-34.09
-27.61
-20.12
-13.04
-7.89
-5.17
-4.08
-2.84
0.42
6.78
16.10
27.11
38.00
47.19
53.85
58.01
60.38
61.78
62.75
63.26
62.88
61.00
57.23
51.65
44.78
37.53
30.94
25.88
22.84
21.75
21.99
22.65
22.76
21.71
19.37
16.13
12.60
9.34
6.61
4.32
2.21
0.04
-2.19
-4.24
-5.69
-6.14
-5.36
-3.44
-0.71
2.38
5.42
8.18
10.67
12.93
14.91
16.31
16.70
15.63
12.95
8.92
4.16
-0.51
-4.37
-7.01
-8.47
-9.10
-9.39
-9.74
-10.33
-11.11
-11.88
-12.44
-12.74
-12.90
-13.15
-13.68
-14.54
-15.57
-16.47
-16.98
-16.95
-16.56
-16.28
-16.82
-18.88
-22.94
-29.00
-36.59
-44.88
-52.99
-60.28
-66.52
-71.81
-76.40
-80.43
-83.86
-86.43
-87.83
-87.75
-86.06
-82.75
-78.05
-72.48
-66.84
-62.14
-59.33
-58.91
-60.75
-64.08
-67.78
-70.79
-72.49
-72.77
-71.94
-70.40
-68.42
-66.09
-63.43
-60.49
-57.47
-54.62
-52.15
-50.14
-48.58
-47.39
-46.55
-45.96
-45.39
-44.45
-42.63
-39.59
-35.42
-30.64
-26.06
-22.37
-19.76
-17.58
-14.27
-7.51
5.13
25.42
53.48
87.15
121.92
151.70
170.12
172.17
155.67
122.02
76.08
25.01
-23.31
-61.95
-86.17
-94.19
-87.19
-68.89
-44.66
-20.39
-1.29
9.16
9.85
2.01
-11.47
-27.19
-42.33
-55.26
-65.53
-73.44
-79.40
-83.72
-86.57
-88.21
-88.94
-89.18
-89.25
-89.40
-89.73
-90.34
-91.23
-92.29
-93.12
-93.08
-91.37
-87.27
-80.42
-70.97
-59.53
-47.05
-34.61
-23.20
-13.61
-6.35
-1.66
0.58
0.75
-0.54
-2.59
-4.78
-6.62
-7.89
-8.59
-8.92
-9.15
-9.56
-10.39
-11.82
-13.94
-16.85
-20.67
-25.62
-31.95
-39.85
-49.38
-60.23
-71.76
-82.94
-92.46
-98.94
-101.24
-98.77
-91.60
-80.49
-66.60
-51.16
-35.29
-19.85
-5.54
7.01
17.29
25.05
30.45
34.04
36.62
38.90
41.28
43.75
46.07
47.98
49.35
50.28
50.94
51.50
51.98
52.24
52.07
51.23
49.50
46.78
43.04
38.28
32.58
26.15
19.49
13.39
8.87
6.91
8.14
12.61
19.74
28.57
37.95
46.93
54.79
61.10
65.62
68.20
68.80
67.53
64.75
60.99
57.01
53.58
51.36
50.71
51.52
53.24
54.90
55.39
53.79
49.65
43.20
35.16
26.46
17.81
9.45
1.15
-7.47
-16.55
-25.67
-33.89
-40.01
-43.05
-42.52
-38.55
-31.74
-22.79
-12.39
-1.10
10.45
21.38
30.54
36.73
39.04
37.31
32.22
25.12
17.55
10.68
5.07
0.69
-2.76
-5.49
-7.38
-8.08
-7.14
-4.29
0.40
6.50
13.32
20.09
26.12
31.03
34.84
38.03
41.24
45.05
49.58
54.39
58.66
61.49
62.31
61.00
57.85
53.28
47.58
40.95
33.53
25.66
17.89
10.90
5.34
1.56
-0.44
-0.91
-0.19
1.41
3.79
6.91
10.68
14.70
18.13
19.84
18.74
14.32
6.94
-2.13
-11.18
-18.63
-23.60
-26.02
-26.48
-25.68
-24.11
-21.94
-19.16
-15.96
-12.90
-10.81
-10.47
-12.32
-16.11
-21.15
-26.40
-30.99
-34.37
-36.45
-37.38
-37.45
-36.82
-35.56
-33.64
-31.12
-28.20
-25.25
-22.73
-21.08
-20.52
-21.07
-22.47
-24.25
-25.78
-26.35
-25.22
-21.77
-15.66
-7.02
3.50
14.84
25.77
35.33
43.01
48.78
53.00
56.05
58.18
59.45
59.86
59.50
58.64
57.73
57.20
57.29
57.98
58.97
59.78
59.94
59.07
56.96
53.60
49.14
43.83
37.95
31.76
25.54
19.61
14.45
10.68
8.92
9.55
12.49
17.08
22.38
27.48
31.85
35.49
38.73
41.88
44.89
47.27
48.25
47.17
43.77
38.23
31.10
22.96
14.20
4.91
-4.91
-15.23
-25.81
-36.21
-45.96
-54.79
-62.78
-70.27
-77.61
-85.04
-92.62
-100.45
-108.78
-117.96
-127.98
-138.03
-146.26
-150.03
-146.84
-135.22
-115.33
-88.79
-57.86
-24.56
9.46
42.50
72.13
94.97
107.37
106.72
92.70
67.82
36.95
6.20
-18.60
-33.14
-35.34
-25.53
-6.22
18.45
43.46
63.76
75.31
75.92
65.83
47.73
26.30
7.10
-4.63
-5.30
5.96
27.17
53.99
80.94
102.71
115.41
117.22
108.65
92.30
72.09
52.32
36.58
26.91
23.44
24.46
27.18
28.67
26.65
19.93
8.09
-9.01
-31.71
-60.27
-94.27
-131.73
-168.98
-201.34
-224.50
-235.54
-233.38
-218.28
-190.93
-152.08
-102.99
-46.25
13.44
69.79
116.25
148.04
163.52
164.38
154.59
138.70
120.56
102.65
86.37
72.61
62.10
55.39
52.56
52.97
55.37
58.31
60.65
61.92
62.33
62.44
62.83
63.82
65.39
67.21
68.97
70.49
71.94
73.82
76.69
80.91
86.32
92.32
98.08
103.07
107.42
111.93
117.82
126.12
137.20
150.65
165.33
179.66
191.79
199.58
200.57
192.37
173.19
142.61
102.04
54.56
3.98
-46.26
-94.09
-138.97
-181.46
-222.40
-262.08
-299.71
-333.30
-359.98
-376.61
-380.73
-371.47
-350.22
-320.66
-287.98
-257.54
-233.50
-217.76
-209.70
-206.78
-205.51
-202.71
-196.42
-186.43
-174.30
-162.54
-153.51
-148.11
-145.19
-141.55
-132.94
-115.50
-87.26
-49.11
-4.71
40.57
81.37
114.03
137.49
153.10
163.48
171.07
177.12
181.59
183.65
182.64
178.51
171.85
163.35
153.38
141.92
128.89
114.55
99.65
85.26
72.35
61.40
52.25
44.25
36.67
28.99
21.21
13.75
7.34
2.59
-0.22
-1.34
-1.47
-1.52
-2.35
-4.44
-7.78
-11.86
-15.90
-19.06
-20.77
-20.77
-19.18
-16.32
-12.54
-8.07
-3.04
2.28
7.39
11.43
13.34
12.25
7.78
0.19
-9.89
-21.79
-35.14
-49.88
-65.99
-83.10
-100.22
-115.81
-128.06
-135.40
-136.87
-132.36
-122.61
-109.06
-93.43
-77.38
-62.04
-47.76
-34.22
-20.65
-6.41
8.67
24.04
38.63
51.12
60.42
65.89
67.48
65.65
61.28
55.38
49.03
43.15
38.36
34.86
32.36
30.22
27.76
24.48
20.31
15.51
10.51
5.59
0.74
-4.21
-9.50
-15.10
-20.68
-25.73
-29.71
-32.23
-33.26
-32.99
-31.87
-30.39
-29.04
-28.22
-28.13
-28.82
-30.12
-31.77
-33.39
-34.55
-34.76
-33.53
-30.57
-25.84
-19.59
-12.20
-4.08
4.56
13.63
23.04
32.51
41.51
49.34
55.35
59.15
60.70
60.25
58.28
55.35
52.09
49.14
47.00
45.83
45.31
44.75
43.28
40.16
35.06
28.09
19.73
10.61
1.40
-7.24
-14.77
-20.80
-25.23
-28.36
-30.80
-33.29
-36.33
-39.98
-43.83
-47.28
-49.80
-51.27
-51.94
-52.25
-52.59
-53.16
-53.93
-54.74
-55.36
-55.41
-54.33
-51.44
-46.10
-37.92
-26.86
-13.20
2.53
19.70
37.56
55.10
71.11
84.18
93.13
97.35
97.09
93.43
87.83
81.62
75.50
69.52
63.27
56.47
49.25
42.21
36.07
31.17
27.12
22.90
17.38
10.00
1.21
-7.61
-14.73
-18.77
-19.33
-17.09
-13.42
-9.84
-7.46
-6.66
-7.18
-8.41
-9.82
-11.05
-12.07
-12.92
-13.59
-13.96
-13.88
-13.29
-12.33
-11.33
-10.62
-10.39
-10.63
-11.13
-11.64
-12.01
-12.28
-12.67
-13.46
-14.94
-17.26
-20.37
-23.91
-27.26
-29.66
-30.45
-29.23
-26.08
-21.48
-16.05
-10.33
-4.53
1.37
7.54
13.90
20.04
25.25
28.76
30.06
29.19
26.67
23.20
19.40
15.47
11.24
6.40
0.79
-5.37
-11.49
-16.77
-20.43
-21.86
-20.66
-16.67
-10.07
-1.33
8.68
18.89
28.25
36.05
42.14
46.84
50.74
54.36
57.90
61.22
63.96
65.78
66.44
65.83
63.89
60.62
56.03
50.20
43.38
36.01
28.59
21.61
15.26
9.43
3.74
-2.22
-8.66
-15.36
-21.77
-27.13
-30.87
-32.76
-33.02
-32.15
-30.72
-29.17
-27.68
-26.21
-24.59
-22.64
-20.18
-17.16
-13.64
-9.88
-6.30
-3.42
-1.75
-1.68
-3.36
-6.74
-11.55
-17.38
-23.74
-30.02
-35.60
-39.88
-42.42
-43.04
-41.84
-39.15
-35.34
-30.75
-25.59
-20.02
-14.24
-8.57
-3.39
0.88
3.96
5.72
6.17
5.44
3.72
1.26
-1.56
-4.30
-6.49
-7.75
-7.91
-7.06
-5.51
-3.70
-2.07
-0.93
-0.44
-0.59
-1.26
-2.25
-3.36
-4.41
-5.32
-6.04
-6.59
-7.02
-7.44
-7.92
-8.57
-9.42
-10.45
-11.54
-12.53
-13.34
-13.96
-14.50
-15.10
-15.84
-16.66
-17.27
-17.27
-16.19
-13.68
-9.63
-4.24
2.02
8.55
14.78
20.29
24.82
28.27
30.55
31.61
31.49
30.36
28.57
26.54
24.59
22.85
21.27
19.70
18.03
16.27
14.47
12.65
10.75
8.68
6.42
4.01
1.57
-0.83
-3.22
-5.66
-8.18
-10.58
-12.54
-13.59
-13.40
-11.84
-9.04
-5.38
-1.27
2.89
6.81
10.27
13.09
15.08
16.08
16.01
14.95
13.21
11.22
9.42
8.09
7.28
6.85
6.52
6.10
5.49
4.73
3.91
3.16
2.47
1.77
0.92
-0.27
-1.88
-3.94
-6.29
-8.66
-10.70
-12.05
-12.40
-11.59
-9.61
-6.67
-3.12
0.59
3.98
6.69
8.55
9.59
10.00
9.96
9.61
8.97
8.04
6.88
5.61
4.43
3.48
2.83
2.36
1.84
1.05
-0.12
-1.57
-3.03
-4.20
-4.92
-5.23
-5.39
-5.78
-6.66
-8.13
-9.97
-11.79
-13.16
-13.73
-13.36
-12.12
-10.19
-7.81
-5.20
-2.55
-0.09
1.99
3.46
4.18
4.07
3.22
1.87
0.37
-0.90
-1.65
-1.78
-1.33
-0.51
0.45
1.33
2.03
2.55
2.92
3.19
3.39
3.47
3.32
2.78
1.68
-0.08
-2.38
-4.92
-7.18
-8.61
-8.84
-7.79
-5.71
-3.01
-0.13
2.63
5.07
7.04
8.40
8.97
8.65
7.49
5.73
3.72
1.85
0.34
-0.71
-1.37
-1.76
-1.98
-2.10
-2.18
-2.26
-2.42
-2.72
-3.16
-3.70
-4.24
-4.71
-5.08
-5.45
-6.01
-6.92
-8.22
-9.75
-11.10
-11.83
-11.57
-10.15
-7.68
-4.49
-0.99
2.44
5.51
8.00
9.72
10.51
10.27
9.01
7.02
4.76
2.72
1.31
0.66
0.63
0.90
1.13
1.14
0.88
0.46
-0.05
-0.59
-1.15
-1.74
-2.32
-2.89
-3.46
-4.11
-4.98
-6.17
-7.63
-9.09
-10.12
-10.24
-9.14
-6.80
-3.50
0.25
3.89
6.95
9.14
10.35
10.57
9.90
8.49
6.55
4.38
2.27
0.49
-0.85
-1.75
-2.33
-2.70
-2.90
-2.91
-2.64
-2.06
-1.25
-0.38
0.31
0.60
0.37
-0.42
-1.72
-3.41
-5.32
-7.18
-8.66
-9.40
-9.07
-7.59
-5.09
-1.96
1.32
4.28
6.61
8.19
9.02
9.16
8.71
7.76
6.51
5.18
4.00
3.16
2.69
2.54
2.51
2.45
2.22
1.81
1.26
0.66
0.05
-0.58
-1.36
-2.43
-3.93
-5.95
-8.49
-11.47
-14.72
-17.97
-20.89
-23.08
-24.24
-24.27
-23.32
-21.84
-20.35
-19.28
-18.88
-19.15
-19.91
-20.89
-21.83
-22.49
-22.69
-22.39
-21.72
-21.01
-20.71
-21.29
-23.07
-26.17
-30.44
-35.58
-41.17
-46.84
-52.30
-57.44
-62.25
-66.77
-70.95
-74.62
-77.48
-79.24
-79.67
-78.64
-76.05
-71.73
-65.37
-56.70
-45.54
-32.02
-16.57
0.10
17.11
33.53
48.45
61.15
71.10
78.24
82.89
85.82
87.93
90.11
92.90
96.46
100.54
104.51
107.49
108.50
106.62
101.32
92.71
81.62
69.42
57.59
47.23
38.72
31.75
25.69
19.98
14.51
9.67
6.09
4.30
4.46
6.24
9.04
12.23
15.45
18.60
21.81
25.12
28.46
31.63
34.54
37.34
40.36
43.84
47.55
50.66
51.91
50.12
44.78
36.32
26.02
15.43
5.88
-1.94
-8.01
-12.67
-16.32
-19.23
-21.56
-23.47
-25.21
-27.12
-29.36
-31.85
-34.09
-35.36
-35.00
-32.68
-28.57
-23.24
-17.50
-12.11
-7.62
-4.33
-2.38
-1.81
-2.63
-4.79
-8.07
-12.05
-16.04
-19.18
-20.63
-19.77
-16.38
-10.66
-3.15
5.46
14.41
23.00
30.62
36.77
41.06
43.21
43.12
40.68
35.80
28.28
18.03
5.36
-8.78
-22.76
-34.56
-42.39
-45.24
-43.25
-37.66
-30.27
-22.93
-16.98
-13.03
-11.06
-10.62
-11.10
-11.87
-12.43
-12.44
-11.74
-10.39
-8.65
-6.97
-5.87
-5.86
-7.29
-10.26
-14.61
-19.91
-25.58
-30.95
-35.41
-38.61
-40.48
-41.24
-41.30
-41.02
-40.50
-39.42
-37.06
-32.48
-24.90
-13.94
0.08
16.19
32.96
48.79
62.31
72.54
79.00
81.66
80.77
76.78
70.30
62.05
52.82
43.40
34.43
26.34
19.27
13.17
7.94
3.49
-0.23
-3.25
-5.66
-7.55
-9.09
-10.42
-11.67
-12.99
-14.54
-16.46
-18.89
-21.78
-24.86
-27.70
-29.78
-30.73
-30.43
-28.98
-26.68
-23.83
-20.70
-17.49
-14.38
-11.55
-9.18
-7.40
-6.29
-5.82
-5.92
-6.49
-7.39
-8.47
-9.54
-10.38
-10.86
-10.94
-10.74
-10.48
-10.39
-10.63
-11.22
-12.02
-12.86
-13.56
-14.14
-14.75
-15.63
-16.95
-18.65
-20.36
-21.53
-21.55
-20.05
-17.00
-12.72
-7.75
-2.68
2.04
6.17
9.60
12.33
14.33
15.56
15.98
15.65
14.72
13.42
12.07
10.93
10.19
9.88
9.89
9.97
9.81
9.19
8.02
6.49
4.94
3.76
3.16
3.00
2.75
1.68
-0.91
-5.29
-11.12
-17.30
-22.19
-23.99
-21.26
-13.38
-0.83
14.94
31.91
48.21
62.66
75.02
85.86
95.97
105.70
114.38
120.31
121.20
115.06
101.10
80.31
55.43
30.33
9.00
-5.41
-11.42
-9.47
-1.73
8.53
17.85
23.58
24.57
21.42
15.98
10.48
6.45
4.12
2.57
0.47
-2.96
-7.46
-11.90
-14.99
-16.00
-14.98
-12.54
-9.22
-5.15
0.07
7.01
15.96
26.70
38.35
49.56
58.69
64.01
63.97
57.63
45.25
28.52
10.54
-4.92
-14.58
-16.92
-12.93
-5.97
-0.58
-0.51
-6.84
-17.21
-26.90
-31.29
-28.48
-20.68
-13.43
-12.98
-23.32
-44.38
-72.34
-101.71
-127.90
-148.80
-165.01
-178.52
-190.94
-202.05
-209.72
-210.81
-203.26
-187.94
-169.21
-153.35
-145.59
-147.15
-154.28
-160.00
-157.74
-144.57
-122.39
-96.46
-72.36
-53.45
-40.32
-31.97
-27.49
-26.68
-29.65
-35.50
-41.68
-44.51
-40.67
-28.93
-10.88
9.63
28.04
40.95
47.33
48.83
48.73
50.50
56.26
65.68
76.24
84.48
87.80
85.82
80.47
74.99
72.29
73.76
79.18
87.32
97.03
107.72
119.08
130.51
140.67
148.01
151.46
150.84
146.53
138.54
125.93
107.07
80.92
47.99
10.76
-27.18
-62.67
-93.97
-120.48
-141.63
-155.48
-158.21
-145.23
-113.00
-61.04
6.82
82.84
157.12
220.52
267.06
295.29
307.31
307.54
300.69
290.25
278.04
264.71
250.95
237.62
225.92
215.61
205.41
193.15
176.33
152.75
120.83
80.44
32.38
-20.75
-76.42
-131.06
-180.39
-220.14
-247.05
-259.98
-259.72
-250.47
-238.01
-230.61
-235.19
-254.91
-288.13
-328.91
-369.74
-403.12
-425.44
-422.84
-388.17
-324.18
-244.41
-167.29
-107.14
-75.10
-64.27
-63.17
-58.95
-42.75
-10.33
40.03
103.25
169.47
226.07
262.19
270.53
251.09
209.45
156.03
102.85
59.56
31.35
17.53
14.03
14.61
15.22
14.38
13.04
12.98
14.37
15.23
11.97
2.16
-14.30
-33.38
-49.20
-56.65
-54.05
-44.22
-32.14
-21.77
-13.72
-5.93
4.57
18.72
34.25
46.54
51.14
46.64
35.65
23.73
16.05
14.42
16.04
14.69
4.79
-14.93
-39.76
-61.25
-72.17
-70.53
-60.34
-48.79
-41.92
-41.65
-46.04
-51.61
-55.84
-57.80
-56.84
-50.95
-36.93
-12.39
21.64
59.76
94.24
118.52
130.14
131.20
126.32
119.85
114.35
110.50
108.19
107.63
109.43
113.91
120.12
125.24
125.42
117.42
100.31
76.37
50.32
27.39
11.35
3.21
1.45
3.08
5.24
6.10
4.91
1.57
-4.11
-12.68
-24.72
-40.08
-57.34
-73.68
-85.64
-90.25
-86.05
-73.39
-54.00
-30.00
-3.11
25.59
55.19
84.20
110.26
130.64
143.07
146.46
140.80
126.59
104.23
74.13
37.42
-3.20
-43.31
-77.81
-102.44
-115.19
-116.74
-109.61
-96.83
-80.67
-62.17
-41.42
-18.50
6.04
31.00
54.80
75.92
93.07
104.73
108.70
102.27
83.09
50.50
6.93
-41.79
-87.55
-122.39
-141.17
-143.27
-132.43
-114.72
-95.67
-78.52
-63.99
-51.54
-40.85
-32.49
-27.51
-26.19
-26.92
-26.41
-21.09
-9.05
8.82
29.43
49.55
68.22
87.46
110.93
141.31
177.68
214.86
245.20
261.94
262.06
247.51
223.87
197.66
173.39
152.33
133.11
113.24
90.50
63.82
32.80
-2.94
-44.37
-92.42
-146.66
-203.82
-257.69
-300.30
-324.59
-327.18
-309.74
-278.20
-240.18
-201.85
-166.04
-132.43
-99.50
-66.75
-35.80
-9.70
8.96
19.73
24.59
26.53
27.38
26.15
19.19
1.87
-28.67
-71.65
-122.70
-175.42
-223.79
-264.07
-295.40
-319.04
-336.83
-349.60
-356.45
-355.04
-342.68
-317.73
-280.82
-234.86
-184.17
-132.89
-83.51
-36.16
10.78
59.31
110.37
163.20
215.74
265.58
310.67
349.51
380.80
403.10
414.97
415.50
405.03
385.36
359.33
330.02
300.03
271.24
244.95
222.26
204.07
190.92
182.56
177.84
174.97
172.16
167.98
161.34
151.33
137.02
117.65
93.08
64.14
32.57
0.51
-29.99
-57.31
-80.22
-97.66
-108.90
-113.81
-113.29
-109.42
-104.82
-101.73
-101.00
-101.77
-102.04
-99.82
-94.16
-85.64
-76.05
-67.58
-61.97
-60.02
-61.51
-65.51
-70.72
-75.91
-80.14
-82.82
-83.66
-82.54
-79.42
-74.34
-67.53
-59.60
-51.44
-44.12
-38.46
-34.76
-32.72
-31.58
-30.48
-28.81
-26.32
-23.05
-19.13
-14.72
-9.96
-5.10
-0.48
3.46
6.37
8.02
8.35
7.37
5.14
1.72
-2.68
-7.63
-12.44
-16.26
-18.34
-18.25
-16.04
-12.27
-7.88
-3.84
-1.04
-0.01
-0.88
-3.50
-7.44
-12.15
-16.98
-21.26
-24.33
-25.78
-25.32
-22.86
-18.26
-11.37
-1.95
9.94
23.75
38.31
51.98
63.05
70.27
73.10
71.74
66.94
59.72
51.06
41.80
32.65
24.15
16.72
10.83
7.05
6.06
8.53
14.65
23.73
33.93
42.65
47.16
45.75
38.38
26.85
14.23
3.76
-2.10
-2.38
2.41
10.53
19.68
27.43
31.72
31.12
25.17
14.53
0.84
-13.69
-27.13
-38.58
-48.47
-58.23
-69.30
-82.12
-95.53
-106.88
-113.01
-111.48
-101.53
-84.42
-62.95
-40.65
-20.93
-6.39
1.48
2.55
-2.03
-9.98
-18.48
-24.83
-27.12
-24.81
-18.64
-10.30
-1.75
5.34
10.00
11.97
11.58
9.52
6.62
3.73
1.47
0.21
-0.11
0.16
0.44
0.24
-0.73
-2.46
-4.68
-7.05
-9.23
-11.01
-12.30
-13.09
-13.47
-13.64
-13.92
-14.58
-15.74
-17.22
-18.52
-19.02
-18.16
-15.63
-11.43
-5.77
0.99
8.47
16.15
23.39
29.42
33.56
35.40
34.89
32.24
27.57
20.53
10.16
-5.02
-26.64
-55.84
-92.53
-134.58
-177.53
-214.85
-239.11
-243.71
-224.76
-182.64
-122.56
-53.80
12.35
65.35
98.01
108.08
98.38
75.43
47.29
21.31
2.32
-8.52
-13.78
-18.90
-29.96
-50.89
-81.07
-114.50
-141.35
-151.53
-138.68
-102.76
-49.90
10.06
66.92
112.92
143.81
158.67
159.02
148.08
130.19
110.11
92.00
78.48
70.06
65.52
62.81
60.03
56.09
50.73
44.22
36.84
28.71
19.87
10.46
0.91
-8.06
-15.56
-20.83
-23.41
-23.39
-21.28
-17.97
-14.38
-11.20
-8.80
-7.09
-5.67
-3.94
-1.27
2.75
8.21
14.75
21.61
27.82
32.55
35.27
35.93
34.97
33.06
31.02
29.60
29.43
30.89
34.11
38.81
44.37
49.93
54.58
57.77
59.37
59.76
59.57
59.39
59.50
59.80
59.90
59.27
57.42
54.03
48.94
42.24
34.25
25.55
16.87
8.89
2.09
-3.33
-7.36
-10.11
-11.68
-12.22
-11.96
-11.14
-9.96
-8.36
-6.01
-2.37
2.94
9.89
17.86
25.76
32.35
36.55
37.75
35.82
31.09
24.21
15.99
7.38
-0.77
-7.73
-13.05
-16.51
-18.12
-18.08
-16.84
-15.17
-14.13
-14.82
-18.04
-23.77
-31.04
-38.12
-43.18
-45.10
-44.05
-41.48
-39.57
-40.17
-43.85
-49.56
-54.95
-57.32
-54.68
-46.53
-33.81
-18.38
-2.18
13.37
27.35
38.96
47.00
49.85
45.87
34.37
16.33
-5.55
-27.48
-45.74
-57.76
-62.73
-61.52
-56.23
-49.54
-44.14
-42.35
-45.79
-55.03
-69.31
-86.57
-103.76
-117.46
-124.74
-123.80
-114.42
-97.89
-76.64
-53.55
-31.17
-11.21
5.69
19.71
31.40
41.12
48.81
54.04
56.40
55.88
53.02
48.80
44.21
39.92
36.11
32.55
28.88
24.91
20.75
16.80
13.48
11.03
9.24
7.48
4.93
0.94
-4.56
-10.85
-16.69
-20.70
-21.98
-20.44
-16.70
-11.76
-6.50
-1.43
3.24
7.32
10.35
11.68
10.67
7.12
1.54
-5.03
-11.27
-16.20
-19.40
-21.17
-22.24
-23.37
-25.06
-27.36
-30.00
-32.58
-34.80
-36.58
-37.95
-39.02
-39.89
-40.63
-41.31
-42.05
-42.85
-43.59
-43.86
-43.11
-40.84
-36.83
-31.33
-24.98
-18.60
-12.85
-8.04
-4.13
-0.86
1.94
4.29
6.03
7.04
7.39
7.39
7.36
7.48
7.67
7.72
7.51
7.33
7.87
9.97
14.11
20.13
27.02
33.29
37.45
38.45
36.03
30.69
23.53
15.89
9.09
4.17
1.79
2.14
4.95
9.58
15.14
20.66
25.37
28.73
30.54
30.78
29.58
27.12
23.59
19.31
14.69
10.19
6.19
2.86
0.12
-2.30
-4.64
-6.96
-9.10
-10.76
-11.70
-11.87
-11.45
-10.72
-10.05
-9.67
-9.72
-10.18
-10.86
-11.42
-11.41
-10.41
-8.13
-4.60
-0.13
4.75
9.51
13.83
17.63
21.03
24.19
27.13
29.68
31.55
32.44
32.25
31.11
29.32
27.20
24.88
22.29
19.20
15.45
11.19
6.87
3.11
0.41
-1.08
-1.65
-1.90
-2.43
-3.70
-5.80
-8.49
-11.31
-13.62
-14.80
-14.34
-11.94
-7.68
-1.93
4.62
11.21
17.15
22.03
25.70
28.22
29.74
30.36
30.14
29.11
27.38
25.20
22.98
21.15
20.07
19.86
20.37
21.22
22.02
22.47
22.49
22.13
21.49
20.54
19.11
16.94
13.76
9.49
4.30
-1.34
-6.78
-11.24
-14.05
-14.83
-13.60
-10.73
-6.84
-2.54
1.69
5.63
9.14
12.07
14.14
15.04
14.54
12.76
10.12
7.29
4.79
2.85
1.29
-0.29
-2.24
-4.67
-7.34
-9.91
-12.14
-14.00
-15.67
-17.42
-19.47
-21.86
-24.54
-27.40
-30.33
-33.13
-35.52
-37.07
-37.31
-35.92
-32.79
-28.08
-22.21
-15.68
-9.03
-2.75
2.73
7.07
10.09
11.73
12.09
11.39
9.87
7.77
5.29
2.65
0.08
-2.17
-3.82
-4.69
-4.77
-4.24
-3.41
-2.68
-2.30
-2.36
-2.72
-3.10
-3.19
-2.85
-2.17
-1.44
-1.10
-1.43
-2.40
-3.56
-4.19
-3.47
-0.89
3.62
9.54
15.99
22.06
27.13
31.05
34.12
36.84
39.64
42.66
45.70
48.32
50.07
50.60
49.86
48.06
45.63
43.09
40.95
39.55
38.98
39.10
39.57
39.98
40.00
39.40
38.07
35.95
32.96
29.09
24.40
19.05
13.18
6.83
-0.14
-7.97
-16.71
-26.02
-35.07
-42.69
-47.68
-49.26
-47.32
-42.50
-35.94
-29.00
-22.86
-18.28
-15.52
-14.40
-14.44
-15.08
-15.85
-16.40
-16.57
-16.23
-15.33
-13.87
-11.93
-9.71
-7.47
-5.45
-3.77
-2.45
-1.39
-0.53
0.17
0.66
0.93
1.01
1.05
1.18
1.43
1.65
1.47
0.44
-1.81
-5.30
-9.66
-14.10
-17.69
-19.57
-19.22
-16.62
-12.24
-6.83
-1.17
4.04
8.37
11.63
13.78
14.91
15.11
14.56
13.40
11.84
10.09
8.36
6.89
5.85
5.34
5.29
5.48
5.58
5.24
4.20
2.39
-0.01
-2.70
-5.31
-7.58
-9.35
-10.65
-11.59
-12.32
-13.04
-13.88
-14.99
-16.40
-17.98
-19.40
-20.14
-19.65
-17.56
-13.85
-8.94
-3.57
1.39
5.26
7.72
8.82
8.90
8.40
7.69
7.04
6.52
6.12
5.75
5.32
4.71
3.87
2.85
1.82
1.07
0.92
1.58
3.04
5.00
6.92
8.23
8.49
7.58
5.75
3.41
0.99
-1.32
-3.58
-5.97
-8.63
-11.34
-13.57
-14.61
-13.86
-11.10
-6.60
-1.10
4.51
9.38
12.91
14.88
15.42
14.93
13.91
12.77
11.71
10.64
9.30
7.40
4.81
1.66
-1.63
-4.46
-6.23
-6.60
-5.55
-3.47
-1.05
1.01
2.12
2.10
1.08
-0.53
-2.28
-3.78
-4.86
-5.46
-5.68
-5.78
-6.10
-7.06
-8.98
-11.85
-15.22
-18.13
-19.44
-18.18
-14.03
-7.39
0.69
8.92
16.20
21.88
25.83
28.20
29.28
29.28
28.38
26.77
24.70
22.46
20.26
18.12
15.86
13.24
10.10
6.56
2.97
-0.17
-2.47
-3.85
-4.57
-5.12
-6.00
-7.42
-9.30
-11.33
-13.23
-14.87
-16.40
-18.04
-19.93
-22.00
-23.91
-25.25
-25.62
-24.74
-22.47
-18.92
-14.37
-9.28
-4.24
0.27
3.95
6.84
9.21
11.40
13.64
15.94
18.10
19.90
21.18
21.91
22.16
21.99
21.43
20.49
19.18
17.55
15.74
13.84
11.91
9.94
7.84
5.54
3.06
0.48
-2.15
-4.81
-7.53
-10.38
-13.30
-16.00
-17.99
-18.75
-17.93
-15.58
-12.07
-7.98
-3.81
0.16
3.84
7.19
10.03
12.00
12.71
11.89
9.64
6.45
3.04
0.18
-1.60
-2.09
-1.43
0.04
1.84
3.54
4.86
5.70
6.10
6.16
5.94
5.40
4.41
2.87
0.74
-1.91
-4.90
-8.07
-11.23
-14.18
-16.59
-18.04
-18.05
-16.33
-12.94
-8.29
-3.06
2.09
6.64
10.36
13.17
15.03
15.88
15.60
14.18
11.76
8.66
5.25
1.91
-1.18
-4.00
-6.61
-9.04
-11.20
-12.88
-13.88
-14.06
-13.49
-12.32
-10.81
-9.21
-7.71
-6.50
-5.80
-5.85
-6.88
-9.03
-12.24
-16.24
-20.45
-24.09
-26.31
-26.33
-23.74
-18.61
-11.57
-3.55
4.44
11.62
17.58
22.27
25.79
28.28
29.84
30.51
30.39
29.65
28.55
27.28
26.04
24.89
23.87
22.94
22.09
21.23
20.29
19.12
17.55
15.46
12.76
9.43
5.55
1.27
-3.19
-7.59
-11.75
-15.62
-19.32
-23.11
-27.25
-31.77
-36.29
-40.04
-42.10
-41.71
-38.65
-33.34
-26.72
-19.83
-13.47
-8.03
-3.50
0.25
3.32
5.62
7.05
7.60
7.43
6.84
6.12
5.44
4.82
4.25
3.73
3.39
3.31
3.49
3.76
3.84
3.50
2.69
1.58
0.44
-0.54
-1.34
-2.14
-3.13
-4.51
-6.36
-8.78
-11.80
-15.40
-19.27
-22.74
-24.82
-24.50
-21.21
-15.03
-6.89
1.87
9.85
16.07
20.19
22.43
23.31
23.32
22.74
21.64
20.00
17.88
15.50
13.17
11.15
9.48
8.04
6.56
4.90
3.12
1.44
0.14
-0.60
-0.84
-0.76
-0.62
-0.65
-1.07
-2.02
-3.70
-6.18
-9.36
-12.80
-15.77
-17.38
-16.89
-13.97
-8.86
-2.29
4.77
11.40
16.98
21.26
24.29
26.21
27.19
27.29
26.53
25.04
23.01
20.77
18.60
16.70
15.16
13.96
13.12
12.67
12.57
12.67
12.60
11.89
10.16
7.30
3.51
-0.76
-4.96
-8.74
-11.96
-14.66
-16.98
-19.06
-21.06
-23.18
-25.62
-28.46
-31.49
-34.13
-35.47
-34.60
-30.98
-24.74
-16.73
-8.24
-0.54
5.51
9.71
12.38
14.05
15.13
15.73
15.72
14.98
13.58
11.79
10.06
8.74
7.97
7.65
7.53
7.35
6.97
6.41
5.80
5.27
4.88
4.55
4.13
3.40
2.24
0.62
-1.42
-3.84
-6.66
-9.88
-13.39
-16.73
-19.16
-19.85
-18.23
-14.24
-8.45
-1.83
4.63
10.22
14.65
17.98
20.36
21.90
22.61
22.50
21.64
20.27
18.65
17.04
15.57
14.25
13.01
11.76
10.49
9.24
8.12
7.18
6.41
5.68
4.83
3.72
2.35
0.80
-0.82
-2.49
-4.26
-6.28
-8.67
-11.52
-14.84
-18.55
-22.48
-26.22
-29.17
-30.56
-29.69
-26.24
-20.42
-12.97
-4.97
2.54
8.86
13.69
17.11
19.34
20.58
20.93
20.45
19.22
17.50
15.61
13.93
12.76
12.24
12.35
12.93
13.76
14.60
15.24
15.51
15.37
14.87
14.25
13.78
13.65
13.88
14.22
14.28
13.67
12.18
9.91
7.33
5.14
4.22
5.35
8.99
15.06
22.78
30.76
37.49
41.92
44.00
44.73
45.87
49.03
54.94
63.10
71.99
79.82
85.27
87.93
88.27
87.18
85.44
83.40
81.06
78.28
75.00
71.26
67.15
62.69
57.81
52.54
47.13
42.13
38.27
36.15
35.86
36.84
37.98
37.98
35.89
31.63
26.13
21.00
17.80
17.31
19.05
21.50
22.80
21.50
17.24
10.78
3.51
-3.15
-7.96
-9.83
-7.76
-1.29
8.31
17.69
22.18
17.62
2.55
-20.63
-46.25
-67.79
-80.45
-83.34
-78.62
-69.31
-57.27
-42.69
-25.12
-5.10
14.80
30.62
37.54
32.58
15.95
-8.83
-36.55
-62.23
-82.57
-97.67
-106.94
-110.81
-110.33
-106.90
-101.37
-93.34
-82.27
-68.36
-53.34
-40.02
-33.28
-36.81
-51.79
-76.44
-106.61
-137.04
-162.55
-179.49
-179.87
-162.29
-130.88
-93.11
-56.63
-26.44
-3.79
13.86
30.50
50.07
72.13
92.55
105.17
104.53
87.99
56.83
17.13
-22.01
-50.91
-63.71
-59.93
-43.88
-22.41
-1.82
13.80
26.05
36.41
47.41
59.83
72.01
80.64
82.95
78.68
69.00
57.11
44.73
31.77
15.56
-7.45
-39.74
-82.10
-126.96
-168.58
-203.33
-229.95
-247.27
-253.00
-243.81
-217.16
-173.70
-118.50
-61.11
-11.21
24.57
44.96
53.15
54.18
52.44
50.19
48.05
45.20
41.37
37.03
33.18
30.60
29.50
29.56
30.01
30.12
28.87
25.71
20.85
15.21
10.22
7.42
7.75
11.36
18.16
28.05
41.33
57.70
75.90
92.70
103.66
104.71
94.30
74.93
51.80
31.81
19.26
14.00
11.94
8.31
1.36
-6.89
-11.72
-9.26
0.46
12.40
19.00
14.01
-3.51
-28.74
-53.46
-69.78
-73.67
-65.99
-51.27
-33.57
-17.07
-3.37
7.31
13.72
13.82
4.67
-15.83
-47.05
-84.47
-120.32
-145.68
-152.30
-139.51
-113.19
-83.07
-58.64
-45.11
-42.24
-45.77
-50.02
-51.36
-49.16
-44.73
-39.28
-33.44
-25.81
-14.52
1.71
23.37
49.28
76.29
100.56
118.93
130.01
135.88
141.33
150.14
166.28
189.78
216.36
239.41
255.76
262.74
261.07
253.63
243.54
233.09
222.93
213.12
203.64
195.44
189.21
184.74
179.91
170.41
151.68
120.81
78.39
27.69
-25.40
-74.79
-115.69
-145.76
-165.49
-177.24
-184.93
-189.92
-196.52
-209.34
-232.31
-267.69
-315.60
-373.70
-436.47
-494.74
-536.95
-554.40
-543.29
-506.83
-455.59
-403.79
-364.07
-342.73
-337.38
-333.15
-317.75
-285.45
-238.95
-187.48
-139.45
-96.87
-55.22
-9.44
45.27
105.87
164.00
212.82
249.15
274.86
295.72
314.44
333.95
355.89
378.89
401.27
426.03
458.41
503.73
564.11
636.09
711.38
778.63
825.92
831.49
786.71
697.82
584.20
469.18
369.50
291.21
231.71
187.48
150.47
118.57
92.01
70.44
51.18
29.46
0.36
-37.20
-82.63
-134.06
-186.28
-234.44
-275.44
-308.52
-334.76
-355.81
-372.96
-387.25
-399.50
-408.38
-412.56
-411.35
-405.10
-395.14
-383.26
-371.52
-362.74
-360.47
-367.36
-384.69
-410.85
-440.28
-463.92
-471.33
-454.26
-410.04
-342.81
-261.80
-178.41
-102.51
-39.99
7.90
43.17
69.03
88.08
101.76
110.69
115.15
115.37
111.41
103.41
92.09
79.31
68.19
62.29
63.80
71.99
82.92
91.17
93.06
89.18
84.59
85.96
97.23
116.27
134.95
142.53
130.45
95.83
41.86
-24.44
-95.10
-163.21
-223.13
-269.74
-298.18
-304.64
-287.82
-250.06
-197.09
-136.47
-75.57
-19.95
27.31
65.52
95.78
120.20
141.01
159.72
176.57
190.57
200.18
204.42
203.50
198.91
192.71
186.53
180.92
175.18
167.98
158.10
145.03
129.24
112.04
95.19
80.42
68.92
61.10
56.62
54.66
54.24
54.52
54.96
55.16
54.82
53.68
51.49
48.05
43.30
37.26
30.14
22.33
14.34
6.72
-0.12
-6.01
-11.14
-15.85
-20.57
-25.51
-30.65
-35.81
-40.80
-45.53
-49.97
-54.09
-57.77
-60.89
-63.34
-65.09
-66.06
-66.00
-64.56
-61.43
-56.72
-51.02
-45.13
-39.63
-34.39
-28.48
-20.72
-10.36
2.21
15.60
28.15
38.89
48.20
57.61
68.87
82.79
98.48
113.51
124.98
130.68
130.02
124.15
115.32
106.00
98.01
92.09
87.78
83.71
77.99
68.54
53.52
32.01
4.93
-24.25
-49.80
-65.37
-66.66
-53.69
-31.35
-7.39
11.09
20.82
23.29
23.47
26.51
35.08
48.31
62.61
73.57
77.64
73.41
62.07
47.17
33.43
25.02
23.48
26.50
28.42
22.12
1.63
-36.09
-90.66
-158.76
-234.80
-311.47
-380.10
-431.80
-459.63
-461.27
-440.79
-408.01
-375.29
-353.00
-345.91
-352.17
-364.92
-375.96
-379.24
-372.68
-357.94
-338.50
-317.62
-297.02
-276.91
-256.85
-236.76
-217.08
-198.34
-180.50
-162.79
-144.06
-123.52
-101.10
-77.62
-54.42
-32.69
-13.02
4.69
21.14
37.24
53.72
70.94
88.85
107.11
125.46
143.95
163.21
184.21
207.58
232.87
258.06
279.88
294.89
300.83
297.55
287.04
272.51
256.97
242.16
228.17
214.16
199.39
184.13
169.64
157.58
148.98
143.50
139.49
134.68
127.10
115.80
101.03
83.78
65.15
45.88
26.51
7.74
-9.22
-22.70
-31.10
-33.37
-29.36
-19.84
-6.29
9.33
24.86
38.33
48.47
55.06
59.11
62.31
66.15
71.20
76.77
81.48
84.12
84.47
83.39
82.25
82.10
83.15
84.88
86.53
87.59
87.88
87.21
85.01
80.26
71.94
59.64
44.20
27.70
12.86
2.16
-3.10
-3.21
0.28
5.31
10.19
14.16
17.40
20.52
23.91
27.37
30.12
31.35
30.69
28.41
25.11
21.12
16.17
9.56
0.80
-9.62
-20.11
-28.47
-32.97
-33.19
-30.23
-26.14
-22.79
-21.08
-20.74
-20.76
-20.14
-18.33
-15.41
-11.85
-8.27
-5.27
-3.43
-3.28
-5.18
-9.21
-14.95
-21.47
-27.58
-32.08
-34.16
-33.74
-31.46
-28.50
-26.18
-25.44
-26.56
-29.11
-32.15
-34.55
-35.43
-34.27
-30.89
-25.46
-18.36
-10.13
-1.48
6.75
13.64
18.31
20.14
19.01
15.36
10.07
4.17
-1.51
-6.43
-10.27
-12.63
-12.90
-10.44
-5.02
2.86
11.83
20.08
25.97
28.65
28.30
26.01
23.20
21.19
20.73
21.93
24.38
27.29
29.90
31.66
32.42
32.43
32.23
32.37
33.23
34.87
36.98
39.08
40.60
41.18
40.71
39.32
37.32
35.00
32.61
30.32
28.28
26.66
25.59
25.12
25.08
25.17
25.03
24.39
23.25
21.90
20.70
19.91
19.47
19.00
17.97
15.92
12.70
8.43
3.47
-1.87
-7.38
-12.85
-17.87
-21.74
-23.55
-22.57
-18.64
-12.48
-5.60
0.16
3.15
2.38
-2.22
-9.81
-18.85
-27.46
-33.82
-36.59
-35.23
-30.11
-22.39
-13.69
-5.66
0.36
3.61
3.99
1.98
-1.46
-5.17
-8.04
-9.28
-8.59
-6.19
-2.66
1.32
5.11
8.24
10.36
11.24
10.79
9.05
6.32
3.05
-0.16
-2.76
-4.34
-4.69
-3.85
-2.15
-0.09
1.71
2.73
2.72
1.80
0.39
-0.99
-2.02
-2.74
-3.45
-4.52
-6.09
-7.93
-9.61
-10.70
-11.02
-10.65
-9.84
-8.75
-7.40
-5.70
-3.72
-1.78
-0.44
-0.26
-1.52
-4.07
-7.34
-10.59
-13.27
-15.14
-16.30
-17.00
-17.35
-17.28
-16.56
-15.04
-12.82
-10.35
-8.25
-7.10
-7.23
-8.54
-10.63
-12.95
-15.06
-16.70
-17.84
-18.60
-19.19
-19.84
-20.72
-21.86
-23.10
-24.16
-24.72
-24.66
-24.08
-23.29
-22.55
-21.85
-20.78
-18.71
-15.19
-10.26
-4.60
0.65
4.42
6.14
5.94
4.52
2.75
1.29
0.41
0.01
-0.05
0.18
0.87
2.22
4.34
7.08
10.07
12.83
14.98
16.33
16.95
17.04
16.84
16.49
16.00
15.27
14.15
12.57
10.58
8.45
6.53
5.19
4.64
4.93
5.96
7.69
10.15
13.44
17.53
22.13
26.64
30.21
32.10
31.86
29.58
25.76
21.19
16.67
12.86
10.13
8.59
8.14
8.60
9.82
11.76
14.42
17.72
21.28
24.28
25.49
23.59
17.57
7.19
-6.79
-22.74
-38.46
-51.73
-60.77
-64.48
-62.56
-55.47
-44.21
-30.23
-15.19
-0.72
11.71
21.04
26.63
28.29
26.20
20.78
12.60
2.29
-9.54
-22.24
-35.04
-47.06
-57.27
-64.64
-68.27
-67.70
-63.03
-55.11
-45.29
-35.25
-26.53
-20.18
-16.48
-15.02
-14.95
-15.48
-16.20
-17.18
-18.72
-21.02
-23.91
-26.80
-28.85
-29.08
-26.58
-20.67
-11.06
1.85
16.87
32.16
45.68
55.80
61.84
64.18
63.88
62.14
59.74
56.86
53.19
48.37
42.36
35.57
28.83
23.09
19.06
16.98
16.51
17.02
17.79
18.31
18.40
18.05
17.32
16.20
14.56
12.29
9.42
6.20
2.99
0.18
-2.02
-3.67
-5.00
-6.26
-7.54
-8.67
-9.38
-9.46
-8.97
-8.23
-7.64
-7.42
-7.51
-7.58
-7.29
-6.35
-4.72
-2.46
0.23
3.10
5.83
8.03
9.35
9.58
8.83
7.44
5.95
4.90
4.69
5.44
7.00
8.90
10.46
11.00
10.06
7.64
4.31
0.96
-1.49
-2.40
-1.61
0.65
3.91
7.74
11.81
15.88
19.67
22.80
24.73
25.00
23.42
20.27
16.22
12.16
8.82
6.60
5.57
5.67
6.73
8.56
10.74
12.55
13.11
11.70
8.17
3.11
-2.39
-7.24
-10.84
-13.40
-15.65
-18.33
-21.65
-25.04
-27.40
-27.59
-25.03
-20.02
-13.74
-7.81
-3.73
-2.35
-3.71
-7.10
-11.51
-16.00
-20.01
-23.43
-26.43
-29.21
-31.75
-33.69
-34.52
-33.79
-31.34
-27.41
-22.52
-17.25
-12.05
-7.27
-3.18
-0.18
1.32
1.07
-0.78
-3.58
-6.38
-8.26
-8.72
-7.75
-5.71
-3.01
-0.05
2.89
5.45
7.26
7.87
7.03
4.73
1.31
-2.63
-6.44
-9.60
-11.91
-13.52
-14.76
-15.93
-16.98
-17.51
-16.89
-14.67
-10.85
-5.96
-0.81
3.90
7.73
10.52
12.15
12.31
10.68
7.21
2.40
-2.81
-7.33
-10.56
-12.56
-13.96
-15.32
-16.70
-17.31
-15.82
-10.94
-2.03
10.46
25.07
39.66
52.03
60.33
63.38
60.59
51.92
37.84
19.49
-1.30
-22.10
-40.40
-54.13
-62.23
-64.68
-62.26
-56.16
-47.66
-38.06
-28.71
-20.89
-15.49
-12.63
-11.47
-10.54
-8.34
-4.02
2.25
9.43
16.05
20.76
22.62
21.33
17.18
11.06
4.37
-1.32
-4.67
-5.01
-2.66
1.29
5.44
8.74
10.85
12.13
13.23
14.62
16.32
17.91
18.90
18.96
18.13
16.70
15.08
13.65
12.73
12.55
13.29
15.03
17.75
21.26
25.20
29.11
32.40
34.47
34.75
32.82
28.54
22.22
14.64
6.92
0.29
-4.40
-6.89
-7.66
-7.72
-8.20
-9.97
-13.28
-17.74
-22.52
-26.65
-29.29
-29.93
-28.38
-24.78
-19.56
-13.33
-6.83
-0.83
4.10
7.74
10.28
12.30
14.56
17.66
21.73
26.26
30.18
32.20
31.31
27.07
19.70
9.96
-1.18
-12.68
-23.55
-32.69
-39.00
-41.57
-40.10
-35.12
-27.94
-20.28
-13.60
-8.75
-5.82
-4.46
-4.28
-5.05
-6.69
-9.02
-11.59
-13.71
-14.73
-14.22
-12.25
-9.19
-5.55
-1.70
2.06
5.49
8.28
10.00
10.21
8.75
5.82
1.93
-2.26
-6.19
-9.53
-12.27
-14.60
-16.78
-18.90
-20.77
-21.89
-21.63
-19.60
-15.95
-11.52
-7.57
-5.28
-5.13
-6.63
-8.59
-9.67
-8.97
-6.35
-2.21
2.83
8.35
14.07
19.71
24.72
28.23
29.34
27.64
23.50
18.03
12.50
7.77
3.72
-0.63
-6.59
-14.89
-25.11
-35.67
-44.46
-49.68
-50.59
-47.67
-42.28
-35.96
-29.91
-24.79
-20.78
-17.88
-16.05
-15.24
-15.33
-15.99
-16.83
-17.40
-17.37
-16.53
-14.75
-11.95
-8.12
-3.34
2.23
8.34
14.62
20.62
25.77
29.46
31.23
30.97
29.14
26.69
24.87
24.72
26.67
30.50
35.49
40.83
45.96
50.61
54.72
58.19
60.77
62.09
61.89
60.14
57.11
53.30
49.20
45.06
40.77
35.85
29.71
22.09
13.39
4.76
-2.36
-6.86
-8.56
-8.40
-7.87
-8.35
-10.34
-13.32
-16.14
-17.76
-17.85
-16.85
-15.68
-15.07
-15.22
-15.71
-15.86
-15.24
-13.97
-12.64
-12.02
-12.61
-14.32
-16.45
-18.10
-18.51
-17.36
-14.82
-11.29
-7.12
-2.57
2.26
7.15
11.74
15.52
18.05
19.12
18.76
17.11
14.28
10.41
5.79
1.11
-2.62
-4.46
-3.93
-1.37
2.18
5.55
7.91
9.13
9.56
9.62
9.40
8.64
7.04
4.65
2.02
-0.02
-0.85
-0.44
0.63
1.34
0.75
-1.64
-5.60
-10.31
-14.69
-17.79
-19.13
-18.78
-17.15
-14.71
-11.73
-8.24
-4.12
0.58
5.56
10.29
14.21
16.87
18.11
17.96
16.56
14.11
10.80
6.92
2.94
-0.52
-2.87
-3.83
-3.70
-3.42
-4.27
-7.34
-12.86
-20.06
-27.33
-32.93
-35.68
-35.31
-32.40
-27.91
-22.73
-17.47
-12.53
-8.32
-5.32
-3.96
-4.35
-6.06
-8.19
-9.73
-9.96
-8.81
-6.78
-4.61
-2.80
-1.33
0.30
2.71
6.20
10.46
14.65
17.81
19.28
18.97
17.40
15.34
13.51
12.37
12.05
12.47
13.54
15.20
17.43
20.10
22.87
25.17
26.35
25.96
23.99
20.99
17.78
15.13
13.32
12.06
10.73
8.76
6.03
2.90
-0.06
-2.50
-4.53
-6.55
-8.93
-11.62
-14.14
-15.81
-16.12
-15.10
-13.26
-11.35
-10.02
-9.60
-10.01
-10.94
-12.00
-12.88
-13.46
-13.79
-14.03
-14.30
-14.56
-14.65
-14.34
-13.56
-12.43
-11.23
-10.28
-9.76
-9.63
-9.71
-9.79
-9.76
-9.57
-9.21
-8.67
-7.96
-7.18
-6.60
-6.46
-6.92
-7.85
-8.91
-9.69
-9.86
-9.31
-8.10
-6.40
-4.35
-2.10
0.22
2.44
4.31
5.58
6.10
5.86
5.06
3.96
2.83
1.84
1.02
0.36
-0.19
-0.63
-0.92
-1.03
-1.00
-0.93
-0.95
-1.13
-1.52
-2.05
-2.65
-3.24
-3.75
-4.08
-4.20
-4.09
-3.89
-3.83
-4.18
-5.21
-7.02
-9.55
-12.53
-15.47
-17.87
-19.28
-19.42
-18.36
-16.45
-14.24
-12.27
-10.90
-10.24
-10.19
-10.56
-11.27
-12.39
-14.12
-16.72
-20.30
-24.82
-29.94
-35.13
-39.82
-43.62
-46.53
-48.97
-51.66
-55.22
-59.86
-65.15
-70.27
-74.32
-76.90
-78.42
-79.94
-82.87
-88.35
-96.79
-107.71
-119.76
-130.98
-139.21
-142.61
-140.23
-132.45
-121.07
-108.94
-99.09
-93.61
-92.82
-95.13
-97.52
-96.64
-89.75
-75.42
-53.56
-24.95
9.34
48.56
92.66
142.07
196.90
255.78
314.98
368.49
409.45
432.45
435.60
421.39
395.69
365.42
336.14
310.62
289.12
270.67
254.62
241.26
231.24
224.64
220.20
215.65
208.90
199.22
187.83
177.36
170.32
167.50
167.28
166.02
159.70
145.63
123.47
95.02
63.10
29.98
-3.52
-37.98
-74.31
-112.45
-150.52
-184.98
-211.67
-227.33
-230.70
-222.89
-206.71
-185.55
-162.22
-138.47
-115.02
-91.97
-69.09
-45.92
-21.73
4.29
32.71
63.37
95.22
126.50
155.04
178.46
194.29
200.31
195.48
181.26
162.37
146.09
139.80
147.69
168.46
195.38
219.15
231.91
230.48
217.00
197.01
176.37
158.64
144.36
132.15
120.29
107.74
94.29
79.69
62.92
42.13
15.88
-15.16
-47.06
-73.31
-87.38
-86.00
-71.41
-50.91
-33.84
-27.41
-33.60
-48.90
-66.73
-80.99
-88.70
-90.43
-88.72
-85.98
-83.06
-79.36
-73.89
-66.44
-58.22
-51.62
-49.52
-54.23
-66.78
-86.71
-112.42
-142.09
-174.33
-208.79
-246.17
-287.60
-334.10
-386.38
-445.00
-510.29
-581.68
-656.50
-729.08
-791.08
-833.47
-849.64
-837.94
-802.40
-751.08
-692.89
-634.63
-579.72
-528.76
-481.34
-437.41
-397.65
-362.72
-332.29
-304.69
-277.51
-248.70
-217.48
-184.55
-151.82
-121.33
-94.34
-70.79
-49.34
-27.92
-4.70
21.17
49.18
77.65
104.52
128.16
148.16
165.45
181.95
199.76
220.29
243.65
268.72
293.81
317.39
338.88
358.90
378.93
400.93
426.96
459.16
499.36
548.15
603.57
660.16
709.35
741.68
750.05
732.42
692.60
638.54
579.04
520.63
466.09
415.06
365.81
316.98
268.25
219.88
171.98
123.92
74.69
23.53
-29.57
-83.83
-138.00
-191.38
-244.46
-298.88
-356.45
-417.52
-479.78
-538.25
-586.65
-619.54
-634.20
-631.19
-613.43
-584.62
-547.90
-505.49
-459.14
-410.81
-362.79
-317.17
-275.01
-235.90
-198.31
-160.55
-121.73
-82.07
-42.38
-3.34
35.16
73.73
112.54
150.32
184.14
210.21
225.77
230.15
224.88
212.21
193.16
166.88
132.07
89.49
43.71
2.70
-25.00
-33.83
-23.72
0.07
29.43
56.64
76.72
87.82
90.13
84.35
71.07
51.22
27.14
3.30
-14.34
-20.33
-12.29
7.08
30.02
46.54
49.00
35.97
13.35
-9.18
-23.69
-28.63
-29.41
-34.87
-51.44
-79.16
-111.60
-139.62
-156.24
-159.43
-151.76
-137.40
-119.16
-97.33
-70.87
-39.48
-4.88
29.51
60.29
85.78
106.70
125.63
145.61
168.72
195.13
223.09
249.61
271.64
287.04
295.17
296.68
292.93
285.28
274.59
261.23
245.39
227.46
208.24
188.79
170.12
152.76
136.64
121.32
106.37
91.68
77.53
64.50
53.10
43.68
36.43
31.53
29.20
29.64
32.84
38.51
46.12
55.03
64.72
74.70
84.55
93.75
101.78
108.42
113.94
119.18
125.32
133.33
143.61
155.73
168.75
181.64
193.57
203.94
212.13
217.17
217.75
212.55
200.73
182.38
158.70
131.66
103.41
75.76
49.67
25.25
1.84
-21.76
-47.17
-76.31
-111.10
-152.67
-200.24
-250.17
-295.94
-329.46
-343.57
-334.75
-304.64
-259.72
-209.12
-161.73
-123.86
-98.19
-84.24
-79.55
-80.93
-85.27
-89.88
-92.56
-91.84
-87.12
-78.96
-69.03
-59.94
-54.47
-54.70
-61.07
-72.02
-84.42
-94.68
-100.17
-100.20
-95.99
-89.80
-83.76
-78.99
-75.45
-72.42
-69.05
-64.86
-59.73
-53.88
-47.65
-41.52
-35.96
-31.41
-28.01
-25.63
-23.87
-22.34
-20.93
-19.88
-19.54
-20.02
-20.95
-21.46
-20.53
-17.42
-12.01
-4.93
2.68
9.61
14.86
17.98
19.00
18.39
16.74
14.59
12.36
10.34
8.76
7.77
7.41
7.59
7.97
8.12
7.57
6.13
3.95
1.47
-0.70
-2.06
-2.34
-1.58
-0.08
1.66
3.10
3.78
3.40
1.89
-0.60
-3.71
-6.97
-9.86
-11.93
-12.93
-12.78
-11.66
-9.82
-7.60
-5.33
-3.28
-1.63
-0.50
0.11
0.27
0.12
-0.12
-0.27
-0.17
0.23
0.89
1.68
2.39
2.78
2.70
2.20
1.51
0.90
0.64
0.75
1.06
1.28
1.17
0.69
0.01
-0.55
-0.78
-0.66
-0.48
-0.67
-1.57
-3.21
-5.28
-7.25
-8.64
-9.18
-8.91
-8.04
-6.76
-5.12
-3.10
-0.79
1.49
3.26
4.12
3.96
3.16
2.34
2.03
2.39
3.10
3.64
3.66
3.18
2.62
2.47
2.99
3.98
4.98
5.50
5.38
4.86
4.43
4.46
5.05
5.95
6.76
7.11
6.83
5.95
4.57
2.84
0.92
-0.98
-2.59
-3.67
-4.02
-3.65
-2.73
-1.52
-0.27
0.85
1.81
2.59
3.21
3.66
3.96
4.18
4.43
4.77
5.20
5.52
5.48
4.83
3.53
1.79
-0.03
-1.54
-2.54
-3.07
-3.35
-3.71
-4.34
-5.26
-6.30
-7.18
-7.63
-7.50
-6.82
-5.88
-5.10
-4.99
-5.88
-7.77
-10.31
-12.89
-14.83
-15.57
-14.85
-12.72
-9.52
-5.83
-2.38
0.12
1.17
0.67
-1.00
-3.16
-5.05
-6.16
-6.43
-6.10
-5.47
-4.69
-3.67
-2.26
-0.51
1.27
2.61
3.21
3.15
3.03
3.55
5.12
7.62
10.37
12.61
13.85
14.15
13.94
13.65
13.32
12.63
11.12
8.56
5.16
1.57
-1.47
-3.40
-4.03
-3.60
-2.56
-1.45
-0.73
-0.68
-1.36
-2.57
-4.03
-5.45
-6.70
-7.90
-9.30
-11.08
-13.22
-15.46
-17.42
-18.78
-19.51
-19.90
-20.46
-21.67
-23.79
-26.76
-30.24
-33.79
-37.06
-39.91
-42.49
-45.16
-48.39
-52.55
-57.62
-63.08
-67.94
-71.00
-71.21
-67.93
-60.99
-50.55
-37.03
-21.17
-4.21
12.25
26.62
38.11
47.16
55.31
64.40
75.46
88.00
100.20
109.85
115.52
117.13
115.70
112.45
108.09
102.44
94.93
85.21
73.56
60.82
47.82
35.09
22.75
10.84
-0.19
-9.38
-15.58
-18.12
-17.28
-14.37
-11.17
-9.17
-9.01
-10.37
-12.28
-13.79
-14.30
-13.73
-12.34
-10.47
-8.41
-6.34
-4.44
-2.89
-1.87
-1.50
-1.77
-2.47
-3.25
-3.65
-3.23
-1.76
0.72
3.85
7.05
9.79
11.73
12.89
13.56
14.18
15.09
16.44
18.13
19.95
21.62
22.97
23.97
24.61
24.92
24.86
24.35
23.38
22.15
21.04
20.53
21.01
22.55
24.83
27.22
29.07
30.03
30.23
30.11
30.17
30.61
31.17
31.30
30.47
28.40
25.23
21.34
17.20
13.11
9.20
5.45
1.88
-1.44
-4.37
-6.80
-8.87
-10.93
-13.45
-16.85
-21.28
-26.47
-31.74
-36.28
-39.42
-40.96
-41.24
-40.90
-40.61
-40.57
-40.48
-39.62
-37.30
-33.30
-27.99
-22.23
-16.97
-12.79
-9.69
-7.20
-4.63
-1.49
2.31
6.39
10.09
12.68
13.69
13.06
11.12
8.46
5.63
2.91
0.30
-2.38
-5.25
-8.25
-11.09
-13.55
-15.54
-17.24
-18.89
-20.62
-22.36
-23.93
-25.22
-26.33
-27.45
-28.68
-29.84
-30.45
-30.00
-28.14
-24.88
-20.58
-15.75
-10.84
-6.20
-2.06
1.34
3.80
5.22
5.70
5.58
5.32
5.34
5.78
6.49
7.11
7.31
6.93
6.09
5.08
4.20
3.60
3.19
2.75
2.08
1.15
0.09
-0.84
-1.51
-1.96
-2.40
-2.99
-3.71
-4.33
-4.58
-4.47
-4.33
-4.75
-6.17
-8.56
-11.29
-13.37
-13.97
-12.81
-10.32
-7.43
-4.98
-3.41
-2.54
-1.88
-1.02
0.10
1.14
1.64
1.34
0.39
-0.68
-1.30
-1.19
-0.50
0.32
0.73
0.55
-0.03
-0.50
-0.31
0.77
2.55
4.47
5.87
6.24
5.46
3.79
1.76
-0.18
-1.77
-3.07
-4.30
-5.69
-7.25
-8.85
-10.21
-11.13
-11.57
-11.61
-11.33
-10.79
-9.87
-8.47
-6.53
-4.22
-1.86
0.15
1.47
1.93
1.56
0.57
-0.72
-1.98
-2.87
-3.17
-2.69
-1.41
0.51
2.79
5.07
7.02
8.42
9.24
9.59
9.64
9.51
9.27
8.90
8.39
7.76
7.05
6.34
5.68
5.10
4.60
4.16
3.69
3.04
2.07
0.70
-0.95
-2.59
-3.84
-4.37
-4.07
-3.03
-1.57
-0.03
1.27
2.15
2.56
2.57
2.34
2.07
1.86
1.77
1.74
1.70
1.68
1.80
2.27
3.24
4.74
6.57
8.44
10.04
11.16
11.73
11.74
11.23
10.30
9.07
7.75
6.58
5.71
5.15
4.73
4.14
3.07
1.39
-0.83
-3.29
-5.65
-7.62
-9.02
-9.73
-9.68
-8.82
-7.15
-4.85
-2.26
0.22
2.21
3.50
4.07
4.06
3.72
3.29
2.96
2.86
3.07
3.60
4.34
5.15
5.85
6.35
6.60
6.63
6.54
6.37
6.15
5.83
5.35
4.64
3.71
2.68
1.75
1.10
0.81
0.79
0.87
0.86
0.64
0.22
-0.36
-1.04
-1.80
-2.63
-3.42
-4.02
-4.26
-4.10
-3.67
-3.23
-3.04
-3.21
-3.63
-4.03
-4.14
-3.78
-2.98
-1.91
-0.81
0.11
0.77
1.19
1.47
1.74
2.05
2.36
2.54
2.42
1.96
1.23
0.39
-0.41
-1.10
-1.75
-2.44
-3.16
-3.76
-3.97
-3.56
-2.54
-1.19
-0.06
0.33
-0.37
-2.10
-4.44
-6.72
-8.35
-8.94
-8.40
-6.95
-4.94
-2.73
-0.60
1.24
2.63
3.43
3.55
3.00
1.96
0.73
-0.29
-0.84
-0.85
-0.51
-0.16
-0.10
-0.44
-1.01
-1.53
-1.70
-1.44
-0.89
-0.36
-0.15
-0.39
-0.98
-1.72
-2.35
-2.68
-2.67
-2.34
-1.80
-1.20
-0.72
-0.58
-0.98
-1.96
-3.33
-4.73
-5.74
-6.05
-5.64
-4.73
-3.66
-2.70
-1.93
-1.22
-0.45
0.36
1.03
1.29
1.05
0.44
-0.15
-0.36
0.05
0.96
2.11
3.15
3.83
4.10
4.03
3.75
3.42
3.15
2.99
2.98
3.10
3.32
3.58
3.79
3.82
3.49
2.59
0.97
-1.35
-4.09
-6.78
-8.90
-9.95
-9.71
-8.19
-5.68
-2.68
0.24
2.58
4.01
4.52
4.39
4.04
3.84
3.97
4.41
5.01
5.61
6.11
6.46
6.65
6.68
6.57
6.40
6.28
6.30
6.49
6.80
7.13
7.37
7.40
7.14
6.55
5.65
4.51
3.25
1.97
0.67
-0.67
-2.17
-3.87
-5.74
-7.61
-9.18
-10.15
-10.28
-9.48
-7.85
-5.64
-3.21
-0.96
0.78
1.78
2.02
1.68
1.06
0.47
0.20
0.36
0.97
1.86
2.78
3.42
3.55
3.12
2.25
1.25
0.43
-0.00
-0.09
-0.03
-0.08
-0.37
-0.81
-1.18
-1.24
-0.94
-0.45
-0.07
-0.11
-0.74
-1.98
-3.69
-5.64
-7.53
-8.97
-9.68
-9.44
-8.29
-6.52
-4.57
-2.85
-1.61
-0.86
-0.48
-0.35
-0.39
-0.55
-0.76
-0.86
-0.64
0.01
0.99
2.06
2.88
3.29
3.31
3.18
3.10
3.18
3.32
3.34
3.13
2.64
1.96
1.14
0.21
-0.83
-1.92
-2.94
-3.70
-4.13
-4.33
-4.59
-5.23
-6.43
-8.03
-9.62
-10.68
-10.82
-9.97
-8.33
-6.31
-4.29
-2.55
-1.18
-0.13
0.67
1.31
1.80
2.19
2.57
3.05
3.74
4.61
5.53
6.25
6.52
6.21
5.39
4.28
3.20
2.43
2.13
2.30
2.79
3.38
3.86
4.06
3.88
3.36
2.60
1.77
1.02
0.38
-0.24
-0.98
-2.04
-3.43
-5.06
-6.60
-7.67
-7.97
-7.38
-6.05
-4.24
-2.27
-0.29
1.65
3.52
5.26
6.64
7.41
7.40
6.65
5.48
4.34
3.60
3.48
3.85
4.44
4.92
5.03
4.76
4.26
3.78
3.49
3.48
3.63
3.75
3.71
3.46
3.06
2.64
2.26
1.90
1.42
0.69
-0.42
-1.90
-3.68
-5.60
-7.44
-8.95
-9.87
-9.98
-9.18
-7.55
-5.35
-2.91
-0.52
1.64
3.50
5.03
6.18
6.88
7.10
6.93
6.57
6.32
6.39
6.79
7.34
7.74
7.73
7.23
6.35
5.31
4.34
3.52
2.79
2.06
1.23
0.31
-0.57
-1.19
-1.40
-1.17
-0.69
-0.30
-0.38
-1.15
-2.62
-4.55
-6.55
-8.20
-9.15
-9.24
-8.51
-7.15
-5.43
-3.67
-2.09
-0.82
0.09
0.67
0.94
0.95
0.75
0.46
0.25
0.33
0.80
1.62
2.60
3.47
3.98
4.03
3.60
2.82
1.89
0.99
0.29
-0.16
-0.43
-0.73
-1.27
-2.19
-3.42
-4.75
-5.85
-6.49
-6.58
-6.26
-5.81
-5.52
-5.66
-6.39
-7.73
-9.56
-11.61
-13.48
-14.78
-15.22
-14.73
-13.45
-11.64
-9.59
-7.54
-5.67
-4.13
-2.98
-2.26
-1.90
-1.72
-1.51
-1.10
-0.36
0.73
2.09
3.62
5.13
6.42
7.32
7.74
7.68
7.27
6.64
5.90
5.08
4.22
3.35
2.60
2.17
2.21
2.81
3.88
5.17
6.38
7.21
7.51
7.26
6.65
5.95
5.40
5.11
5.05
5.07
4.99
4.71
4.25
3.74
3.32
3.08
3.03
3.10
3.16
3.15
3.05
2.92
2.81
2.75
2.69
2.56
2.29
1.87
1.36
0.82
0.25
-0.38
-1.12
-1.93
-2.71
-3.32
-3.65
-3.77
-3.89
-4.33
-5.35
-7.03
-9.15
-11.33
-13.07
-13.98
-13.90
-12.85
-11.05
-8.74
-6.20
-3.66
-1.37
0.47
1.71
2.31
2.37
2.12
1.77
1.45
1.15
0.84
0.50
0.24
0.19
0.51
1.23
2.22
3.25
4.11
4.66
4.87
4.85
4.72
4.54
4.28
3.85
3.19
2.35
1.52
1.02
1.06
1.63
2.42
2.92
2.66
1.43
-0.59
-2.93
-5.02
-6.41
-6.89
-6.47
-5.29
-3.53
-1.42
0.76
2.71
4.17
4.99
5.17
4.87
4.29
3.64
3.03
2.54
2.21
2.10
2.20
2.44
2.63
2.55
2.09
1.28
0.39
-0.23
-0.32
0.14
0.87
1.45
1.49
0.89
-0.14
-1.20
-1.95
-2.34
-2.61
-3.09
-4.02
-5.37
-6.86
-8.17
-9.01
-9.22
-8.80
-7.76
-6.13
-3.99
-1.57
0.80
2.71
3.84
4.07
3.49
2.39
1.15
0.08
-0.59
-0.80
-0.66
-0.39
-0.28
-0.52
-1.11
-1.90
-2.70
-3.31
-3.71
-3.96
-4.14
-4.28
-4.37
-4.38
-4.41
-4.62
-5.11
-5.82
-6.54
-6.98
-7.00
-6.74
-6.58
-6.89
-7.85
-9.26
-10.62
-11.40
-11.24
-10.19
-8.60
-6.98
-5.72
-4.90
-4.30
-3.54
-2.31
-0.50
1.67
3.90
5.89
7.52
8.82
9.90
10.79
11.44
11.72
11.56
10.93
9.90
8.60
7.15
5.69
4.39
3.39
2.80
2.56
2.48
2.26
1.63
0.42
-1.33
-3.41
-5.55
-7.49
-8.98
-9.83
-9.89
-9.08
-7.46
-5.21
-2.64
-0.06
2.29
4.31
6.00
7.40
8.53
9.35
9.77
9.71
9.18
8.27
7.20
6.18
5.40
4.90
4.59
4.27
3.81
3.16
2.45
1.82
1.36
1.03
0.72
0.31
-0.15
-0.47
-0.46
-0.09
0.35
0.35
-0.57
-2.66
-5.72
-9.16
-12.26
-14.39
-15.22
-14.70
-13.02
-10.46
-7.35
-4.03
-0.81
2.08
4.54
6.62
8.43
10.05
11.41
12.37
12.83
12.82
12.50
12.11
11.80
11.55
11.22
10.67
9.86
8.90
8.01
7.34
6.94
6.73
6.49
6.06
5.35
4.45
3.51
2.64
1.85
0.97
-0.24
-1.98
-4.26
-6.91
-9.61
-12.04
-13.98
-15.33
-16.07
-16.18
-15.61
-14.33
-12.41
-10.02
-7.43
-4.90
-2.57
-0.49
1.40
3.16
4.80
6.29
7.50
8.36
8.78
8.76
8.32
7.59
6.70
5.79
4.96
4.20
3.42
2.48
1.26
-0.31
-2.18
-4.23
-6.24
-7.94
-9.16
-9.80
-9.96
-9.87
-9.82
-10.00
-10.44
-10.98
-11.37
-11.38
-10.91
-10.00
-8.78
-7.40
-6.01
-4.69
-3.51
-2.51
-1.69
-0.96
-0.22
0.65
1.72
2.97
4.31
5.57
6.59
7.21
7.35
7.02
6.36
5.57
4.88
4.41
4.17
4.06
3.95
3.79
3.57
3.37
3.23
3.11
2.91
2.56
2.09
1.58
1.10
0.67
0.20
-0.48
-1.49
-2.75
-3.97
-4.75
-4.63
-3.39
-1.05
2.08
5.59
9.08
12.29
15.15
17.70
19.93
21.74
22.96
23.37
22.83
21.20
18.48
14.68
9.87
4.13
-2.43
-9.66
-17.29
-24.75
-31.22
-35.75
-37.69
-37.01
-34.49
-31.55
-29.60
-29.49
-31.12
-33.64
-36.00
-37.50
-38.13
-38.39
-38.90
-39.88
-40.94
-41.11
-39.24
-34.43
-26.31
-15.16
-1.70
13.13
28.35
43.11
56.61
68.06
76.78
82.29
84.50
83.75
80.68
76.00
70.18
63.44
55.86
47.49
38.48
29.01
19.26
9.39
-0.34
-9.46
-17.36
-23.42
-27.33
-29.17
-29.36
-28.51
-27.04
-25.18
-23.02
-20.71
-18.57
-17.03
-16.41
-16.73
-17.63
-18.53
-18.94
-18.63
-17.65
-16.26
-14.69
-13.10
-11.58
-10.20
-9.04
-8.16
-7.47
-6.68
-5.43
-3.42
-0.60
2.73
6.04
8.74
10.41
10.97
10.60
9.63
8.28
6.64
4.66
2.43
0.25
-1.34
-1.81
-0.95
1.03
3.49
5.63
6.91
7.17
6.66
5.89
5.35
5.33
5.93
7.05
8.53
10.19
11.84
13.30
14.32
14.61
13.89
12.04
9.27
6.07
3.16
1.17
0.42
0.80
1.87
3.18
4.48
5.90
7.85
10.79
14.91
20.02
25.52
30.62
34.55
36.76
36.90
34.77
30.27
23.45
14.66
4.63
-5.52
-14.53
-21.47
-26.02
-28.54
-29.83
-30.66
-31.35
-31.74
-31.39
-29.93
-27.34
-24.03
-20.67
-17.86
-15.93
-14.81
-14.18
-13.66
-12.96
-12.00
-10.93
-9.97
-9.34
-9.14
-9.29
-9.51
-9.44
-8.76
-7.35
-5.35
-3.12
-1.07
0.44
1.30
1.58
1.55
1.46
1.50
1.78
2.29
2.96
3.64
4.09
4.13
3.72
3.00
2.25
1.73
1.51
1.46
1.40
1.20
0.95
0.84
1.01
1.36
1.51
1.05
-0.26
-2.31
-4.65
-6.77
-8.31
-9.23
-9.77
-10.32
-11.24
-12.75
-14.83
-17.35
-20.03
-22.59
-24.76
-26.28
-26.99
-26.82
-25.84
-24.18
-22.07
-19.76
-17.47
-15.44
-13.90
-13.03
-13.00
-13.90
-15.70
-18.19
-21.05
-23.79
-25.95
-27.09
-27.02
-25.79
-23.70
-21.28
-19.01
-17.14
-15.58
-13.90
-11.55
-8.12
-3.51
1.99
7.92
13.87
19.65
25.16
30.22
34.41
37.02
37.34
35.00
30.16
23.53
16.13
9.03
3.14
-0.98
-3.17
-3.74
-3.47
-3.43
-4.72
-8.05
-13.50
-20.42
-27.72
-34.21
-38.90
-41.20
-40.84
-37.85
-32.54
-25.54
-17.84
-10.59
-4.84
-1.20
0.17
-0.52
-3.01
-7.17
-13.01
-20.39
-28.90
-37.78
-46.27
-53.95
-60.94
-67.87
-75.62
-84.93
-96.09
-108.55
-120.46
-128.59
-128.87
-117.66
-93.54
-58.58
-18.17
20.58
51.54
71.86
82.62
87.34
89.61
91.12
91.54
90.01
86.97
84.92
87.36
96.80
113.01
132.82
151.56
165.30
172.47
173.87
171.46
166.51
158.51
145.48
125.35
97.59
64.21
29.54
-1.06
-22.81
-32.86
-30.76
-18.19
1.76
25.36
48.71
68.00
79.82
81.65
72.38
52.73
25.15
-6.74
-38.98
-68.04
-91.54
-108.59
-119.74
-126.55
-130.62
-132.46
-130.89
-123.06
-105.43
-75.06
-30.75
26.20
92.04
161.09
226.72
282.44
323.14
345.98
350.99
340.81
319.85
293.03
264.66
237.65
213.46
192.39
174.08
157.88
143.11
129.17
115.57
102.03
88.50
75.20
62.73
51.91
43.57
38.24
35.90
35.93
37.37
39.20
40.64
41.06
39.85
36.16
29.07
18.01
3.22
-13.91
-31.20
-46.49
-58.64
-68.11
-76.68
-86.40
-98.35
-111.97
-125.31
-136.11
-143.05
-146.24
-147.00
-146.92
-147.27
-148.80
-152.18
-158.41
-168.63
-183.46
-202.24
-222.66
-241.39
-255.18
-261.88
-261.03
-253.61
-241.39
-226.39
-210.49
-195.40
-182.51
-172.69
-165.97
-161.32
-156.93
-150.78
-141.35
-128.17
-111.98
-94.28
-76.68
-60.21
-44.94
-30.14
-14.84
1.44
18.30
34.51
48.52
59.28
66.72
71.81
76.16
81.26
87.87
95.68
103.15
107.67
105.96
94.76
71.82
37.04
-6.89
-54.60
-99.05
-133.39
-152.66
-155.11
-142.32
-118.51
-89.18
-59.79
-34.69
-16.63
-6.63
-4.16
-7.56
-14.51
-22.59
-29.77
-34.82
-37.47
-38.36
-38.70
-39.83
-42.73
-47.67
-54.29
-61.67
-68.81
-74.88
-79.46
-82.44
-83.90
-83.91
-82.44
-79.52
-75.20
-69.35
-61.40
-50.13
-34.01
-11.99
15.60
46.58
77.33
103.93
123.51
135.10
139.50
138.51
134.00
127.36
119.36
110.48
101.18
92.01
83.62
76.62
71.42
68.08
66.31
65.55
65.32
65.57
66.76
69.55
74.28
80.49
86.91
91.93
94.41
94.22
92.22
89.74
87.90
87.13
87.14
87.30
87.02
85.96
84.03
81.33
78.08
74.64
71.61
69.71
69.68
71.95
76.50
82.87
90.32
98.11
105.66
112.51
118.33
122.83
125.84
127.38
127.75
127.39
126.68
125.78
124.43
122.06
117.84
110.91
100.62
86.75
69.75
50.83
31.85
15.06
2.48
-4.57
-5.94
-2.64
3.45
10.08
15.28
17.47
15.46
8.29
-4.59
-22.67
-43.80
-64.14
-78.94
-83.97
-77.02
-58.49
-30.92
2.19
37.64
73.10
106.83
137.11
162.14
180.46
191.82
197.59
200.16
201.62
202.56
201.65
196.40
184.59
165.67
141.08
113.63
86.05
59.82
34.69
9.19
-18.39
-49.02
-82.55
-118.17
-154.78
-191.64
-228.47
-265.37
-302.77
-341.64
-383.76
-431.41
-486.20
-547.00
-608.89
-663.29
-700.32
-712.45
-697.29
-658.19
-602.41
-538.36
-473.45
-413.60
-363.61
-327.36
-306.90
-301.02
-304.59
-309.79
-308.96
-297.67
-276.18
-248.47
-219.67
-193.72
-171.97
-153.56
-136.57
-119.09
-99.71
-77.52
-52.09
-23.48
7.66
40.49
74.00
107.54
140.98
174.91
210.60
249.79
294.00
343.42
395.89
446.57
488.81
516.24
525.07
515.53
491.68
459.59
425.02
391.63
360.61
331.56
303.81
277.26
252.35
229.49
208.45
188.34
168.14
147.34
126.32
106.21
88.47
74.15
63.42
55.57
49.31
43.32
36.75
29.44
21.80
14.54
8.23
3.11
-0.95
-4.28
-7.18
-9.81
-12.22
-14.34
-16.12
-17.56
-18.68
-19.46
-19.88
-19.95
-19.76
-19.52
-19.50
-19.93
-20.85
-22.10
-23.36
-24.32
-24.78
-24.81
-24.64
-24.63
-25.07
-26.08
-27.61
-29.44
-31.24
-32.77
-33.86
-34.47
-34.72
-34.77
-34.76
-34.69
-34.40
-33.62
-32.12
-29.97
-27.61
-25.83
-25.50
-27.22
-31.11
-36.72
-43.23
-49.71
-55.31
-59.46
-61.84
-62.50
-61.86
-60.60
-59.33
-58.28
-57.09
-54.92
-51.08
-45.56
-39.43
-34.56
-32.96
-35.75
-42.60
-51.58
-59.84
-64.60
-64.24
-58.92
-50.49
-41.85
-35.86
-34.31
-37.40
-43.83
-51.49
-58.34
-63.02
-65.09
-64.80
-62.58
-58.73
-53.25
-46.08
-37.34
-27.55
-17.53
-8.21
-0.22
6.27
11.53
16.02
20.05
23.64
26.56
28.57
29.62
29.93
29.86
29.73
29.65
29.51
29.06
28.02
26.20
23.56
20.21
16.44
12.64
9.18
6.29
3.98
2.01
0.05
-2.12
-4.46
-6.56
-7.76
-7.42
-5.17
-1.06
4.45
10.65
16.78
22.24
26.62
29.70
31.40
31.72
30.86
29.16
27.08
25.12
23.62
22.67
22.12
21.71
21.21
20.52
19.74
19.05
18.55
18.25
17.99
17.57
16.78
15.56
13.95
12.12
10.21
8.32
6.45
4.50
2.35
-0.08
-2.81
-5.79
-8.98
-12.29
-15.55
-18.49
-20.68
-21.63
-20.96
-18.56
-14.64
-9.69
-4.31
0.97
5.74
9.76
12.90
15.13
16.53
17.29
17.65
17.80
17.81
17.65
17.26
16.70
16.17
15.93
16.16
16.84
17.73
18.52
19.00
19.15
19.10
18.97
18.75
18.26
17.24
15.56
13.29
10.76
8.31
6.21
4.46
2.85
1.11
-0.95
-3.34
-5.94
-8.57
-11.13
-13.57
-15.86
-17.89
-19.39
-19.98
-19.27
-17.05
-13.34
-8.48
-2.98
2.55
7.60
11.83
15.08
17.37
18.79
19.46
19.50
19.03
18.20
17.20
16.25
15.56
15.25
15.40
15.93
16.72
17.60
18.38
18.92
19.11
18.92
18.36
17.46
16.28
14.83
13.10
11.08
8.80
6.36
3.89
1.50
-0.77
-2.99
-5.27
-7.69
-10.28
-13.03
-15.86
-18.72
-21.44
-23.76
-25.26
-25.47
-24.00
-20.79
-16.15
-10.70
-5.16
-0.15
4.01
7.29
9.77
11.57
12.71
13.09
12.67
11.53
9.90
8.17
6.68
5.61
4.97
4.57
4.22
3.80
3.37
3.07
3.05
3.30
3.66
3.84
3.61
2.87
1.68
0.24
-1.25
-2.66
-4.01
-5.35
-6.83
-8.58
-10.69
-13.22
-16.08
-18.95
-21.28
-22.42
-21.82
-19.20
-14.77
-9.08
-2.91
3.01
8.15
12.27
15.32
17.34
18.40
18.53
17.87
16.62
15.09
13.57
12.25
11.20
10.35
9.57
8.80
8.09
7.57
7.36
7.45
7.68
7.76
7.40
6.45
5.00
3.27
1.56
0.07
-1.14
-2.15
-3.17
-4.40
-6.09
-8.41
-11.42
-14.94
-18.51
-21.37
-22.68
-21.82
-18.61
-13.44
-7.13
-0.64
5.26
10.14
13.88
16.57
18.33
19.28
19.50
19.13
18.37
17.41
16.39
15.34
14.21
12.99
11.78
10.74
10.09
9.93
10.19
10.59
10.78
10.46
9.47
7.82
5.69
3.29
0.85
-1.45
-3.53
-5.38
-7.06
-8.76
-10.69
-13.07
-15.91
-18.96
-21.63
-23.16
-22.87
-20.52
-16.36
-11.17
-5.84
-1.12
2.66
5.54
7.71
9.34
10.39
10.74
10.34
9.37
8.19
7.23
6.74
6.73
7.02
7.35
7.59
7.77
8.04
8.55
9.31
10.18
10.91
11.17
10.79
9.70
8.03
6.00
3.84
1.78
-0.10
-1.79
-3.42
-5.14
-7.13
-9.47
-12.10
-14.75
-16.98
-18.24
-18.06
-16.17
-12.63
-7.88
-2.59
2.55
7.00
10.50
13.06
14.81
15.86
16.24
15.94
15.00
13.63
12.10
10.72
9.66
8.93
8.43
8.08
7.87
7.88
8.17
8.69
9.20
9.38
8.93
7.73
5.87
3.62
1.31
-0.84
-2.78
-4.63
-6.65
-9.05
-11.93
-15.25
-18.74
-21.98
-24.38
-25.34
-24.45
-21.56
-16.99
-11.42
-5.69
-0.57
3.46
6.29
8.10
9.17
9.75
9.96
9.85
9.44
8.80
8.01
7.19
6.41
5.71
5.10
4.61
4.29
4.17
4.25
4.43
4.50
4.28
3.66
2.65
1.40
0.06
-1.26
-2.58
-3.99
-5.60
-7.51
-9.75
-12.30
-15.02
-17.60
-19.61
-20.49
-19.77
-17.30
-13.32
-8.42
-3.36
1.26
5.07
8.03
10.22
11.77
12.73
13.11
12.93
12.33
11.49
10.61
9.85
9.26
8.82
8.53
8.40
8.47
8.77
9.26
9.83
10.36
10.70
10.73
10.36
9.53
8.25
6.59
4.68
2.73
0.93
-0.60
-1.88
-3.05
-4.31
-5.86
-7.78
-9.98
-12.17
-13.88
-14.65
-14.12
-12.22
-9.21
-5.55
-1.83
1.49
4.19
6.25
7.81
9.02
9.94
10.50
10.60
10.20
9.35
8.26
7.20
6.43
6.13
6.32
6.89
7.65
8.42
9.04
9.40
9.48
9.28
8.86
8.29
7.64
6.88
6.02
4.99
3.82
2.57
1.38
0.31
-0.60
-1.46
-2.38
-3.44
-4.67
-6.01
-7.37
-8.65
-9.70
-10.26
-9.99
-8.49
-5.49
-0.99
4.66
10.87
16.95
22.42
27.03
30.82
33.96
36.60
38.81
40.60
42.02
43.25
44.57
46.27
48.52
51.32
54.54
58.07
61.87
66.04
70.63
75.44
79.91
83.12
84.18
82.47
77.99
71.29
63.29
54.94
46.90
39.41
32.40
25.57
18.65
11.39
3.61
-4.76
-13.78
-23.38
-33.32
-43.16
-52.26
-59.92
-65.53
-68.74
-69.62
-68.55
-66.18
-63.22
-60.26
-57.76
-56.02
-55.20
-55.36
-56.39
-58.00
-59.78
-61.26
-62.09
-62.08
-61.24
-59.65
-57.40
-54.58
-51.28
-47.68
-44.01
-40.58
-37.65
-35.37
-33.76
-32.74
-32.17
-31.88
-31.75
-31.77
-31.94
-32.37
-33.08
-33.97
-34.72
-34.79
-33.67
-31.02
-26.87
-21.61
-15.84
-10.17
-5.12
-1.03
1.88
3.54
4.03
3.66
2.87
2.20
2.13
2.93
4.71
7.49
11.27
16.07
21.85
28.44
35.44
42.30
48.38
53.08
55.99
56.92
55.97
53.41
49.61
44.92
39.56
33.56
26.86
19.39
11.22
2.64
-5.83
-13.55
-19.86
-24.24
-26.44
-26.48
-24.64
-21.41
-17.33
-12.95
-8.71
-4.98
-1.96
0.29
1.87
2.99
3.86
4.67
5.52
6.46
7.50
8.66
9.95
11.39
12.94
14.57
16.27
18.00
19.77
21.57
23.37
25.12
26.78
28.36
29.93
31.64
33.61
35.85
38.21
40.35
41.85
42.27
41.31
38.83
34.92
29.81
23.86
17.58
11.59
6.54
3.00
1.26
1.27
2.58
4.50
6.31
7.52
7.90
7.49
6.47
4.93
2.89
0.29
-2.93
-6.64
-10.53
-14.20
-17.25
-19.54
-21.11
-22.19
-23.02
-23.71
-24.21
-24.43
-24.32
-23.93
-23.42
-23.00
-22.84
-23.01
-23.48
-24.17
-24.91
-25.53
-25.85
-25.75
-25.25
-24.49
-23.71
-23.12
-22.87
-22.94
-23.20
-23.44
-23.42
-22.81
-21.28
-18.49
-14.24
-8.53
-1.68
5.74
13.00
19.47
24.73
28.67
31.38
33.07
33.96
34.23
34.04
33.57
33.07
32.76
32.83
33.30
34.07
34.92
35.66
36.14
36.30
36.13
35.61
34.69
33.31
31.42
29.08
26.43
23.65
20.89
18.24
15.76
13.51
11.55
9.92
8.53
7.19
5.64
3.67
1.19
-1.69
-4.75
-7.74
-10.45
-12.75
-14.62
-16.04
-17.06
-17.75
-18.18
-18.44
-18.60
-18.76
-19.06
-19.70
-20.94
-22.99
-25.91
-29.54
-33.49
-37.19
-40.05
-41.61
-41.63
-40.19
-37.57
-34.24
-30.73
-27.50
-24.82
-22.81
-21.42
-20.52
-19.97
-19.69
-19.67
-19.96
-20.54
-21.30
-22.09
-22.77
-23.31
-23.78
-24.33
-25.04
-25.96
-27.07
-28.33
-29.73
-31.16
-32.35
-32.84
-32.07
-29.62
-25.42
-19.85
-13.59
-7.45
-2.03
2.34
5.59
7.81
9.10
9.58
9.36
8.64
7.68
6.75
6.06
5.69
5.62
5.75
5.95
6.17
6.35
6.50
6.64
6.76
6.78
6.56
5.93
4.73
2.96
0.76
-1.58
-3.76
-5.59
-7.09
-8.45
-9.93
-11.77
-14.02
-16.64
-19.37
-21.88
-23.77
-24.64
-24.21
-22.36
-19.23
-15.16
-10.62
-6.04
-1.74
2.12
5.51
8.48
11.03
13.18
14.92
16.23
17.16
17.78
18.16
18.42
18.65
18.93
19.26
19.57
19.74
19.61
19.09
18.13
16.78
15.16
13.39
11.55
9.66
7.69
5.62
3.43
1.18
-1.04
-3.17
-5.18
-7.07
-8.93
-10.87
-12.98
-15.27
-17.60
-19.68
-21.15
-21.64
-20.93
-19.02
-16.07
-12.40
-8.32
-4.14
-0.09
3.62
6.79
9.24
10.85
11.60
11.59
11.04
10.23
9.42
8.82
8.57
8.67
9.08
9.67
10.31
10.90
11.39
11.76
11.97
11.95
11.57
10.76
9.49
7.86
6.05
4.23
2.50
0.84
-0.91
-2.94
-5.44
-8.50
-12.06
-15.91
-19.64
-22.74
-24.69
-25.09
-23.82
-21.06
-17.28
-13.09
-9.11
-5.83
-3.47
-2.03
-1.35
-1.18
-1.33
-1.68
-2.18
-2.80
-3.41
-3.86
-3.92
-3.47
-2.44
-0.91
1.04
3.35
5.95
8.72
11.41
13.70
15.24
15.82
15.47
14.38
12.86
11.16
9.45
7.76
6.04
4.14
1.91
-0.77
-3.96
-7.45
-10.84
-13.53
-14.91
-14.58
-12.53
-9.12
-4.93
-0.63
3.23
6.34
8.59
10.03
10.80
11.10
11.07
10.89
10.69
10.58
10.57
10.57
10.44
10.02
9.26
8.27
7.30
6.61
6.39
6.66
7.18
7.66
7.79
7.46
6.74
5.85
5.07
4.55
4.29
4.15
3.88
3.27
2.22
0.77
-0.95
-2.70
-4.24
-5.25
-5.39
-4.31
-1.72
2.50
8.17
14.80
21.68
28.06
33.36
37.30
39.94
41.62
43.00
44.65
46.99
50.14
53.92
57.96
61.87
65.40
68.63
72.15
76.80
83.41
92.59
104.27
117.43
129.91
138.73
140.97
135.11
121.59
102.99
83.35
66.85
56.47
53.21
56.16
63.11
71.68
79.35
83.73
82.83
75.44
61.57
42.67
21.37
-1.55
-24.15
-44.47
-61.00
-72.86
-79.87
-82.37
-80.99
-76.55
-69.79
-61.10
-50.85
-39.54
-27.77
-16.26
-5.75
3.14
10.17
15.27
18.93
21.85
24.68
27.77
31.18
34.79
38.46
42.28
46.61
51.76
57.86
64.58
71.00
75.73
77.17
73.93
65.04
52.57
38.34
24.03
10.72
-1.26
-12.33
-23.21
-34.33
-45.51
-55.95
-65.20
-73.19
-81.03
-90.72
-104.58
-124.49
-151.43
-185.39
-225.71
-271.42
-320.23
-367.97
-408.56
-435.52
-444.45
-435.02
-411.07
-378.67
-343.13
-306.56
-267.91
-224.93
-176.57
-124.31
-71.40
-20.77
26.79
72.67
119.08
166.78
213.62
254.68
283.64
294.98
285.50
255.51
208.99
152.80
94.85
41.98
-1.98
-36.49
-62.93
-82.35
-93.70
-94.13
-81.46
-56.88
-26.15
1.98
19.77
24.23
18.06
7.24
-2.76
-9.71
-14.18
-16.89
-16.49
-9.96
4.32
23.26
38.49
39.58
19.70
-20.30
-71.59
-121.13
-157.33
-174.01
-171.04
-151.97
-120.96
-80.91
-33.55
19.03
73.04
122.80
161.80
185.06
191.08
182.51
164.83
143.84
123.32
104.24
86.18
69.68
57.86
55.65
66.60
89.24
115.49
132.68
128.90
98.64
45.81
-17.73
-76.96
-119.12
-137.08
-129.94
-101.68
-59.30
-11.76
30.59
57.10
59.12
33.37
-15.68
-76.09
-132.11
-169.76
-181.89
-170.41
-144.61
-116.81
-97.30
-90.85
-96.00
-107.16
-118.10
-124.93
-127.11
-126.30
-123.91
-119.05
-108.26
-86.99
-52.31
-5.11
49.36
102.90
147.28
177.08
191.31
193.04
187.67
180.37
174.24
169.70
165.41
159.96
153.32
147.27
144.26
145.68
150.53
155.10
154.24
143.43
120.88
88.80
53.50
24.03
9.62
16.35
44.57
88.17
135.92
174.50
192.36
182.53
144.08
82.20
7.02
-67.64
-126.41
-156.43
-151.84
-116.75
-64.89
-15.12
15.02
14.16
-19.67
-78.96
-150.54
-219.74
-273.69
-303.45
-305.10
-279.77
-234.05
-177.35
-117.79
-59.74
-2.86
56.66
120.39
183.82
242.35
288.15
309.13
297.47
252.36
180.96
96.98
16.86
-45.05
-80.70
-91.90
-89.21
-87.55
-101.34
-139.12
-200.35
-275.78
-350.83
-410.87
-446.79
-456.59
-443.47
-413.41
-372.32
-324.67
-273.92
-223.41
-176.82
-138.16
-109.87
-90.83
-76.64
-60.99
-38.47
-6.93
31.61
72.11
108.30
135.75
153.88
166.12
178.71
198.39
229.95
274.01
326.26
377.78
417.27
434.04
421.04
377.26
308.69
227.27
148.00
85.34
49.57
44.51
67.21
109.41
159.99
207.85
244.61
266.47
274.74
274.52
272.00
271.41
272.91
272.76
265.36
246.16
213.65
169.46
116.85
59.02
-1.22
-60.56
-114.03
-155.30
-178.74
-182.51
-170.41
-151.13
-134.90
-129.51
-137.87
-157.92
-184.54
-212.19
-236.48
-254.38
-263.70
-262.58
-249.80
-225.57
-192.06
-153.23
-113.78
-77.83
-47.91
-24.74
-7.72
4.36
12.63
17.90
20.77
21.73
21.37
20.29
18.94
17.49
15.82
13.70
11.10
8.48
6.66
6.53
8.48
12.02
15.91
18.64
19.09
16.99
12.96
7.98
3.00
-1.40
-4.93
-7.33
-8.20
-7.12
-3.92
1.03
6.82
12.35
16.79
19.85
21.71
22.70
22.87
21.90
19.23
14.39
7.40
-1.23
-10.57
-19.58
-27.38
-33.39
-37.34
-39.26
-39.40
-38.12
-35.90
-33.21
-30.41
-27.72
-25.22
-22.90
-20.80
-19.06
-17.90
-17.56
-18.19
-19.65
-21.54
-23.31
-24.45
-24.72
-24.24
-23.40
-22.67
-22.44
-22.81
-23.69
-24.78
-25.66
-25.96
-25.34
-23.68
-21.15
-18.21
-15.45
-13.46
-12.49
-12.47
-12.99
-13.54
-13.69
-13.19
-12.00
-10.19
-7.88
-5.13
-1.97
1.50
5.06
8.32
10.77
11.88
11.31
8.98
5.04
-0.19
-6.30
-12.76
-18.88
-23.79
-26.63
-26.83
-24.36
-19.74
-13.82
-7.41
-1.06
5.02
10.73
15.85
19.98
22.72
23.94
24.00
23.75
24.24
26.42
30.87
37.68
46.38
56.12
65.90
74.79
82.14
87.63
91.09
92.26
90.69
85.90
77.80
66.96
54.68
42.50
31.70
22.78
15.46
9.02
2.73
-3.79
-10.53
-17.19
-23.25
-28.15
-31.42
-32.94
-33.14
-33.03
-33.82
-36.36
-40.56
-45.35
-49.11
-50.49
-49.08
-45.51
-41.14
-37.27
-34.61
-33.02
-31.80
-30.25
-28.06
-25.55
-23.48
-22.64
-23.30
-25.04
-26.87
-27.63
-26.54
-23.45
-18.81
-13.30
-7.49
-1.61
4.25
9.82
14.29
16.45
14.93
8.90
-1.49
-15.06
-29.99
-44.31
-56.46
-65.49
-71.00
-72.90
-71.05
-65.26
-55.22
-40.72
-21.95
0.34
24.83
49.92
74.09
96.33
116.40
134.74
152.33
170.43
190.27
212.58
236.95
261.40
282.29
295.22
296.44
284.63
261.54
231.47
199.41
168.87
140.52
112.40
81.43
45.34
3.90
-41.07
-86.73
-130.50
-170.84
-207.14
-239.04
-265.73
-285.71
-297.14
-298.78
-290.62
-274.18
-252.05
-227.02
-201.28
-175.88
-150.85
-125.74
-100.24
-74.55
-49.29
-25.20
-2.64
18.53
38.82
58.64
77.76
94.96
108.12
114.68
112.55
101.05
81.50
57.07
31.89
9.71
-7.41
-19.56
-28.74
-37.79
-49.10
-63.59
-80.32
-96.74
-109.45
-115.20
-111.82
-98.80
-77.26
-49.58
-18.60
13.02
43.24
70.73
94.81
115.28
132.36
146.51
157.95
166.22
169.82
166.71
155.32
135.74
110.33
83.21
58.83
40.25
28.05
20.57
15.06
9.16
1.91
-6.14
-13.69
-19.56
-23.31
-25.27
-26.21
-26.91
-27.88
-29.42
-31.60
-34.53
-38.26
-42.80
-47.99
-53.52
-58.96
-63.85
-67.79
-70.55
-72.17
-73.01
-73.69
-74.87
-76.95
-79.75
-82.37
-83.45
-81.55
-75.67
-65.62
-52.08
-36.43
-20.39
-5.62
6.68
16.08
23.03
28.66
34.31
40.92
48.59
56.59
63.72
69.00
72.05
73.21
73.14
72.40
71.17
69.37
66.85
63.77
60.54
57.60
55.10
52.67
49.47
44.53
37.19
27.52
16.39
5.15
-4.92
-13.05
-19.12
-23.47
-26.45
-28.19
-28.59
-27.64
-25.75
-23.76
-22.57
-22.57
-23.31
-23.57
-21.84
-17.05
-8.94
1.90
14.36
27.05
38.37
46.59
49.90
46.75
36.52
20.03
-0.27
-20.86
-38.10
-49.37
-53.59
-51.31
-44.05
-33.60
-21.49
-8.77
3.88
15.96
27.01
36.60
44.28
49.70
52.67
53.31
52.17
50.12
48.15
46.83
45.92
44.22
39.83
30.84
16.10
-4.10
-27.93
-52.52
-74.77
-92.11
-103.01
-107.13
-105.06
-98.06
-87.81
-76.35
-65.81
-58.08
-54.20
-54.00
-55.97
-57.79
-57.25
-53.10
-45.48
-35.75
-25.76
-17.09
-10.54
-6.06
-3.09
-0.86
1.33
3.94
7.28
11.37
15.86
20.04
22.98
23.79
22.04
17.96
12.38
6.50
1.48
-1.84
-3.08
-2.31
0.15
3.76
7.86
11.77
14.86
16.71
17.15
16.33
14.57
12.19
9.35
5.98
1.91
-2.89
-8.16
-13.24
-17.22
-19.20
-18.67
-15.66
-10.75
-4.85
1.19
6.82
11.81
16.23
20.13
23.45
26.01
27.56
27.96
27.22
25.53
23.10
20.19
17.04
13.89
11.02
8.69
7.03
6.00
5.32
4.57
3.31
1.27
-1.57
-4.96
-8.44
-11.51
-13.78
-15.10
-15.65
-15.93
-16.61
-18.34
-21.50
-26.09
-31.64
-37.33
-42.27
-45.61
-46.76
-45.54
-42.13
-37.06
-31.04
-24.80
-18.86
-13.47
-8.70
-4.58
-1.24
1.03
1.92
1.27
-0.81
-3.90
-7.42
-10.67
-13.04
-14.00
-13.25
-10.78
-6.94
-2.54
1.41
3.91
4.33
2.59
-0.77
-4.81
-8.42
-10.62
-10.80
-8.85
-5.15
-0.56
3.86
7.13
8.62
8.30
6.68
4.66
3.30
3.55
6.06
11.12
18.66
28.23
39.06
50.18
60.53
69.22
75.62
79.49
80.92
80.22
77.85
74.26
69.84
64.97
59.99
55.19
50.83
47.05
43.83
40.96
38.16
35.18
31.96
28.68
25.68
23.33
21.90
21.48
21.99
23.17
24.55
25.50
25.18
22.79
17.77
10.08
0.20
-10.85
-21.87
-31.68
-39.31
-44.08
-45.63
-43.92
-39.47
-33.28
-26.81
-21.62
-18.88
-19.00
-21.56
-25.65
-30.43
-35.54
-41.05
-47.08
-53.15
-57.86
-59.17
-55.18
-45.01
-29.41
-10.63
8.14
23.72
33.55
36.10
31.01
19.13
2.45
-15.98
-32.65
-44.34
-49.05
-46.62
-38.71
-28.24
-18.43
-11.88
-9.98
-12.81
-19.36
-27.99
-36.83
-44.15
-48.67
-49.70
-47.31
-42.15
-35.37
-28.22
-21.80
-16.82
-13.52
-11.84
-11.55
-12.46
-14.33
-16.75
-18.91
-19.62
-17.59
-11.87
-2.39
9.95
23.49
36.37
47.24
55.59
61.70
66.29
70.02
73.22
75.96
78.24
80.15
81.86
83.39
84.35
83.87
80.76
73.86
62.58
47.13
28.69
9.22
-8.98
-23.61
-32.87
-35.73
-32.23
-23.48
-11.59
0.61
10.02
13.92
10.48
-0.76
-18.67
-40.76
-63.59
-83.40
-96.83
-101.52
-96.54
-82.57
-61.75
-37.17
-12.14
10.58
29.32
43.69
54.26
62.04
67.98
72.51
75.53
76.44
74.43
68.77
59.05
45.43
28.72
10.36
-7.81
-24.00
-36.92
-46.18
-52.39
-57.02
-61.86
-68.46
-77.61
-89.12
-101.92
-114.37
-124.74
-131.54
-133.78
-131.09
-123.71
-112.48
-98.68
-83.79
-69.24
-56.11
-45.01
-36.15
-29.44
-24.66
-21.63
-20.12
-19.91
-20.69
-22.12
-23.79
-25.21
-25.77
-24.70
-21.22
-14.77
-5.41
6.25
19.28
33.26
49.06
69.20
97.36
136.96
189.36
252.32
319.74
382.93
432.92
463.19
471.21
458.46
429.10
388.38
341.63
294.14
251.25
217.85
197.12
189.07
190.04
193.75
193.70
185.73
169.24
146.42
120.52
94.42
70.19
49.74
35.12
28.09
28.75
34.55
40.59
41.27
32.58
13.39
-14.59
-48.04
-83.70
-119.20
-153.21
-184.72
-212.87
-237.17
-258.06
-277.36
-298.35
-325.03
-360.99
-407.70
-462.97
-520.49
-571.05
-605.28
-616.93
-605.13
-574.33
-531.99
-485.21
-438.19
-391.80
-345.00
-297.05
-248.66
-201.75
-157.96
-117.22
-77.49
-35.68
10.95
63.74
122.21
183.93
245.01
300.69
346.19
377.85
394.18
396.12
386.35
367.92
342.93
312.04
275.11
232.42
185.91
139.32
97.22
63.41
39.46
24.21
14.51
6.77
-1.69
-11.76
-22.46
-31.80
-37.65
-38.61
-34.50
-26.21
-15.45
-4.20
5.70
12.82
16.24
15.51
10.61
1.87
-9.88
-23.15
-35.76
-45.12
-48.99
-46.43
-38.43
-27.74
-18.01
-12.21
-11.44
-14.52
-18.63
-20.64
-18.35
-11.12
0.33
14.56
30.11
45.82
60.79
74.06
84.26
89.61
88.31
79.23
62.60
40.42
16.15
-6.19
-23.34
-34.05
-39.72
-43.88
-50.65
-63.02
-81.40
-103.02
-122.75
-134.87
-135.39
-123.78
-103.26
-79.50
-58.29
-43.24
-34.40
-28.65
-21.13
-7.15
16.24
49.60
91.13
136.69
180.85
218.74
247.66
267.87
281.77
291.53
297.65
298.93
292.98
278.41
256.89
232.60
210.02
191.16
173.68
153.04
126.53
94.00
58.05
23.10
-7.35
-32.91
-56.70
-85.29
-124.84
-177.31
-241.87
-315.04
-389.93
-457.51
-508.73
-536.98
-541.49
-526.01
-494.98
-454.71
-411.23
-367.03
-321.04
-270.21
-203.03
-116.72
-31.79
35.10
75.70
84.95
66.22
31.55
-2.22
-19.69
-13.87
14.16
59.83
115.65
173.80
228.32
273.75
304.04
313.27
297.14
257.06
201.96
142.52
86.42
36.78
-7.79
-50.43
-93.14
-135.75
-175.66
-208.56
-231.87
-245.56
-250.73
-248.54
-239.66
-224.30
-203.09
-176.98
-146.64
-113.03
-77.22
-39.97
-1.77
36.85
75.05
111.41
144.00
170.85
190.10
200.57
202.50
197.55
188.30
177.38
166.51
156.09
145.47
133.77
120.55
106.29
92.21
79.68
69.74
62.73
58.30
55.70
54.20
53.25
52.54
51.84
50.83
48.93
45.41
39.54
30.92
19.72
6.79
-6.56
-18.84
-28.80
-35.69
-39.36
-40.21
-39.04
-36.82
-34.57
-33.18
-33.32
-35.28
-38.79
-43.02
-46.59
-47.85
-45.33
-38.21
-26.58
-11.52
5.24
21.69
35.98
46.69
52.94
54.33
50.90
43.06
31.68
18.02
3.72
-9.38
-19.59
-25.72
-27.34
-24.82
-19.18
-11.81
-4.04
3.03
8.70
12.65
14.82
15.34
14.41
12.23
9.04
5.08
0.65
-3.82
-7.84
-10.92
-12.78
-13.39
-13.04
-12.23
-11.42
-10.86
-10.52
-10.10
-9.23
-7.67
-5.39
-2.64
0.16
2.61
4.39
5.41
5.78
5.75
5.67
5.92
6.78
8.28
10.15
11.83
12.64
12.03
9.83
6.37
2.43
-1.00
-3.10
-3.44
-2.21
-0.11
1.89
2.79
1.87
-1.14
-6.00
-12.09
-18.54
-24.47
-29.13
-32.06
-33.15
-32.65
-31.07
-29.07
-27.25
-26.03
-25.56
-25.81
-26.64
-27.96
-29.75
-31.99
-34.64
-37.50
-40.22
-42.34
-43.37
-42.87
-40.54
-36.26
-30.15
-22.57
-14.14
-5.71
1.81
7.59
11.14
12.45
12.06
10.97
10.34
11.10
13.68
17.87
22.88
27.62
31.05
32.42
31.38
28.10
23.09
17.17
11.32
6.47
3.44
2.71
4.41
8.25
13.65
19.82
26.00
31.57
36.21
39.82
42.41
43.95
44.27
43.17
40.61
36.83
32.39
28.00
24.27
21.48
19.56
18.24
17.29
16.62
16.25
16.25
16.58
17.09
17.54
17.73
17.50
16.77
15.45
13.53
11.01
7.94
4.41
0.54
-3.51
-7.44
-10.88
-13.37
-14.49
-14.04
-12.05
-8.85
-4.90
-0.68
3.44
7.26
10.73
13.90
16.80
19.45
21.74
23.41
24.12
23.54
21.47
18.00
13.52
8.64
4.07
0.46
-1.76
-2.43
-1.66
0.18
2.58
4.98
6.97
8.31
9.01
9.18
8.96
8.35
7.22
5.40
2.83
-0.40
-3.99
-7.55
-10.73
-13.30
-15.19
-16.53
-17.53
-18.44
-19.37
-20.26
-20.82
-20.68
-19.45
-16.95
-13.21
-8.56
-3.46
1.52
5.83
9.05
10.94
11.47
10.80
9.22
7.05
4.53
1.83
-0.92
-3.54
-5.79
-7.38
-8.03
-7.60
-6.06
-3.58
-0.44
3.04
6.51
9.69
12.36
14.44
15.87
16.67
16.85
16.35
15.12
13.10
10.34
7.00
3.37
-0.19
-3.29
-5.67
-7.31
-8.38
-9.27
-10.40
-12.09
-14.37
-16.96
-19.32
-20.88
-21.19
-20.11
-17.76
-14.50
-10.78
-7.04
-3.66
-0.99
0.72
1.29
0.66
-1.12
-3.84
-7.24
-10.99
-14.80
-18.37
-21.48
-23.99
-25.80
-26.88
-27.21
-26.84
-25.93
-24.73
-23.55
-22.63
-22.02
-21.54
-20.81
-19.47
-17.38
-14.71
-11.96
-9.78
-8.71
-9.00
-10.45
-12.51
-14.42
-15.50
-15.34
-13.92
-11.58
-8.88
-6.45
-4.79
-4.18
-4.63
-5.84
-7.26
-8.18
-7.90
-5.91
-2.02
3.57
10.36
17.65
24.75
31.07
36.23
40.04
42.48
43.60
43.52
42.41
40.58
38.48
36.70
35.80
36.13
37.66
39.87
41.90
42.83
42.03
39.37
35.29
30.62
26.28
22.95
20.89
19.92
19.54
19.12
18.13
16.22
13.36
9.76
5.84
2.11
-0.99
-3.21
-4.58
-5.40
-6.14
-7.24
-8.93
-11.10
-13.36
-15.11
-15.79
-14.99
-12.58
-8.78
-4.08
0.81
5.18
8.42
10.19
10.48
9.57
7.88
5.81
3.67
1.65
-0.15
-1.62
-2.65
-3.16
-3.17
-2.80
-2.27
-1.80
-1.48
-1.24
-0.88
-0.14
1.10
2.79
4.62
6.13
6.85
6.40
4.66
1.86
-1.55
-4.95
-7.85
-9.96
-11.34
-12.29
-13.21
-14.39
-15.85
-17.32
-18.29
-18.23
-16.74
-13.72
-9.40
-4.27
1.01
5.76
9.35
11.35
11.58
10.18
7.57
4.37
1.17
-1.59
-3.84
-5.75
-7.57
-9.41
-11.13
-12.37
-12.71
-11.99
-10.37
-8.34
-6.60
-5.73
-6.01
-7.38
-9.46
-11.79
-14.03
-16.07
-18.05
-20.27
-23.01
-26.43
-30.48
-34.95
-39.51
-43.76
-47.22
-49.35
-49.63
-47.77
-43.83
-38.26
-31.81
-25.27
-19.24
-14.00
-9.59
-5.92
-2.95
-0.73
0.60
0.91
0.16
-1.57
-4.01
-6.70
-9.01
-10.14
-9.35
-6.10
-0.24
7.95
17.82
28.42
38.75
47.85
54.99
59.76
62.18
62.61
61.65
59.91
57.79
55.28
52.10
47.80
42.11
35.08
27.23
19.40
12.56
7.59
5.02
4.93
6.93
10.20
13.73
16.57
18.08
18.08
16.83
14.88
12.77
10.84
9.13
7.44
5.45
2.97
0.03
-3.09
-5.99
-8.32
-9.90
-10.85
-11.49
-12.19
-13.18
-14.39
-15.41
-15.61
-14.34
-11.20
-6.23
0.10
6.97
13.38
18.28
20.80
20.44
17.27
12.00
5.95
0.64
-2.66
-3.41
-2.01
0.43
2.55
3.34
2.50
0.41
-2.18
-4.58
-6.49
-8.02
-9.54
-11.37
-13.59
-15.95
-17.99
-19.18
-19.12
-17.62
-14.66
-10.37
-5.01
1.02
7.17
12.73
16.89
18.94
18.47
15.51
10.55
4.38
-2.26
-8.92
-15.61
-22.69
-30.53
-39.24
-48.38
-57.05
-64.06
-68.33
-69.14
-66.27
-60.00
-50.96
-40.00
-28.06
-16.09
-4.95
4.69
12.41
18.05
21.69
23.58
24.08
23.56
22.40
20.92
19.40
18.01
16.79
15.71
14.66
13.58
12.51
11.61
11.15
11.39
12.53
14.63
17.62
21.29
25.33
29.20
32.16
33.22
31.31
25.59
15.91
3.05
-11.23
-24.54
-34.56
-39.70
-39.61
-35.13
-27.90
-19.75
-12.11
-5.83
-1.24
1.68
3.01
2.89
1.55
-0.62
-3.10
-5.32
-6.79
-7.18
-6.36
-4.38
-1.52
1.67
4.38
5.58
4.42
0.56
-5.56
-12.76
-19.32
-23.46
-23.82
-19.87
-12.07
-1.91
8.40
16.38
19.92
17.95
10.88
0.48
-10.57
-19.65
-24.95
-25.88
-22.93
-17.13
-9.52
-0.89
8.12
16.78
24.27
29.79
32.92
33.97
33.91
33.98
35.10
37.47
40.46
42.99
43.99
42.89
39.75
35.20
30.12
25.28
21.16
17.83
15.09
12.63
10.18
7.58
4.79
1.80
-1.40
-4.77
-8.12
-11.11
-13.25
-14.06
-13.28
-10.91
-7.31
-3.06
1.18
4.83
7.50
8.98
9.27
8.47
6.74
4.31
1.48
-1.41
-3.92
-5.64
-6.33
-6.00
-4.96
-3.79
-3.07
-3.17
-4.12
-5.55
-6.92
-7.74
-7.75
-7.06
-6.05
-5.27
-5.23
-6.34
-8.77
-12.39
-16.75
-21.12
-24.64
-26.54
-26.42
-24.35
-20.80
-16.49
-12.09
-8.04
-4.48
-1.36
1.42
3.93
6.16
8.08
9.66
10.88
11.72
12.13
12.08
11.57
10.67
9.58
8.51
7.62
6.96
6.47
6.04
5.57
5.02
4.34
3.48
2.41
1.12
-0.31
-1.71
-2.93
-3.89
-4.70
-5.57
-6.69
-8.14
-9.83
-11.57
-13.19
-14.57
-15.71
-16.61
-17.21
-17.37
-16.91
-15.66
-13.50
-10.50
-6.85
-2.91
0.84
3.90
5.81
6.24
5.11
2.62
-0.77
-4.45
-7.81
-10.38
-11.98
-12.70
-12.81
-12.63
-12.43
-12.37
-12.60
-13.25
-14.45
-16.24
-18.57
-21.20
-23.89
-26.39
-28.64
-30.71
-32.71
-34.72
-36.72
-38.56
-40.05
-40.97
-41.15
-40.51
-39.04
-36.89
-34.35
-31.70
-29.16
-26.69
-23.95
-20.45
-15.72
-9.60
-2.37
5.31
12.61
18.80
23.38
26.20
27.36
27.17
26.01
24.31
22.52
21.08
20.37
20.61
21.77
23.57
25.57
27.33
28.57
29.23
29.44
29.35
29.08
28.64
27.97
27.05
25.96
24.80
23.74
22.87
22.24
21.85
21.69
21.66
21.62
21.31
20.47
18.94
16.75
14.20
11.76
9.99
9.35
10.08
12.08
15.00
18.32
21.56
24.33
26.42
27.73
28.22
27.84
26.54
24.28
21.14
17.28
12.99
8.66
4.73
1.61
-0.42
-1.33
-1.37
-0.99
-0.58
-0.40
-0.39
-0.32
0.04
0.79
1.82
2.84
3.52
3.64
3.12
2.09
0.80
-0.49
-1.55
-2.34
-2.99
-3.77
-5.06
-7.24
-10.56
-15.01
-20.27
-25.64
-30.12
-32.66
-32.41
-29.02
-22.74
-14.38
-5.09
3.89
11.42
16.63
18.94
18.17
14.61
9.03
2.58
-3.48
-8.08
-10.63
-11.15
-10.15
-8.35
-6.46
-4.90
-3.80
-3.10
-2.64
-2.26
-1.87
-1.42
-0.94
-0.47
-0.15
-0.14
-0.65
-1.83
-3.70
-6.19
-9.07
-12.02
-14.61
-16.42
-17.11
-16.52
-14.75
-12.10
-9.00
-5.77
-2.58
0.58
3.70
6.63
9.04
10.44
10.47
9.04
6.49
3.44
0.61
-1.43
-2.45
-2.56
-2.14
-1.62
-1.27
-1.16
-1.18
-1.17
-1.06
-0.97
-1.15
-1.81
-3.01
-4.60
-6.34
-8.04
-9.67
-11.33
-13.13
-15.01
-16.74
-18.03
-18.64
-18.56
-17.88
-16.75
-15.21
-13.19
-10.63
-7.62
-4.46
-1.65
0.24
0.81
-0.10
-2.33
-5.48
-8.99
-12.27
-14.88
-16.58
-17.41
-17.68
-17.78
-18.09
-18.80
-19.83
-20.91
-21.70
-21.90
-21.42
-20.34
-18.96
-17.66
-16.80
-16.69
-17.48
-19.15
-21.53
-24.31
-27.13
-29.58
-31.24
-31.73
-30.73
-28.03
-23.62
-17.78
-11.02
-4.05
2.42
7.86
11.96
14.72
16.31
17.01
17.16
17.09
17.15
17.62
18.66
20.22
22.05
23.77
25.09
25.89
26.29
26.54
26.87
27.36
27.91
28.33
28.50
28.41
28.19
27.97
27.81
27.61
27.18
26.32
24.91
22.97
20.67
18.28
16.17
14.68
14.10
14.53
15.87
17.82
20.02
22.07
23.67
24.58
24.64
23.75
21.88
19.16
15.83
12.24
8.73
5.59
2.98
0.99
-0.34
-0.95
-0.77
0.19
1.87
4.02
6.30
8.31
9.65
10.10
9.59
8.23
6.25
3.97
1.69
-0.42
-2.31
-4.09
-5.93
-7.93
-10.00
-11.79
-12.81
-12.60
-10.93
-7.94
-4.02
0.21
4.20
7.54
9.94
11.27
11.47
10.56
8.62
5.79
2.37
-1.27
-4.66
-7.34
-9.02
-9.65
-9.44
-8.77
-8.03
-7.41
-6.83
-6.04
-4.75
-2.81
-0.31
2.47
5.10
7.18
8.31
8.14
6.35
2.71
-2.73
-9.55
-16.88
-23.54
-28.34
-30.48
-29.78
-26.71
-22.18
-17.16
-12.32
-7.94
-3.97
-0.28
3.11
5.93
7.85
8.58
8.11
6.71
4.87
3.05
1.55
0.43
-0.42
-1.17
-1.94
-2.79
-3.70
-4.62
-5.48
-6.20
-6.62
-6.64
-6.20
-5.38
-4.43
-3.70
-3.52
-4.10
-5.42
-7.20
-8.99
-10.30
-10.73
-10.10
-8.52
-6.29
-3.85
-1.59
0.22
1.49
2.28
2.71
2.89
2.92
2.80
2.52
2.09
1.60
1.19
1.02
1.17
1.58
2.01
2.13
1.62
0.28
-1.89
-4.73
-7.98
-11.32
-14.36
-16.75
-18.15
-18.43
-17.72
-16.51
-15.54
-15.55
-17.08
-20.30
-24.91
-30.36
-35.92
-40.90
-44.72
-46.95
-47.32
-45.79
-42.57
-38.09
-32.89
-27.55
-22.56
-18.21
-14.63
-11.81
-9.69
-8.19
-7.20
-6.58
-6.12
-5.52
-4.47
-2.66
0.06
3.65
7.87
12.32
16.55
20.23
23.14
25.30
26.83
27.89
28.57
28.88
28.76
28.13
26.98
25.33
23.19
20.62
17.74
14.82
12.30
10.74
10.60
12.07
14.93
18.64
22.52
26.05
28.99
31.31
33.09
34.36
35.00
34.87
33.91
32.20
30.04
27.76
25.68
23.99
22.70
21.72
20.86
19.88
18.58
16.79
14.49
11.86
9.21
6.93
5.30
4.41
4.09
4.01
3.74
2.95
1.45
-0.74
-3.45
-6.40
-9.22
-11.50
-12.81
-12.82
-11.37
-8.58
-4.83
-0.68
3.30
6.63
9.03
10.36
10.66
10.07
8.77
6.98
4.88
2.65
0.44
-1.61
-3.38
-4.71
-5.46
-5.49
-4.77
-3.38
-1.57
0.33
2.01
3.24
3.99
4.39
4.67
4.98
5.30
5.41
5.02
3.86
1.88
-0.81
-3.94
-7.27
-10.54
-13.53
-15.99
-17.59
-18.07
-17.30
-15.46
-12.92
-10.21
-7.72
-5.69
-4.07
-2.74
-1.53
-0.43
0.48
1.06
1.17
0.82
0.09
-0.86
-1.85
-2.73
-3.40
-3.82
-3.96
-3.81
-3.40
-2.80
-2.12
-1.54
-1.25
-1.38
-1.99
-3.05
-4.44
-5.97
-7.44
-8.64
-9.43
-9.78
-9.79
-9.65
-9.55
-9.58
-9.71
-9.81
-9.73
-9.43
-8.98
-8.48
-7.94
-7.21
-6.01
-4.09
-1.46
1.55
4.33
6.22
6.76
5.86
3.87
1.38
-0.93
-2.54
-3.22
-3.02
-2.16
-0.92
0.47
1.85
3.12
4.18
4.88
5.10
4.76
3.91
2.78
1.67
0.80
0.25
-0.19
-0.87
-2.15
-4.20
-6.92
-9.89
-12.55
-14.39
-15.08
-14.61
-13.26
-11.47
-9.65
-8.09
-6.88
-6.00
-5.38
-5.01
-4.92
-5.19
-5.90
-7.12
-8.92
-11.38
-14.51
-18.23
-22.31
-26.37
-30.02
-32.90
-34.89
-36.02
-36.43
-36.22
-35.47
-34.18
-32.45
-30.47
-28.49
-26.74
-25.30
-24.13
-23.15
-22.32
-21.69
-21.35
-21.29
-21.30
-20.94
-19.66
-16.96
-12.58
-6.59
0.60
8.31
15.76
22.20
27.11
30.30
31.93
32.47
32.52
32.63
33.17
34.22
35.67
37.19
38.46
39.21
39.36
39.02
38.39
37.73
37.26
37.11
37.35
37.94
38.75
39.53
39.99
39.84
38.85
36.95
34.20
30.80
27.00
23.11
19.49
16.52
14.58
13.90
14.48
15.97
17.82
19.38
20.16
19.93
18.76
16.89
14.58
12.01
9.26
6.42
3.69
1.36
-0.22
-0.85
-0.61
0.10
0.74
0.85
0.28
-0.77
-1.84
-2.46
-2.33
-1.46
-0.12
1.25
2.17
2.24
1.22
-0.94
-4.04
-7.67
-11.25
-14.15
-15.86
-16.14
-15.02
-12.87
-10.21
-7.63
-5.63
-4.55
-4.57
-5.71
-7.80
-10.54
-13.52
-16.28
-18.39
-19.54
-19.60
-18.69
-17.05
-15.06
-13.07
-11.35
-10.03
-9.11
-8.48
-8.01
-7.61
-7.26
-7.02
-6.96
-7.18
-7.73
-8.57
-9.59
-10.55
-11.20
-11.27
-10.64
-9.31
-7.48
-5.42
-3.38
-1.55
0.03
1.35
2.40
3.08
3.26
2.75
1.51
-0.31
-2.33
-4.02
-4.91
-4.77
-3.68
-2.05
-0.39
0.90
1.63
1.90
2.02
2.26
2.80
3.63
4.54
5.24
5.36
4.64
2.93
0.32
-2.94
-6.48
-9.84
-12.59
-14.38
-14.97
-14.28
-12.41
-9.69
-6.55
-3.47
-0.82
1.19
2.53
3.26
3.41
2.98
1.97
0.54
-1.04
-2.37
-3.11
-3.12
-2.53
-1.70
-1.01
-0.72
-0.87
-1.23
-1.47
-1.32
-0.65
0.43
1.61
2.54
2.86
2.41
1.16
-0.71
-2.90
-5.10
-7.00
-8.42
-9.26
-9.51
-9.28
-8.75
-8.11
-7.58
-7.30
-7.28
-7.41
-7.47
-7.27
-6.73
-5.97
-5.28
-5.01
-5.40
-6.50
-8.15
-10.07
-11.95
-13.57
-14.82
-15.64
-16.00
-15.95
-15.61
-15.28
-15.38
-16.36
-18.49
-21.76
-25.84
-30.14
-34.08
-37.18
-39.22
-40.21
-40.32
-39.83
-39.09
-38.35
-37.74
-37.13
-36.13
-34.22
-30.91
-26.02
-19.69
-12.40
-4.74
2.74
9.63
15.62
20.47
23.95
25.98
26.65
26.33
25.54
24.82
24.55
24.90
25.82
27.14
28.64
30.08
31.29
32.13
32.56
32.62
32.41
32.03
31.56
31.01
30.32
29.41
28.24
26.85
25.42
24.24
23.64
23.91
25.18
27.30
29.92
32.61
35.00
36.98
38.62
40.15
41.72
43.32
44.73
45.55
45.39
44.04
41.55
38.34
35.03
32.27
30.53
29.88
30.05
30.47
30.53
29.77
27.97
25.21
21.73
17.87
13.90
10.02
6.31
2.75
-0.73
-4.24
-7.92
-11.88
-16.14
-20.54
-24.72
-28.11
-30.12
-30.33
-28.62
-25.31
-21.01
-16.48
-12.44
-9.40
-7.64
-7.22
-8.01
-9.71
-11.86
-13.90
-15.29
-15.60
-14.72
-12.84
-10.46
-8.17
-6.50
-5.70
-5.72
-6.21
-6.73
-6.88
-6.49
-5.61
-4.53
-3.60
-3.16
-3.44
-4.44
-6.02
-7.83
-9.51
-10.69
-11.17
-10.86
-9.87
-8.38
-6.66
-4.94
-3.44
-2.28
-1.50
-1.11
-1.18
-1.87
-3.45
-6.08
-9.67
-13.74
-17.44
-19.92
-20.60
-19.46
-17.06
-14.22
-11.67
-9.81
-8.62
-7.88
-7.45
-7.37
-7.88
-9.20
-11.42
-14.35
-17.70
-21.18
-24.61
-27.88
-30.92
-33.58
-35.62
-36.86
-37.24
-36.96
-36.35
-35.82
-35.65
-35.96
-36.71
-37.83
-39.23
-40.90
-42.83
-44.93
-46.99
-48.69
-49.63
-49.46
-47.95
-45.10
-41.13
-36.45
-31.46
-26.43
-21.42
-16.28
-10.84
-5.01
1.08
7.10
12.68
17.52
21.48
24.58
26.88
28.44
29.38
29.89
30.39
31.37
33.23
36.02
39.37
42.60
44.99
46.15
46.09
45.19
43.88
42.44
40.86
39.02
36.84
34.51
32.35
30.75
29.92
29.81
30.16
30.67
31.11
31.41
31.53
31.52
31.32
30.91
30.25
29.38
28.35
27.17
25.79
24.06
21.82
19.03
15.77
12.31
9.06
6.45
4.87
4.50
5.29
6.89
8.79
10.41
11.31
11.33
10.58
9.37
8.04
6.77
5.58
4.34
3.01
1.70
0.73
0.38
0.80
1.74
2.72
3.19
2.84
1.84
0.69
0.04
0.31
1.51
3.24
4.88
5.86
5.77
4.46
2.02
-1.28
-5.05
-8.73
-11.74
-13.58
-13.99
-13.04
-11.13
-8.80
-6.59
-4.82
-3.57
-2.70
-2.03
-1.48
-1.16
-1.32
-2.24
-4.01
-6.50
-9.30
-11.90
-13.89
-15.08
-15.56
-15.58
-15.43
-15.30
-15.27
-15.30
-15.32
-15.25
-15.01
-14.53
-13.78
-12.80
-11.74
-10.82
-10.29
-10.32
-10.93
-12.00
-13.33
-14.73
-16.00
-16.91
-17.26
-16.81
-15.42
-13.09
-10.10
-6.92
-4.19
-2.45
-2.08
-3.12
-5.35
-8.36
-11.69
-14.95
-17.87
-20.26
-22.03
-23.15
-23.65
-23.65
-23.40
-23.25
-23.57
-24.69
-26.67
-29.31
-32.11
-34.44
-35.72
-35.71
-34.56
-32.79
-31.11
-30.09
-30.01
-30.70
-31.65
-32.26
-31.93
-30.30
-27.28
-23.00
-17.74
-11.90
-5.86
0.02
5.43
10.15
14.03
17.02
19.11
20.38
20.93
20.90
20.46
19.87
19.49
19.69
20.75
22.79
25.65
28.91
32.09
34.71
36.49
37.38
37.48
37.00
36.14
35.09
33.96
32.79
31.57
30.23
28.75
27.15
25.52
24.00
22.75
21.91
21.63
22.06
23.33
25.44
28.25
31.37
34.27
36.40
37.33
36.86
35.03
32.05
28.23
23.93
19.49
15.31
11.73
9.05
7.43
6.88
7.22
8.17
9.38
10.57
11.58
12.40
13.18
14.18
15.59
17.53
19.90
22.38
24.56
25.94
26.05
24.57
21.40
16.72
11.02
5.01
-0.51
-4.81
-7.49
-8.52
-8.25
-7.25
-6.07
-5.05
-4.28
-3.69
-3.15
-2.67
-2.37
-2.45
-3.12
-4.53
-6.73
-9.67
-13.14
-16.77
-20.08
-22.55
-23.83
-23.89
-23.06
-21.82
-20.65
-19.80
-19.27
-18.86
-18.39
-17.76
-17.02
-16.31
-15.91
-16.08
-17.09
-19.04
-21.76
-24.84
-27.70
-29.78
-30.77
-30.66
-29.65
-28.03
-26.10
-24.08
-22.16
-20.54
-19.41
-18.89
-19.00
-19.69
-20.91
-22.69
-25.13
-28.34
-32.26
-36.61
-40.83
-44.29
-46.39
-46.82
-45.61
-43.12
-39.81
-36.14
-32.39
-28.68
-25.00
-21.32
-17.71
-14.34
-11.40
-9.04
-7.30
-6.08
-5.15
-4.30
-3.42
-2.53
-1.76
-1.18
-0.68
0.15
1.87
4.99
9.70
15.73
22.41
28.93
34.63
39.12
42.24
43.97
44.23
43.01
40.41
36.86
33.09
29.97
28.13
27.81
28.73
30.30
31.93
33.26
34.28
35.20
36.30
37.66
39.10
40.23
40.56
39.71
37.50
34.06
29.75
25.05
20.43
16.33
13.07
10.84
9.74
9.70
10.50
11.80
13.20
14.39
15.18
15.57
15.64
15.46
15.01
14.15
12.68
10.50
7.73
4.78
2.27
0.79
0.68
1.82
3.66
5.46
6.58
6.75
6.21
5.47
5.03
5.12
5.57
5.95
5.77
4.68
2.53
-0.57
-4.36
-8.47
-12.44
-15.84
-18.24
-19.39
-19.25
-17.99
-16.01
-13.76
-11.70
-10.19
-9.54
-9.89
-11.34
-13.85
-17.34
-21.60
-26.33
-31.17
-35.73
-39.67
-42.74
-44.84
-46.01
-46.43
-46.29
-45.82
-45.19
-44.58
-44.14
-44.01
-44.29
-44.94
-45.73
-46.26
-46.00
-44.35
-40.82
-35.08
-27.11
-17.26
-6.23
5.01
15.40
23.95
29.94
32.93
32.84
29.86
24.55
17.71
10.42
3.84
-0.97
-3.18
-2.35
1.52
7.89
15.56
22.70
27.20
27.18
21.74
11.45
-1.62
-14.44
-24.09
-28.66
-27.80
-22.51
-14.57
-5.76
2.60
9.80
15.58
19.93
22.96
24.91
26.16
27.13
28.12
29.11
29.59
28.82
26.04
20.90
13.64
5.10
-3.54
-11.05
-16.47
-19.36
-19.77
-18.19
-15.35
-12.00
-8.77
-6.05
-4.01
-2.55
-1.43
-0.23
1.48
4.07
7.71
12.33
17.59
22.91
27.64
31.19
33.22
33.69
32.96
31.63
30.38
29.75
29.90
30.56
31.14
30.99
29.65
27.06
23.65
20.17
17.48
16.32
17.11
19.82
23.89
28.33
31.87
33.34
31.96
27.66
21.09
13.41
5.99
0.04
-3.78
-5.46
-5.64
-5.36
-5.60
-6.84
-8.82
-10.57
-10.87
-8.80
-4.25
2.00
8.60
14.20
17.93
19.58
19.49
18.24
16.45
14.71
13.66
14.02
16.49
21.43
28.58
37.02
45.28
51.77
55.11
54.44
49.26
39.42
25.04
6.72
-14.31
-36.05
-56.09
-72.19
-82.92
-88.07
-88.59
-86.01
-81.88
-77.13
-71.96
-65.99
-58.62
-49.41
-38.31
-25.53
-11.51
3.39
18.90
34.64
49.88
63.21
72.66
76.29
72.87
62.48
46.68
28.03
9.28
-7.27
-20.21
-28.78
-32.70
-32.01
-27.18
-19.35
-10.29
-2.02
3.78
6.31
5.67
2.54
-2.40
-8.74
-16.36
-25.04
-34.24
-42.90
-49.79
-53.87
-54.63
-52.20
-47.17
-40.43
-32.90
-25.54
-19.27
-15.01
-13.51
-15.23
-20.17
-27.69
-36.64
-45.48
-52.63
-56.73
-56.89
-52.76
-44.61
-33.27
-20.10
-6.89
4.43
12.10
14.93
12.46
5.09
-6.07
-19.53
-33.63
-46.92
-58.24
-66.87
-72.43
-74.80
-74.09
-70.56
-64.77
-57.55
-49.92
-42.82
-36.80
-31.91
-27.70
-23.57
-19.07
-14.09
-8.87
-3.79
0.89
5.09
8.89
12.36
15.60
18.68
21.82
25.36
29.70
35.07
41.40
48.23
54.82
60.38
64.26
66.14
66.06
64.32
61.44
58.03
54.60
51.58
49.19
47.49
46.42
45.87
45.77
46.07
46.71
47.60
48.57
49.40
49.92
49.99
49.58
48.71
47.39
45.59
43.21
40.08
36.09
31.20
25.57
19.50
13.43
7.85
3.25
0.01
-1.62
-1.65
-0.33
1.81
4.16
6.11
7.27
7.51
6.98
5.91
4.55
3.05
1.47
-0.16
-1.76
-3.20
-4.27
-4.81
-4.74
-4.14
-3.24
-2.31
-1.57
-1.09
-0.73
-0.20
0.83
2.60
5.11
8.15
11.26
13.90
15.47
15.52
13.83
10.55
6.14
1.39
-2.82
-5.70
-6.76
-5.92
-3.43
0.19
4.39
8.63
12.48
15.54
17.41
17.75
16.33
13.17
8.57
3.07
-2.59
-7.71
-11.70
-14.17
-14.95
-14.12
-12.05
-9.40
-7.03
-5.80
-6.26
-8.46
-11.84
-15.46
-18.27
-19.50
-18.90
-16.77
-13.86
-11.04
-9.10
-8.55
-9.52
-11.85
-15.17
-19.04
-22.96
-26.48
-29.21
-30.85
-31.19
-30.21
-27.99
-24.72
-20.66
-16.13
-11.55
-7.44
-4.43
-3.15
-4.06
-7.26
-12.43
-18.84
-25.54
-31.60
-36.34
-39.47
-41.03
-41.37
-40.97
-40.31
-39.78
-39.65
-40.07
-41.14
-42.81
-44.96
-47.24
-49.19
-50.25
-50.04
-48.48
-45.89
-43.00
-40.68
-39.65
-40.27
-42.38
-45.38
-48.41
-50.51
-50.75
-48.45
-43.26
-35.32
-25.29
-14.24
-3.33
6.46
14.60
21.06
26.16
30.30
33.74
36.49
38.40
39.33
39.29
38.59
37.77
37.41
37.98
39.59
41.99
44.74
47.37
49.56
51.27
52.55
53.43
53.82
53.58
52.64
51.10
49.28
47.50
45.97
44.66
43.34
41.82
40.04
38.16
36.48
35.31
34.83
35.03
35.71
36.53
37.13
37.19
36.58
35.33
33.67
31.94
30.43
29.21
28.03
26.43
23.91
20.21
15.49
10.39
5.77
2.46
0.94
1.28
3.16
6.05
9.35
12.54
15.12
16.74
17.22
16.67
15.50
14.26
13.43
13.14
13.18
13.11
12.52
11.21
9.26
6.84
4.11
1.09
-2.16
-5.47
-8.40
-10.40
-10.98
-10.06
-7.99
-5.53
-3.54
-2.68
-3.20
-4.88
-7.20
-9.58
-11.65
-13.34
-14.92
-16.75
-19.05
-21.73
-24.34
-26.21
-26.73
-25.60
-22.95
-19.38
-15.74
-12.88
-11.37
-11.39
-12.65
-14.53
-16.26
-17.25
-17.23
-16.39
-15.35
-14.89
-15.76
-18.38
-22.62
-27.80
-32.80
-36.35
-37.48
-35.81
-31.69
-26.00
-19.78
-13.85
-8.60
-4.05
-0.08
3.31
5.94
7.49
7.73
6.56
4.10
0.61
-3.51
-7.77
-11.56
-14.25
-15.39
-14.82
-12.77
-9.75
-6.35
-3.02
-0.02
2.53
4.58
6.08
7.03
7.51
7.64
7.49
7.02
6.01
4.14
1.21
-2.80
-7.63
-12.83
-17.87
-22.23
-25.46
-27.27
-27.62
-26.77
-25.29
-23.88
-23.12
-23.21
-23.91
-24.74
-25.28
-25.51
-25.96
-27.53
-31.10
-37.05
-44.92
-53.50
-61.11
-66.17
-67.79
-66.00
-61.73
-56.42
-51.39
-47.43
-44.55
-42.12
-39.25
-35.23
-29.83
-23.30
-16.21
-9.19
-2.79
2.61
6.73
9.30
10.13
9.22
6.87
3.77
0.94
-0.56
0.21
3.66
9.59
17.17
25.20
32.50
38.26
42.27
44.89
46.67
48.04
48.99
49.15
48.02
45.33
41.30
36.71
32.66
30.23
30.18
32.56
36.79
41.71
45.99
48.58
49.03
47.58
45.01
42.25
39.98
38.48
37.61
37.09
36.60
35.99
35.18
34.14
32.80
31.14
29.27
27.43
25.96
25.16
25.18
25.92
27.08
28.19
28.72
28.20
26.30
22.94
18.30
12.91
7.49
2.85
-0.39
-1.91
-1.80
-0.51
1.29
2.93
3.95
4.24
4.00
3.62
3.53
3.98
4.95
6.12
7.06
7.33
6.68
5.10
2.82
0.13
-2.68
-5.43
-8.02
-10.36
-12.32
-13.66
-14.12
-13.50
-11.75
-8.96
-5.34
-1.21
3.12
7.21
10.57
12.67
13.03
11.36
7.74
2.66
-2.96
-8.03
-11.49
-12.66
-11.44
-8.34
-4.34
-0.55
2.09
3.17
2.85
1.69
0.43
-0.38
-0.54
-0.22
0.09
-0.18
-1.50
-4.11
-7.94
-12.59
-17.46
-21.82
-25.05
-26.72
-26.72
-25.23
-22.67
-19.54
-16.31
-13.30
-10.72
-8.70
-7.40
-7.14
-8.37
-11.49
-16.54
-22.87
-29.19
-33.89
-35.72
-34.35
-30.66
-26.37
-23.25
-22.31
-23.29
-24.75
-24.78
-21.82
-15.35
-6.12
4.20
13.60
20.33
23.36
22.46
18.13
11.36
3.28
-4.92
-12.25
-17.95
-21.54
-22.96
-22.49
-20.66
-18.04
-14.95
-11.37
-6.89
-1.04
6.39
15.03
23.90
31.55
36.56
37.88
35.25
29.09
20.39
10.34
0.04
-9.60
-17.93
-24.47
-28.95
-31.25
-31.50
-29.94
-26.92
-22.69
-17.38
-11.05
-3.84
3.87
11.31
17.45
21.21
21.82
19.07
13.46
6.06
-1.79
-8.92
-14.59
-18.64
-21.38
-23.29
-24.82
-26.31
-28.04
-30.40
-33.83
-38.73
-45.12
-52.41
-59.47
-64.82
-67.10
-65.39
-59.45
-49.68
-37.06
-22.95
-8.95
3.42
12.95
19.08
22.03
22.68
22.26
21.85
22.11
23.07
24.31
25.18
25.16
23.97
21.65
18.47
14.81
11.14
7.99
5.91
5.46
7.02
10.67
16.10
22.61
29.32
35.36
40.09
43.15
44.53
44.41
43.15
41.07
38.42
35.27
31.58
27.41
23.08
19.24
16.77
16.39
18.30
21.98
26.33
30.04
32.11
32.19
30.64
28.30
26.03
24.39
23.48
22.99
22.37
21.08
18.72
15.10
10.24
4.39
-1.93
-7.92
-12.61
-15.06
-14.72
-11.60
-6.34
0.03
6.41
11.94
16.15
18.87
20.11
19.91
18.33
15.46
11.53
6.94
2.24
-1.95
-5.13
-7.02
-7.73
-7.65
-7.38
-7.47
-8.17
-9.38
-10.71
-11.71
-12.05
-11.67
-10.67
-9.27
-7.68
-6.09
-4.69
-3.77
-3.70
-4.95
-7.89
-12.57
-18.64
-25.21
-31.09
-35.13
-36.56
-35.30
-31.99
-27.72
-23.61
-20.48
-18.68
-18.11
-18.45
-19.35
-20.58
-22.02
-23.71
-25.80
-28.48
-31.88
-35.96
-40.45
-44.88
-48.69
-51.43
-52.92
-53.23
-52.60
-51.23
-49.21
-46.47
-42.90
-38.49
-33.44
-28.08
-22.84
-18.12
-14.23
-11.37
-9.70
-9.37
-10.49
-13.06
-16.76
-20.85
-24.29
-25.84
-24.52
-19.86
-12.10
-2.08
8.97
19.83
29.51
37.35
43.05
46.57
48.00
47.60
45.73
42.83
39.41
35.98
32.93
30.60
29.12
28.56
28.87
30.02
31.95
34.61
37.78
41.05
43.82
45.46
45.58
44.23
41.87
39.27
37.10
35.66
34.82
34.10
32.97
31.14
28.61
25.72
22.90
20.61
19.18
18.79
19.49
21.15
23.45
25.91
27.95
29.07
28.96
27.63
25.42
22.79
20.15
17.67
15.31
12.92
10.47
8.13
6.28
5.28
5.27
6.13
7.48
8.91
10.13
11.01
11.58
11.87
11.91
11.69
11.21
10.50
9.54
8.22
6.33
3.65
0.08
-4.26
-8.99
-13.49
-17.09
-19.20
-19.42
-17.63
-14.03
-9.15
-3.69
1.58
6.03
9.26
11.20
11.98
11.84
10.92
9.26
6.76
3.37
-0.81
-5.41
-9.82
-13.36
-15.43
-15.77
-14.50
-12.06
-9.12
-6.31
-4.14
-2.88
-2.55
-2.90
-3.50
-3.85
-3.50
-2.27
-0.38
1.53
2.61
2.08
-0.53
-5.17
-11.35
-18.26
-25.03
-30.78
-34.85
-36.76
-36.38
-33.93
-30.01
-25.44
-21.04
-17.42
-14.78
-12.99
-11.76
-10.85
-10.33
-10.58
-12.14
-15.46
-20.55
-26.88
-33.47
-39.26
-43.51
-46.07
-47.40
-48.24
-49.22
-50.55
-51.97
-53.03
-53.30
-52.62
-51.08
-48.86
-46.19
-43.22
-40.19
-37.39
-35.18
-33.89
-33.67
-34.48
-36.04
-37.94
-39.68
-40.64
-40.15
-37.61
-32.68
-25.47
-16.60
-7.06
2.13
10.23
16.94
22.35
26.69
30.16
32.72
34.22
34.55
33.78
32.28
30.63
29.47
29.33
30.47
32.80
35.94
39.33
42.41
44.82
46.46
47.48
48.15
48.70
49.21
49.62
49.70
49.26
48.15
46.33
43.86
40.82
37.36
33.69
30.17
27.28
25.53
25.26
26.49
28.88
31.82
34.63
36.83
38.15
38.56
38.09
36.79
34.67
31.75
28.18
24.20
20.14
16.39
13.28
11.10
9.96
9.75
10.15
10.75
11.23
11.48
11.63
11.93
12.54
13.38
14.15
14.51
14.22
13.21
11.58
9.36
6.53
3.01
-1.16
-5.69
-10.04
-13.56
-15.66
-16.04
-14.75
-12.11
-8.67
-4.99
-1.52
1.41
3.67
5.23
6.17
6.54
6.30
5.36
3.63
1.12
-1.94
-5.11
-7.95
-10.07
-11.31
-11.76
-11.66
-11.28
-10.80
-10.33
-9.88
-9.46
-9.06
-8.68
-8.36
-8.19
-8.32
-8.95
-10.26
-12.33
-15.11
-18.43
-21.99
-25.46
-28.53
-30.96
-32.60
-33.46
-33.69
-33.53
-33.18
-32.68
-31.79
-30.10
-27.19
-22.91
-17.56
-11.89
-6.98
-3.93
-3.48
-5.77
-10.28
-15.95
-21.53
-26.05
-29.06
-30.70
-31.57
-32.35
-33.53
-35.24
-37.33
-39.54
-41.74
-43.91
-46.10
-48.28
-50.19
-51.40
-51.48
-50.28
-48.03
-45.39
-43.21
-42.24
-42.78
-44.51
-46.51
-47.48
-46.04
-41.16
-32.49
-20.62
-7.04
6.02
16.18
21.55
21.35
16.28
8.35
0.27
-5.33
-6.59
-2.84
5.52
17.28
30.83
44.42
56.41
65.36
70.31
70.99
67.99
62.70
56.88
52.25
49.85
49.81
51.40
53.39
54.62
54.38
52.61
49.80
46.72
44.12
42.56
42.33
43.44
45.59
48.23
50.65
52.22
52.56
51.77
50.35
48.94
48.03
47.61
47.22
46.03
43.18
38.17
31.04
22.51
13.82
6.36
1.28
-0.81
-0.05
2.81
6.74
10.68
13.84
15.78
16.37
15.75
14.27
12.43
10.78
9.75
9.44
9.48
9.14
7.50
3.73
-2.58
-11.26
-21.47
-31.84
-40.75
-46.71
-48.78
-46.82
-41.54
-34.33
-26.81
-20.39
-15.88
-13.43
-12.66
-12.96
-13.87
-15.22
-17.13
-19.77
-23.05
-26.50
-29.32
-30.62
-29.88
-27.14
-23.06
-18.66
-14.87
-12.24
-10.77
-10.04
-9.47
-8.64
-7.49
-6.29
-5.55
-5.76
-7.20
-9.85
-13.48
-17.80
-22.56
-27.56
-32.56
-37.12
-40.60
-42.33
-41.84
-39.11
-34.66
-29.36
-24.21
-19.97
-17.08
-15.60
-15.35
-16.06
-17.51
-19.66
-22.59
-26.44
-31.22
-36.75
-42.51
-47.78
-51.79
-53.90
-53.79
-51.54
-47.57
-42.56
-37.23
-32.16
-27.71
-23.93
-20.61
-17.41
-14.08
-10.52
-6.91
-3.61
-1.13
0.09
-0.24
-2.11
-5.14
-8.60
-11.55
-12.96
-11.99
-8.13
-1.44
7.49
17.65
27.78
36.75
43.79
48.61
51.41
52.65
52.83
52.29
51.19
49.50
47.23
44.55
41.82
39.55
38.23
38.17
39.38
41.60
44.31
46.91
48.85
49.78
49.63
48.66
47.36
46.23
45.61
45.45
45.30
44.42
42.07
37.83
31.79
24.58
17.23
10.88
6.50
4.68
5.45
8.34
12.46
16.73
20.24
22.45
23.35
23.37
23.13
23.09
23.30
23.42
22.82
20.99
17.79
13.56
8.99
4.84
1.66
-0.34
-1.33
-1.62
-1.56
-1.33
-0.95
-0.32
0.69
2.19
4.15
6.44
8.80
10.88
12.32
12.80
12.10
10.16
7.04
2.81
-2.48
-8.81
-16.13
-24.19
-32.49
-40.26
-46.59
-50.66
-51.87
-49.99
-45.10
-37.63
-28.21
-17.68
-7.06
2.51
9.83
13.81
13.73
9.54
2.11
-6.87
-15.26
-21.22
-23.85
-23.46
-21.36
-19.16
-18.03
-18.21
-19.10
-19.74
-19.32
-17.62
-14.94
-11.84
-8.81
-6.16
-4.03
-2.63
-2.30
-3.37
-6.02
-9.99
-14.50
-18.45
-20.74
-20.71
-18.38
-14.42
-9.85
-5.65
-2.41
-0.27
1.01
1.79
2.26
2.38
1.91
0.62
-1.53
-4.26
-7.02
-9.18
-10.20
-9.80
-7.96
-4.88
-0.93
3.37
7.40
10.51
12.16
12.12
10.55
7.93
4.91
2.07
-0.26
-2.00
-3.28
-4.29
-5.25
-6.37
-7.80
-9.60
-11.57
-13.34
-14.42
-14.41
-13.21
-11.08
-8.52
-6.11
-4.29
-3.28
-3.12
-3.80
-5.33
-7.80
-11.31
-15.84
-21.19
-26.99
-32.75
-38.01
-42.48
-46.09
-48.92
-51.03
-52.38
-52.78
-51.95
-49.74
-46.25
-41.89
-37.26
-33.06
-29.80
-27.67
-26.55
-26.07
-25.83
-25.58
-25.34
-25.34
-25.83
-26.79
-27.76
-27.91
-26.25
-22.01
-14.98
-5.61
5.15
16.11
26.24
34.82
41.58
46.53
49.82
51.63
52.06
51.26
49.53
47.34
45.35
44.20
44.37
45.96
48.65
51.78
54.57
56.35
56.76
55.84
53.99
51.77
49.76
48.31
47.46
47.00
46.54
45.66
44.05
41.53
38.05
33.65
28.52
22.99
17.68
13.31
10.62
10.09
11.65
14.71
18.25
21.19
22.70
22.45
20.61
17.75
14.55
11.51
8.88
6.59
4.44
2.34
0.34
-1.29
-2.23
-2.36
-1.85
-1.08
-0.52
-0.40
-0.67
-0.99
-0.95
-0.31
0.88
2.32
3.63
4.47
4.62
3.94
2.29
-0.42
-4.14
-8.54
-12.99
-16.65
-18.71
-18.70
-16.65
-13.06
-8.73
-4.49
-0.92
1.76
3.62
4.89
5.85
6.63
7.17
7.26
6.65
5.22
3.07
0.59
-1.64
-3.09
-3.43
-2.69
-1.31
0.12
0.97
0.90
-0.07
-1.55
-2.99
-3.92
-4.19
-3.97
-3.71
-3.88
-4.80
-6.53
-8.95
-11.86
-15.13
-18.61
-22.06
-25.08
-27.12
-27.71
-26.69
-24.28
-21.05
-17.67
-14.60
-12.06
-10.05
-8.57
-7.77
-7.93
-9.28
-11.72
-14.71
-17.36
-18.76
-18.39
-16.35
-13.35
-10.40
-8.37
-7.73
-8.35
-9.71
-11.23
-12.52
-13.52
-14.39
-15.37
-16.58
-18.01
-19.57
-21.21
-23.05
-25.35
-28.47
-32.70
-38.21
-44.85
-52.08
-59.08
-64.86
-68.57
-69.73
-68.39
-65.10
-60.64
-55.77
-50.96
-46.36
-41.95
-37.73
-33.86
-30.63
-28.36
-27.15
-26.76
-26.64
-26.08
-24.34
-20.84
-15.32
-7.82
1.23
11.03
20.53
28.67
34.66
38.26
39.80
40.06
