1536170281.00
64.000000
-0.00
-0.00
-0.00
-0.00
-0.00
-0.00
-0.00
-0.00
-0.00
-0.00
0.00
0.01
0.01
-0.00
-0.03
-0.05
-0.05
0.00
0.13
0.36
0.66
1.01
1.37
1.72
2.06
2.40
2.79
3.24
3.80
4.42
5.06
5.66
6.20
6.68
7.15
7.68
8.31
9.14
10.09
11.04
11.88
12.56
13.14
13.76
14.65
15.96
17.91
20.32
22.90
25.38
27.58
29.57
31.68
34.32
37.81
42.54
48.15
54.10
59.83
64.97
69.58
74.14
79.34
85.71
93.76
103.00
112.62
121.73
129.77
136.75
143.30
150.75
157.77
166.64
177.95
191.79
206.97
220.57
228.25
225.36
208.53
176.87
132.76
80.05
23.07
-34.94
-92.44
-149.16
-205.23
-260.37
-313.74
-363.87
-409.83
-450.91
-486.50
-515.74
-537.23
-549.22
-549.96
-538.36
-514.20
-478.68
-433.89
-382.46
-327.02
-269.80
-212.53
-156.51
-102.80
-52.30
-5.99
35.27
70.89
100.64
124.71
143.61
157.99
168.50
175.69
179.92
181.52
180.77
178.04
173.72
168.22
161.85
154.84
147.32
139.39
131.20
122.94
114.87
107.18
99.91
92.91
85.91
78.63
70.99
63.18
55.62
48.83
43.16
38.56
34.56
30.43
25.51
19.57
12.95
6.45
1.06
-2.57
-4.50
-5.52
-6.88
-9.68
-14.33
-20.35
-26.47
-31.35
-34.05
-34.58
-33.82
-33.11
-33.77
-36.79
-43.08
-52.92
-65.42
-77.86
-85.71
-83.99
-69.41
-42.54
-7.98
26.67
54.07
69.89
74.19
70.46
63.36
56.46
51.18
47.46
44.59
42.64
42.47
45.02
50.49
58.02
66.09
72.07
75.32
75.78
74.26
71.83
69.38
67.31
65.52
63.51
60.69
57.64
53.69
48.83
43.47
38.17
33.47
29.70
27.01
25.50
25.53
27.25
30.74
35.21
38.78
38.77
32.75
19.81
1.27
-19.45
-38.38
-52.27
-59.87
-61.98
-60.65
-57.84
-54.69
-51.36
-47.60
-43.48
-39.41
-36.04
-33.75
-32.38
-31.30
-29.70
-27.12
-23.62
-19.87
-16.66
-14.62
-13.86
-13.99
-14.30
-14.10
-13.02
-11.09
-8.67
-6.18
-3.92
-2.00
-0.36
1.13
2.54
3.89
5.11
6.09
6.67
6.74
6.18
4.95
3.13
1.01
-1.05
-2.62
-3.49
-3.68
-3.44
-3.16
-3.08
-3.32
-3.78
-4.24
-4.44
-4.14
-3.21
-1.76
-0.19
0.85
0.62
-1.42
-5.39
-10.82
-16.82
-22.26
-26.03
-27.41
-26.26
-23.22
-19.48
-16.50
-15.41
-16.60
-19.51
-22.68
-24.52
-23.82
-20.41
-15.15
-9.51
-4.94
-2.22
-1.33
-1.66
-2.53
-3.34
-3.79
-3.66
-2.73
-0.93
1.50
4.00
5.85
6.45
5.95
4.91
3.99
3.52
3.28
2.86
2.07
1.32
1.25
2.22
4.01
5.84
7.12
7.79
8.49
9.92
12.40
15.52
18.30
19.63
18.90
16.28
12.55
8.97
6.77
6.73
8.85
12.27
15.52
17.20
16.79
14.79
12.66
11.74
12.34
13.47
13.48
11.17
6.71
1.73
-1.63
-2.11
-0.06
2.89
4.84
4.87
3.47
1.79
0.76
0.31
-0.44
-2.40
-5.56
-8.91
-11.04
-11.02
-9.10
-6.32
-3.98
-2.76
-2.43
-2.23
-1.40
0.31
2.53
4.46
5.25
4.41
2.21
-0.53
-2.56
-2.90
-1.16
2.10
5.56
7.82
7.89
5.82
2.59
-0.39
-1.80
-0.89
2.18
6.55
10.97
14.16
15.29
14.29
11.90
9.53
8.47
9.62
13.00
17.85
22.89
26.97
29.37
30.19
30.05
29.69
29.74
30.32
31.22
32.02
32.64
33.33
34.62
36.87
39.63
41.70
41.40
37.51
30.07
20.58
11.28
4.17
0.03
-1.89
-3.22
-5.64
-10.10
-16.65
-24.76
-33.58
-42.23
-49.81
-55.59
-58.88
-59.33
-56.93
-51.93
-44.93
-36.64
-27.91
-19.74
-13.32
-9.63
-9.21
-11.92
-16.87
-22.89
-28.96
-34.39
-38.74
-41.41
-41.53
-38.16
-30.90
-20.49
-8.93
0.96
6.72
7.38
4.06
-0.73
-4.33
-5.35
-4.11
-2.35
-1.99
-4.13
-8.54
-14.02
-19.20
-23.20
-25.99
-28.19
-30.61
-33.81
-37.86
-42.36
-46.71
-50.33
-52.92
-54.41
-54.89
-54.38
-52.72
-49.76
-45.68
-41.20
-37.35
-34.98
-34.15
-33.95
-33.19
-31.20
-28.67
-27.33
-28.86
-33.51
-39.21
-42.06
-37.81
-23.97
-1.17
26.91
54.91
77.68
92.10
97.63
95.95
89.80
81.71
73.35
65.32
57.74
50.89
45.34
41.84
40.61
41.02
41.65
41.06
38.34
33.56
27.52
21.11
14.91
8.89
2.84
-3.11
-8.22
-11.32
-11.50
-8.68
-3.67
2.19
7.66
11.94
14.73
16.00
15.70
13.78
10.55
6.71
3.37
1.41
0.90
1.08
0.73
-1.02
-4.13
-7.60
-10.04
-10.41
-8.49
-4.87
-0.44
4.10
8.68
13.74
19.70
26.66
33.88
40.19
44.34
45.57
43.93
40.14
35.15
29.66
24.40
20.58
20.10
24.70
34.89
48.84
62.57
71.52
72.84
67.09
58.13
50.79
47.73
47.54
45.16
34.49
11.51
-23.83
-68.07
-116.02
-161.61
-199.33
-224.64
-233.91
-224.74
-196.77
-152.85
-99.38
-45.16
1.31
34.56
53.56
61.14
61.72
59.24
55.88
52.39
49.06
46.43
44.98
44.77
45.06
44.55
42.13
37.41
31.11
24.76
20.29
18.25
18.18
18.81
18.61
16.48
12.23
6.63
1.00
-3.30
-5.52
-5.64
-4.29
-2.46
-1.07
-0.69
-1.42
-3.02
-5.03
-7.05
-8.69
-9.72
-10.06
-9.82
-9.24
-8.62
-8.21
-8.12
-8.20
-8.16
-7.69
-6.55
-4.69
-2.26
0.51
3.43
6.38
9.32
12.23
15.07
17.77
20.27
22.51
24.52
26.40
28.36
30.59
33.17
36.03
38.98
41.58
43.40
44.13
43.84
42.91
41.81
40.77
39.68
38.18
35.57
31.26
25.21
18.13
11.56
6.97
5.29
6.70
10.85
16.68
23.03
29.07
34.44
39.82
46.01
53.92
64.37
77.60
91.91
103.38
106.46
95.41
67.21
21.68
-38.18
-107.29
-175.70
-232.75
-270.35
-286.06
-283.64
-268.71
-247.00
-222.43
-197.27
-172.73
-150.03
-130.09
-113.15
-102.73
-96.53
-91.97
-87.28
-81.66
-75.03
-67.92
-60.98
-51.28
-38.97
-24.49
-9.43
4.44
15.79
24.30
30.53
35.34
39.47
42.54
44.41
44.41
42.07
36.90
28.52
16.96
3.44
-8.92
-15.80
-12.16
4.50
32.23
65.72
97.48
120.93
132.82
133.89
127.29
116.89
103.45
88.41
72.39
56.39
42.66
34.02
32.30
37.60
47.09
56.75
63.19
64.98
63.12
60.33
59.83
64.20
74.76
91.43
111.85
131.70
145.06
146.04
130.87
99.64
56.82
8.34
-35.75
-67.83
-85.57
-91.66
-90.98
-87.50
-82.80
-76.67
-68.66
-59.15
-50.15
-43.78
-41.00
-41.02
-41.88
-41.33
-38.11
-32.31
-25.02
-18.13
-13.25
-10.91
-10.48
-10.61
-9.86
-7.47
-3.46
1.53
6.34
10.01
12.19
13.24
13.93
15.02
16.88
19.47
22.39
24.96
26.60
27.08
26.50
25.19
23.50
21.47
19.35
17.17
14.90
12.51
10.09
7.81
5.88
4.39
3.38
2.89
2.83
3.14
3.77
4.71
5.99
7.68
9.68
11.95
14.53
17.44
20.71
24.35
28.40
32.93
38.03
43.42
48.94
54.58
60.34
66.28
72.45
78.96
85.89
93.36
100.80
107.77
113.99
119.25
123.41
126.52
128.73
130.40
132.07
133.45
134.54
135.42
136.11
136.48
136.05
133.86
128.11
122.70
118.46
115.62
114.01
113.27
112.93
112.52
111.69
110.27
108.35
105.27
100.80
95.01
88.10
80.41
72.33
64.30
56.80
50.35
44.74
39.92
35.88
32.64
30.17
28.44
27.39
26.98
27.18
27.54
27.78
27.68
27.15
26.18
24.81
23.18
21.43
19.78
18.19
16.68
15.20
13.71
12.11
10.30
8.21
5.77
3.00
-0.13
-3.58
-7.27
-11.09
-14.92
-18.60
-21.96
-24.86
-27.15
-28.79
-29.82
-30.39
-30.67
-30.85
-31.05
-31.33
-31.66
-32.01
-32.35
-32.76
-33.32
-34.18
-35.40
-36.92
-38.51
-39.85
-40.62
-40.64
-39.97
-38.97
-38.08
-37.76
-38.15
-39.11
-40.21
-41.05
-41.58
-42.24
-44.00
-47.98
-55.08
-65.40
-78.17
-91.99
-105.30
-117.17
-127.65
-137.84
-149.29
-163.27
-180.00
-198.44
-216.69
-232.80
-245.60
-255.28
-263.20
-271.33
-281.64
-295.63
-313.94
-335.81
-358.51
-377.31
-386.07
-379.06
-353.26
-310.25
-256.28
-200.38
-151.14
-113.70
-88.55
-72.67
-62.08
-54.24
-48.99
-47.49
-50.27
-55.80
-60.51
-60.36
-52.90
-38.41
-19.70
-0.38
17.18
33.00
49.17
68.37
92.02
119.15
146.32
168.61
181.08
180.24
165.08
137.55
102.36
66.06
35.50
16.08
10.13
16.06
28.76
41.24
46.77
41.17
23.96
-1.80
-31.02
-58.68
-81.66
-99.66
-114.59
-129.42
-146.67
-167.68
-192.44
-220.11
-249.37
-278.58
-305.50
-327.36
-341.26
-345.50
-340.03
-326.91
-309.86
-293.17
-280.53
-273.88
-273.18
-276.93
-283.30
-290.49
-296.91
-300.83
-300.08
-292.18
-275.00
-247.90
-212.52
-173.25
-135.10
-101.48
-72.93
-47.46
-22.07
5.34
34.60
63.66
87.90
104.31
113.29
118.23
123.21
131.03
143.17
159.51
179.88
199.84
215.27
223.68
224.32
217.13
202.54
183.28
162.74
145.79
130.04
112.72
93.46
74.43
57.42
41.37
23.58
-1.00
-34.78
-85.29
-154.49
-236.00
-317.93
-389.14
-444.32
-482.74
-508.72
-471.45
-346.50
-150.14
67.80
259.36
401.53
481.75
517.65
521.60
502.76
460.68
396.67
322.15
252.05
198.75
175.10
181.54
204.51
228.49
238.09
228.59
205.61
178.82
155.87
139.16
127.77
118.94
112.99
108.22
103.79
100.79
100.17
103.17
109.10
116.25
122.67
128.98
135.39
142.48
151.55
163.06
176.39
189.91
201.87
211.59
221.05
233.71
248.75
267.70
292.26
323.60
361.05
400.97
436.54
459.42
462.56
443.16
405.19
357.18
308.64
265.51
227.63
189.90
146.31
94.24
36.41
-20.06
-68.18
-104.45
-130.15
-149.78
-168.24
-188.82
-213.06
-241.55
-274.47
-311.40
-349.70
-383.46
-404.25
-404.27
-380.42
-336.65
-283.11
-231.89
-192.21
-167.07
-153.68
-146.51
-141.12
-136.16
-132.30
-129.62
-125.60
-115.45
-94.52
-61.24
-18.54
27.17
68.63
101.04
123.70
139.41
152.30
165.52
179.97
194.35
206.36
213.49
214.23
208.12
195.35
176.47
152.47
125.10
97.01
71.33
49.69
32.61
19.38
8.39
-1.90
-11.84
-20.87
-27.83
-32.10
-36.30
-43.39
-55.51
-73.79
-98.59
-129.06
-164.46
-203.42
-244.18
-287.80
-333.72
-378.90
-418.90
-449.85
-468.99
-477.70
-480.04
-481.19
-488.45
-502.21
-514.13
-511.17
-482.76
-425.55
-348.07
-265.78
-170.33
-67.93
27.58
103.64
157.10
186.24
203.46
216.67
229.62
243.66
256.47
264.19
264.30
254.72
233.75
204.18
170.42
137.52
109.09
83.58
60.03
39.02
22.51
11.38
5.56
2.67
0.37
-2.37
-6.75
-12.15
-16.18
-16.66
-12.95
-5.43
3.87
12.81
19.85
23.38
24.92
26.99
31.65
39.70
51.29
65.85
82.53
100.46
118.42
138.33
161.69
188.52
217.26
246.10
274.43
302.93
332.96
365.17
402.18
443.32
484.09
518.07
540.07
548.95
546.78
537.83
502.06
430.92
329.41
214.63
105.24
11.74
-63.19
-120.95
-162.20
-186.18
-188.80
-170.08
-138.13
-104.91
-82.26
-76.87
-90.46
-119.85
-159.29
-199.73
-234.47
-261.01
-275.86
-277.53
-259.39
-221.40
-171.09
-119.39
-71.73
-27.10
18.34
67.32
117.66
163.60
197.78
214.31
211.74
194.44
169.37
141.65
113.77
84.91
55.80
26.60
-2.09
-28.67
-50.86
-67.46
-81.55
-97.19
-116.78
-138.74
-159.58
-175.38
-183.06
-181.61
-172.36
-162.03
-157.04
-159.80
-167.15
-173.62
-174.56
-168.02
-155.30
-140.27
-133.15
-143.90
-178.15
-235.38
-311.07
-398.69
-490.18
-576.26
-617.53
-587.20
-486.14
-344.83
-202.07
-83.80
2.06
60.18
99.72
128.63
146.43
150.11
139.33
119.05
97.12
80.17
71.47
70.86
76.08
80.42
78.41
68.66
54.70
41.97
34.07
32.81
37.34
45.22
51.38
51.65
44.64
32.49
18.72
6.13
-3.96
-11.78
-18.30
-25.76
-35.87
-49.05
-63.75
-77.86
-89.73
-98.48
-103.99
-106.43
-106.22
-103.20
-99.52
-95.54
-91.20
-86.52
-81.66
-77.05
-73.14
-70.34
-68.93
-69.14
-70.63
-73.09
-76.19
-79.61
-83.05
-86.28
-89.12
-91.44
-93.27
-94.29
-94.33
-93.29
-91.08
-87.70
-83.20
-77.70
-71.37
-64.53
-57.28
-49.81
-42.31
-34.93
-27.78
-20.94
-14.48
-8.48
-3.06
1.82
6.24
10.37
14.48
18.82
23.58
28.78
34.23
39.65
44.77
49.42
53.65
57.69
61.86
66.39
71.30
76.39
81.21
85.31
88.46
90.77
92.78
95.27
99.01
104.39
111.32
119.24
127.29
134.74
141.30
147.36
153.92
162.44
174.28
189.99
208.59
227.46
242.98
252.00
253.51
249.44
244.29
243.50
251.42
269.68
296.77
328.77
360.64
387.13
403.12
404.07
386.93
351.67
302.52
247.64
196.67
157.25
132.54
121.00
118.55
121.38
127.55
136.35
146.31
153.69
153.05
139.81
113.24
77.64
40.55
9.14
-13.10
-27.49
-38.50
-50.75
-66.33
-84.06
-100.71
-113.21
-120.35
-123.31
-124.83
-127.53
-132.64
-139.61
-146.63
-151.59
-152.84
-149.45
-140.88
-126.83
-107.10
-82.15
-53.56
-24.18
2.41
22.95
35.59
40.38
38.99
33.82
27.03
20.01
13.41
7.52
2.62
-1.10
-3.62
-5.37
-7.04
-9.12
-11.45
-13.12
-12.93
-10.00
-4.48
2.34
8.23
10.84
8.49
0.79
-11.07
-24.54
-36.25
-42.95
-42.36
-33.93
-19.00
-0.48
17.92
32.74
41.59
43.58
39.25
30.18
18.37
5.68
-6.54
-17.79
-28.19
-38.50
-49.85
-63.45
-80.12
-99.69
-120.44
-139.11
-151.56
-153.94
-143.90
-121.32
-88.10
-47.41
-2.73
42.69
85.95
124.26
155.00
176.11
186.74
187.64
180.82
168.60
152.62
133.34
110.50
83.89
54.05
22.37
-9.41
-40.13
-69.70
-99.19
-130.31
-164.59
-202.85
-244.98
-290.09
-336.70
-382.76
-425.83
-463.21
-492.59
-512.57
-523.18
-525.71
-522.18
-514.50
-503.77
-490.18
-473.21
-452.33
-427.42
-398.94
-367.70
-334.45
-299.64
-263.49
-226.29
-188.60
-151.33
-115.57
-82.19
-51.47
-22.98
4.23
31.20
58.56
86.27
113.54
139.35
162.93
184.22
203.93
223.32
243.63
265.83
290.64
318.77
350.96
387.35
426.54
465.03
497.70
519.48
527.54
522.34
506.85
484.38
456.59
423.00
382.51
335.32
283.88
231.70
181.03
131.20
79.00
21.13
-42.92
-109.37
-170.98
-219.42
-247.79
-252.43
-233.26
-193.27
-137.87
-74.07
-9.59
47.99
92.46
120.13
130.55
126.67
114.03
99.06
87.11
80.87
79.73
80.73
80.39
76.45
68.71
58.48
47.51
37.15
28.10
20.94
16.50
15.58
18.31
23.65
29.37
32.75
31.65
25.24
14.06
-0.45
-16.78
-33.93
-51.39
-68.83
-85.64
-100.78
-112.96
-121.10
-124.94
-125.17
-123.21
-120.60
-118.35
-116.63
-114.80
-111.88
-107.18
-100.74
-93.33
-86.04
-79.60
-73.66
-66.56
-55.78
-38.96
-15.28
13.66
43.86
70.22
88.37
96.43
95.62
89.41
81.62
74.60
68.58
62.32
54.84
46.57
39.48
35.77
36.36
40.02
43.93
45.17
42.26
35.80
27.96
21.17
16.82
14.76
13.66
11.87
8.27
2.59
-4.80
-13.40
-23.00
-33.79
-46.02
-59.42
-72.88
-84.54
-92.33
-94.77
-91.56
-83.61
-72.56
-59.99
-46.85
-33.39
-19.46
-5.07
9.32
22.82
34.52
43.79
50.59
55.28
58.41
60.42
61.50
61.67
60.97
59.63
58.09
56.90
56.49
56.99
58.14
59.36
59.95
59.31
57.16
53.52
48.50
42.13
34.27
24.81
13.96
2.50
-8.32
-17.17
-23.06
-25.62
-25.03
-21.80
-16.41
-9.26
-0.54
9.44
20.09
30.42
39.10
44.87
47.01
45.72
42.20
38.22
35.38
34.50
35.23
36.38
36.58
34.90
31.18
25.84
19.50
12.71
5.89
-0.57
-6.28
-11.05
-15.22
-19.72
-25.79
-34.34
-45.20
-56.99
-67.36
-73.94
-75.24
-71.16
-62.78
-51.75
-39.56
-27.23
-15.33
-4.25
5.66
14.26
21.93
29.65
38.63
49.69
62.80
77.05
91.13
104.10
115.87
127.14
138.90
151.78
165.66
179.67
192.51
202.86
209.48
211.45
208.27
200.05
187.55
172.10
155.15
137.71
120.10
102.02
83.03
63.13
43.03
24.07
7.72
-4.92
-13.45
-18.04
-19.25
-17.62
-13.46
-7.04
1.14
10.14
18.53
24.64
26.90
24.26
16.58
4.86
-9.04
-23.08
-35.63
-45.94
-54.08
-60.59
-65.93
-70.13
-72.36
-71.80
-68.25
-62.62
-56.86
-53.26
-53.51
-58.04
-65.76
-73.35
-77.29
-75.22
-66.97
-54.55
-41.24
-30.48
-25.08
-26.69
-33.38
-41.63
-46.73
-43.41
-26.67
6.72
56.13
115.50
173.56
220.02
245.99
246.92
223.89
183.70
137.41
97.33
73.55
71.84
98.03
153.92
236.63
337.97
445.45
545.14
625.12
678.20
675.00
601.53
462.44
282.08
93.69
-76.07
-214.87
-321.91
-401.58
-458.95
-493.88
-506.85
-501.13
-483.41
-462.10
-444.68
-435.80
-436.57
-445.07
-453.72
-454.17
-440.58
-412.44
-374.83
-335.71
-302.00
-276.81
-258.91
-242.29
-221.49
-194.79
-165.11
-137.56
-116.85
-104.23
-97.33
-92.22
-84.90
-73.94
-60.62
-47.71
-37.77
-32.02
-30.17
-31.03
-32.99
-33.90
-31.62
-24.39
-11.38
7.05
29.39
53.77
78.48
102.28
124.09
142.60
155.91
161.68
157.70
142.90
118.35
87.41
54.98
25.88
3.17
-12.81
-24.18
-34.38
-46.28
-60.77
-76.52
-91.00
-101.82
-107.82
-109.07
-106.20
-99.49
-88.53
-72.53
-50.88
-23.70
7.95
42.08
75.90
105.91
128.56
141.02
142.23
133.54
118.49
101.62
86.86
76.14
69.19
64.14
58.74
51.21
40.39
25.49
6.01
-17.97
-45.07
-72.00
-93.76
-105.01
-102.09
-84.66
-56.24
-23.00
8.46
33.38
49.66
57.56
58.35
53.14
42.56
27.13
7.97
-13.15
-34.12
-53.12
-69.07
-81.57
-90.50
-95.81
-97.50
-95.98
-92.36
-88.16
-84.87
-83.22
-82.96
-83.03
-82.25
-80.03
-76.61
-73.12
-71.05
-71.42
-74.26
-78.69
-83.44
-87.44
-90.19
-91.34
-90.19
-85.61
-76.76
-64.44
-51.76
-43.59
-44.30
-55.46
-74.47
-95.52
-112.16
-120.01
-118.05
-107.72
-90.71
-67.34
-36.70
1.70
46.22
92.88
137.06
175.43
207.35
234.25
258.14
279.61
297.30
308.84
312.43
308.56
299.56
288.25
276.36
264.15
250.48
233.81
213.04
187.50
157.50
123.78
87.36
49.54
12.14
-23.23
-55.89
-86.82
-119.36
-154.61
-190.50
-221.60
-243.81
-254.98
-255.59
-248.43
-235.90
-221.60
-207.49
-193.23
-176.47
-154.69
-126.53
-93.05
-56.98
-22.01
8.66
34.25
55.91
75.55
94.50
113.27
131.70
150.16
168.80
186.98
203.25
215.27
220.32
216.21
202.76
177.70
143.53
105.98
71.48
44.58
26.41
15.35
8.20
2.11
-4.88
-12.92
-21.61
-30.89
-40.66
-50.96
-61.99
-74.62
-89.42
-106.41
-124.29
-141.64
-157.34
-171.14
-184.03
-194.56
-203.41
-212.30
-223.81
-240.48
-264.01
-293.74
-325.52
-352.11
-365.28
-359.53
-334.05
-293.30
-245.00
-197.06
-154.79
-119.60
-89.91
-62.91
-36.75
-10.45
16.44
44.56
74.74
107.51
142.47
178.00
211.57
240.14
261.54
275.11
281.87
283.98
283.78
282.74
280.90
277.05
269.53
257.48
241.55
223.66
206.12
190.45
176.68
163.55
149.25
132.47
113.06
91.99
70.82
50.97
33.20
17.50
3.43
-9.35
-20.71
-29.99
-36.42
-39.64
-40.07
-38.85
-37.43
-36.88
-37.44
-38.52
-38.96
-37.75
-34.33
-28.94
-22.31
-15.35
-8.65
-2.21
4.56
12.57
22.50
34.38
47.34
59.64
69.07
73.57
71.74
63.35
49.55
32.92
17.08
5.83
1.93
5.77
14.64
23.07
24.42
13.17
-12.83
-51.40
-96.54
-140.40
-175.66
-197.35
-203.64
-195.49
-175.75
-148.31
-117.41
-87.21
-61.22
-41.77
-29.53
-23.54
-21.50
-20.55
-18.03
-12.19
-2.64
9.64
22.50
33.43
40.34
42.46
40.56
36.49
32.20
28.73
25.83
22.26
16.80
9.06
-0.17
-9.29
-16.66
-21.28
-22.98
-22.23
-19.72
-16.03
-11.59
-6.79
-2.02
2.25
5.66
8.00
9.29
9.71
9.51
8.94
8.23
7.53
6.94
6.39
5.67
4.51
2.73
0.31
-2.47
-5.14
-7.29
-8.72
-9.59
-10.31
-11.37
-13.09
-15.44
-18.07
-20.43
-21.94
-22.21
-21.10
-18.68
-15.22
-11.09
-6.68
-2.38
1.53
4.77
7.20
8.75
9.49
9.57
9.24
8.76
8.37
8.20
8.26
8.45
8.57
8.41
7.82
6.72
5.20
3.41
1.55
-0.25
-1.98
-3.71
-5.51
-7.43
-9.46
-11.54
-13.67
-15.88
-18.11
-20.10
-21.40
-21.49
-19.99
-16.92
-12.69
-7.92
-3.15
1.31
5.40
9.12
12.41
15.04
16.75
17.43
17.22
16.45
15.52
14.68
14.01
13.43
12.81
12.01
10.92
9.51
7.81
6.00
4.27
2.80
1.67
0.79
-0.03
-0.99
-2.29
-4.05
-6.27
-8.83
-11.47
-13.83
-15.54
-16.29
-15.95
-14.61
-12.51
-9.94
-7.21
-4.53
-2.10
-0.03
1.57
2.69
3.31
3.45
3.22
2.87
2.73
3.23
4.74
7.37
10.95
15.02
19.03
22.48
25.10
26.79
27.67
27.89
27.56
26.68
25.12
22.76
19.54
15.53
10.94
5.98
0.90
-4.12
-8.83
-12.94
-16.12
-18.07
-18.68
-17.95
-16.09
-13.30
-9.87
-6.07
-2.23
1.24
3.91
5.43
5.66
4.75
3.10
1.20
-0.50
-1.75
-2.52
-3.01
-3.52
-4.29
-5.32
-6.45
-7.38
-7.89
-7.98
-7.90
-8.04
-8.78
-10.28
-12.42
-14.83
-17.07
-18.77
-19.66
-19.60
-18.42
-15.94
-12.04
-6.93
-1.18
4.30
8.59
11.12
11.89
11.42
10.46
9.59
9.01
8.61
8.13
7.43
6.55
5.59
4.60
3.50
2.18
0.59
-1.17
-2.83
-4.14
-4.98
-5.43
-5.75
-6.26
-7.24
-8.73
-10.57
-12.40
-13.78
-14.27
-13.63
-11.81
-9.00
-5.50
-1.69
2.13
5.66
8.70
11.06
12.58
13.18
12.92
11.96
10.56
9.08
7.79
6.89
6.40
6.17
5.97
5.56
4.83
3.77
2.56
1.41
0.51
-0.16
-0.80
-1.75
-3.40
-5.90
-9.04
-12.28
-14.88
-16.19
-15.87
-14.00
-10.94
-7.22
-3.27
0.57
4.01
6.87
8.96
10.17
10.55
10.30
9.70
8.98
8.30
7.70
7.08
6.31
5.25
3.83
2.15
0.45
-0.96
-1.87
-2.30
-2.43
-2.58
-3.11
-4.21
-5.93
-8.18
-10.70
-13.14
-15.18
-16.47
-16.79
-16.01
-14.12
-11.23
-7.56
-3.41
0.82
4.68
7.77
9.86
10.95
11.22
10.99
10.51
9.92
9.26
8.44
7.48
6.40
5.26
4.11
2.94
1.69
0.32
-1.21
-2.81
-4.32
-5.63
-6.68
-7.58
-8.56
-9.84
-11.47
-13.28
-14.88
-15.75
-15.49
-13.93
-11.20
-7.70
-3.95
-0.39
2.72
5.29
7.33
8.86
9.85
10.20
9.81
8.71
7.13
5.47
4.14
3.47
3.50
3.99
4.55
4.78
4.52
3.92
3.23
2.73
2.41
2.02
1.18
-0.39
-2.74
-5.65
-8.74
-11.60
-13.85
-15.14
-15.11
-13.55
-10.45
-6.23
-1.63
2.49
5.48
7.19
7.86
7.99
8.00
8.05
8.07
7.89
7.50
7.03
6.75
6.80
7.07
7.22
6.83
5.62
3.65
1.34
-0.76
-2.13
-2.59
-2.39
-2.04
-2.17
-3.13
-4.96
-7.37
-9.90
-12.09
-13.61
-14.27
-13.90
-12.41
-9.74
-6.06
-1.77
2.49
6.08
8.57
9.93
10.46
10.56
10.53
10.37
9.93
9.11
8.03
7.03
6.46
6.45
6.82
7.12
6.95
6.13
4.80
3.31
2.03
1.16
0.70
0.41
-0.02
-0.92
-2.50
-4.85
-7.80
-10.97
-13.85
-15.88
-16.61
-15.76
-13.33
-9.56
-4.97
-0.23
4.00
7.16
9.01
9.64
9.42
8.85
8.41
8.35
8.68
9.17
9.60
9.80
9.79
9.78
9.96
10.41
10.97
11.33
11.18
10.36
8.98
7.29
5.56
3.90
2.30
0.68
-0.90
-2.23
-3.03
-3.07
-2.40
-1.26
-0.04
0.82
0.94
-0.06
-2.51
-6.66
-12.48
-19.44
-26.52
-32.40
-35.81
-36.00
-32.98
-27.60
-21.30
-15.65
-11.80
-10.14
-10.18
-10.88
-11.16
-10.41
-8.77
-6.80
-5.18
-4.11
-3.02
-0.76
3.95
11.91
22.92
35.73
48.40
58.99
66.22
69.93
70.90
70.33
69.06
67.11
63.74
58.12
49.92
39.75
28.92
18.81
10.33
3.57
-1.88
-6.58
-10.76
-14.26
-16.74
-17.94
-18.00
-17.44
-17.08
-17.61
-19.37
-22.12
-25.10
-27.38
-28.18
-27.26
-24.92
-21.80
-18.56
-15.60
-13.06
-10.97
-9.42
-8.61
-8.73
-9.67
-10.98
-11.98
-12.05
-10.92
-8.87
-6.50
-4.47
-3.18
-2.63
-2.49
-2.36
-2.00
-1.47
-1.01
-0.88
-1.15
-1.62
-1.96
-1.91
-1.39
-0.57
0.24
0.81
1.00
0.84
0.41
-0.21
-1.04
-2.10
-3.34
-4.60
-5.66
-6.32
-6.59
-6.65
-6.78
-7.28
-8.25
-9.57
-10.87
-11.70
-11.65
-10.50
-8.32
-5.47
-2.55
-0.14
1.44
2.28
2.80
3.51
4.65
6.05
7.22
7.69
7.29
6.28
5.11
4.14
3.52
3.11
2.73
2.25
1.66
1.02
0.35
-0.43
-1.34
-2.34
-3.32
-4.18
-4.94
-5.67
-6.49
-7.41
-8.38
-9.29
-10.06
-10.64
-10.96
-10.84
-10.05
-8.39
-5.85
-2.75
0.39
3.06
4.90
5.88
6.21
6.17
5.98
5.74
5.45
5.08
4.62
4.10
3.60
3.22
3.01
2.97
3.01
3.00
2.79
2.27
1.49
0.52
-0.50
-1.50
-2.50
-3.61
-4.87
-6.28
-7.70
-9.00
-10.05
-10.72
-10.90
-10.46
-9.30
-7.42
-4.94
-2.09
0.77
3.23
4.96
5.71
5.47
4.46
3.09
1.84
1.05
0.80
0.93
1.20
1.42
1.57
1.81
2.21
2.75
3.18
3.19
2.63
1.56
0.23
-1.07
-2.20
-3.24
-4.39
-5.91
-7.89
-10.20
-12.51
-14.34
-15.25
-14.91
-13.30
-10.69
-7.55
-4.49
-1.98
-0.22
0.93
1.81
2.72
3.75
4.66
5.09
4.78
3.84
2.67
1.84
1.66
2.03
2.56
2.75
2.35
1.49
0.59
0.08
0.18
0.72
1.26
1.38
0.87
-0.16
-1.31
-2.22
-2.77
-3.16
-3.72
-4.73
-6.07
-7.24
-7.61
-6.76
-4.75
-2.16
0.27
1.95
2.80
3.18
3.56
4.28
5.30
6.33
6.95
6.95
6.39
5.58
4.89
4.53
4.45
4.34
3.86
2.86
1.50
0.14
-0.87
-1.44
-1.80
-2.25
-2.97
-3.85
-4.62
-5.12
-5.43
-5.90
-6.89
-8.42
-10.05
-11.04
-10.73
-8.88
-5.85
-2.40
0.67
2.81
3.92
4.24
4.18
4.10
4.21
4.51
4.87
5.07
4.92
4.35
3.52
2.68
2.04
1.67
1.40
1.04
0.50
-0.08
-0.37
-0.14
0.57
1.39
1.78
1.37
0.17
-1.45
-2.99
-4.06
-4.56
-4.57
-4.24
-3.68
-2.89
-1.83
-0.54
0.80
2.00
2.86
3.31
3.47
3.49
3.50
3.53
3.49
3.26
2.73
1.92
0.97
0.11
-0.44
-0.59
-0.40
-0.06
0.17
0.08
-0.50
-1.51
-2.77
-4.02
-5.04
-5.84
-6.60
-7.57
-8.82
-10.20
-11.31
-11.70
-11.15
-9.77
-7.95
-6.12
-4.47
-2.90
-1.13
1.05
3.52
5.84
7.48
8.04
7.47
6.13
4.61
3.52
3.30
3.99
5.33
6.79
7.78
7.88
6.94
5.09
2.71
0.27
-1.87
-3.48
-4.49
-4.93
-4.93
-4.75
-4.70
-5.11
-6.13
-7.68
-9.38
-10.70
-11.09
-10.20
-8.06
-5.00
-1.65
1.33
3.53
4.83
5.51
6.01
6.75
7.85
9.12
10.20
10.74
10.62
9.93
8.95
7.94
7.04
6.25
5.51
4.77
4.06
3.43
2.95
2.55
2.03
1.10
-0.44
-2.58
-5.01
-7.24
-8.87
-9.79
-10.25
-10.74
-11.61
-12.88
-14.08
-14.56
-13.75
-11.54
-8.33
-4.86
-1.81
0.44
1.97
3.16
4.37
5.74
7.15
8.31
8.97
9.04
8.59
7.76
6.70
5.56
4.50
3.71
3.30
3.23
3.27
3.09
2.49
1.47
0.26
-0.87
-1.67
-2.15
-2.48
-2.86
-3.46
-4.34
-5.46
-6.71
-7.98
-9.19
-10.28
-11.17
-11.75
-11.83
-11.11
-9.34
-6.43
-2.66
1.40
5.04
7.70
9.24
9.87
10.08
10.28
10.63
11.01
11.18
11.03
10.65
10.25
9.93
9.59
8.86
7.46
5.38
3.02
0.99
-0.17
-0.34
0.11
0.58
0.55
-0.14
-1.30
-2.47
-3.35
-3.93
-4.44
-5.28
-6.71
-8.73
-11.00
-12.99
-14.20
-14.31
-13.31
-11.44
-9.05
-6.46
-3.80
-1.11
1.58
4.20
6.52
8.23
9.17
9.36
9.12
8.84
8.87
9.28
9.89
10.38
10.47
10.02
9.08
7.80
6.32
4.75
3.17
1.69
0.45
-0.39
-0.81
-0.95
-1.10
-1.61
-2.72
-4.44
-6.50
-8.48
-9.96
-10.78
-11.10
-11.31
-11.84
-12.91
-14.35
-15.73
-16.49
-16.21
-14.77
-12.33
-9.28
-6.11
-3.21
-0.81
1.09
2.67
4.25
6.00
7.90
9.62
10.75
11.03
10.50
9.59
8.84
8.69
9.20
10.04
10.68
10.65
9.80
8.39
6.87
5.66
4.94
4.49
3.96
3.03
1.60
-0.17
-1.95
-3.48
-4.62
-5.40
-5.92
-6.24
-6.38
-6.43
-6.56
-7.02
-8.07
-9.80
-12.03
-14.32
-16.13
-16.88
-16.28
-14.33
-11.34
-7.78
-4.16
-0.82
2.06
4.41
6.28
7.69
8.70
9.37
9.79
10.04
10.16
10.14
9.96
9.65
9.33
9.10
9.02
8.99
8.87
8.49
7.88
7.13
6.46
5.95
5.53
4.94
3.98
2.57
0.84
-0.92
-2.39
-3.39
-3.92
-4.08
-4.04
-3.96
-4.04
-4.49
-5.50
-7.08
-8.97
-10.75
-11.88
-11.98
-11.00
-9.20
-7.02
-4.92
-3.17
-1.86
-0.85
0.03
0.91
1.80
2.60
3.13
3.29
3.09
2.66
2.23
1.99
2.05
2.44
3.13
4.05
5.03
5.78
5.92
5.17
3.54
1.43
-0.42
-1.39
-1.22
-0.23
0.84
1.21
0.42
-1.59
-4.45
-7.64
-10.70
-13.28
-15.16
-16.21
-16.37
-15.62
-14.07
-11.86
-9.13
-6.08
-2.91
0.03
2.40
3.92
4.58
4.69
4.66
4.89
5.48
6.24
6.85
7.07
6.90
6.53
6.23
6.11
6.12
6.02
5.71
5.12
4.39
3.66
3.00
2.33
1.46
0.29
-1.16
-2.72
-4.18
-5.37
-6.29
-7.09
-8.03
-9.35
-11.06
-12.93
-14.42
-14.96
-14.14
-11.92
-8.65
-4.92
-1.29
1.88
4.50
6.55
8.03
8.84
8.95
8.43
7.65
7.06
6.96
7.38
8.00
8.39
8.23
7.54
6.59
5.71
5.12
4.79
4.48
3.99
3.15
1.97
0.50
-1.19
-3.03
-4.95
-6.80
-8.41
-9.64
-10.54
-11.34
-12.32
-13.71
-15.44
-17.11
-18.10
-17.80
-15.97
-12.79
-8.84
-4.80
-1.23
1.67
3.95
5.70
7.03
7.93
8.40
8.56
8.66
8.88
9.28
9.67
9.72
9.22
8.17
6.90
5.76
5.06
4.84
4.93
5.07
4.99
4.55
3.73
2.57
1.16
-0.37
-1.84
-3.15
-4.23
-5.11
-5.93
-6.79
-7.74
-8.75
-9.66
-10.25
-10.27
-9.47
-7.66
-4.83
-1.28
2.44
5.64
7.83
8.80
8.77
8.21
7.51
6.92
6.47
6.12
5.91
5.99
6.53
7.48
8.56
9.29
9.23
8.14
6.15
3.59
0.95
-1.37
-3.07
-4.12
-4.67
-5.04
-5.59
-6.55
-8.02
-9.87
-11.80
-13.50
-14.66
-15.05
-14.52
-13.01
-10.51
-7.10
-3.04
1.26
5.26
8.43
10.41
11.07
10.56
9.20
7.41
5.54
3.86
2.48
1.43
0.70
0.29
0.18
0.33
0.63
0.93
1.06
0.86
0.27
-0.63
-1.75
-2.95
-4.12
-5.17
-5.97
-6.48
-6.76
-7.06
-7.68
-8.79
-10.27
-11.61
-12.15
-11.35
-9.14
-5.89
-2.24
1.18
4.00
6.14
7.65
8.68
9.32
9.66
9.83
9.87
9.82
9.61
9.21
8.64
8.02
7.51
7.14
6.85
6.43
5.76
4.90
4.08
3.57
3.44
3.59
3.68
3.36
2.38
0.72
-1.37
-3.51
-5.36
-6.75
-7.81
-8.78
-9.94
-11.36
-12.82
-13.90
-14.11
-13.13
-10.90
-7.71
-4.03
-0.39
2.81
5.41
7.39
8.85
9.89
10.56
10.90
10.94
10.80
10.65
10.62
10.72
10.79
10.64
10.07
9.06
7.69
6.18
4.78
3.67
2.97
2.72
2.84
3.15
3.44
3.48
3.14
2.42
1.43
0.35
-0.64
-1.49
-2.21
-2.95
-3.85
-5.01
-6.50
-8.22
-10.02
-11.69
-12.96
-13.59
-13.34
-12.11
-9.93
-7.02
-3.80
-0.75
1.77
3.60
4.89
5.91
6.90
7.88
8.70
9.16
9.19
8.97
8.80
8.92
9.28
9.50
9.07
7.73
5.69
3.60
2.27
2.16
3.10
4.38
5.18
4.97
3.84
2.28
0.89
-0.05
-0.68
-1.37
-2.42
-3.88
-5.53
-7.11
-8.51
-9.75
-10.99
-12.27
-13.44
-14.18
-14.15
-13.13
-11.10
-8.31
-5.15
-2.06
0.65
2.85
4.58
5.94
7.00
7.74
8.01
7.77
7.09
6.25
5.63
5.49
5.86
6.45
6.88
6.88
6.40
5.66
4.95
4.36
3.75
2.87
1.56
-0.02
-1.48
-2.38
-2.59
-2.38
-2.24
-2.67
-3.84
-5.49
-7.20
-8.69
-9.95
-11.25
-12.74
-14.26
-15.27
-15.11
-13.37
-10.25
-6.44
-2.79
0.05
1.91
3.10
4.08
5.22
6.57
7.89
8.89
9.39
9.39
9.03
8.47
7.81
7.10
6.36
5.70
5.31
5.38
5.93
6.76
7.44
7.50
6.58
4.70
2.24
-0.18
-2.05
-3.17
-3.73
-4.14
-4.75
-5.68
-6.81
-7.95
-9.07
-10.35
-11.99
-14.01
-16.04
-17.43
-17.50
-15.87
-12.67
-8.52
-4.28
-0.66
1.94
3.51
4.30
4.67
4.95
5.39
6.04
6.84
7.59
8.03
8.06
7.80
7.48
7.32
7.33
7.31
7.03
6.42
5.62
4.90
4.48
4.27
4.04
3.54
2.74
1.85
1.22
0.95
0.85
0.51
-0.49
-2.26
-4.55
-6.98
-9.25
-11.23
-13.00
-14.58
-15.88
-16.66
-16.52
-15.21
-12.69
-9.24
-5.34
-1.57
1.64
4.12
5.94
7.36
8.57
9.56
10.18
10.27
9.81
9.08
8.43
8.17
8.40
8.97
9.61
10.10
10.34
10.30
10.01
9.52
8.90
8.24
7.67
7.26
7.00
6.73
6.27
5.51
4.51
3.42
2.42
1.64
1.06
0.55
-0.11
-1.04
-2.23
-3.52
-4.63
-5.26
-5.20
-4.30
-2.54
0.04
3.35
7.26
11.50
15.73
19.58
22.77
25.17
26.78
27.59
27.43
26.06
23.23
18.92
13.46
7.59
2.22
-1.70
-3.52
-2.95
-0.23
3.97
8.60
12.35
13.82
11.72
5.12
-6.31
-22.11
-41.03
-61.21
-80.49
-96.96
-109.22
-116.81
-120.10
-120.11
-118.12
-115.30
-112.46
-109.90
-107.54
-104.97
-101.69
-97.23
-91.32
-84.01
-75.66
-66.77
-57.82
-49.09
-40.55
-32.08
-23.68
-15.58
-8.34
-2.45
1.85
4.83
7.04
9.11
11.39
13.87
16.30
18.44
20.28
21.96
23.60
25.21
26.56
27.35
27.26
26.22
24.29
21.75
18.91
16.05
13.41
11.00
8.67
6.10
2.89
-1.36
-6.89
-13.66
-21.32
-29.15
-36.15
-41.17
-43.23
-41.75
-36.80
-29.09
-19.68
-9.67
0.05
8.94
16.80
23.53
29.15
33.71
37.29
40.00
41.98
43.34
44.14
44.49
44.47
44.26
44.03
43.86
43.71
43.40
42.72
41.53
39.74
37.27
34.05
29.98
25.06
19.46
13.67
8.27
3.77
0.26
-2.70
-5.94
-10.27
-16.12
-23.25
-30.75
-37.38
-41.91
-43.42
-41.50
-36.30
-28.38
-18.65
-8.08
2.35
11.86
19.92
26.31
31.02
34.26
36.38
37.77
38.77
39.59
40.30
40.86
41.12
40.94
40.24
39.02
37.38
35.44
33.33
31.08
28.59
25.66
22.11
17.92
13.29
8.49
3.80
-0.70
-5.13
-9.79
-15.00
-20.96
-27.74
-35.17
-42.79
-49.86
-55.41
-58.55
-58.73
-56.00
-51.06
-45.03
-39.00
-33.70
-29.33
-25.61
-22.04
-18.22
-13.94
-9.19
-4.06
1.54
7.92
15.52
24.69
35.39
47.00
58.22
67.34
72.76
73.78
70.95
66.01
61.11
57.75
56.01
54.63
51.84
46.39
38.20
28.11
17.07
5.29
-7.89
-23.32
-40.98
-59.21
-75.11
-85.60
-88.77
-84.57
-74.38
-60.11
-43.25
-24.52
-4.29
16.88
37.72
56.48
71.42
81.32
85.82
85.29
80.53
72.55
62.56
51.82
41.55
32.63
25.30
19.09
13.09
6.34
-1.83
-11.57
-22.60
-34.38
-46.27
-57.70
-68.27
-77.80
-86.42
-94.59
-103.01
-112.45
-123.42
-135.78
-148.60
-160.04
-167.76
-169.44
-163.61
-150.12
-130.33
-106.57
-81.34
-56.48
-32.66
-9.64
13.14
35.74
57.33
76.46
91.64
102.12
108.21
111.12
112.35
113.11
113.98
114.99
115.91
116.57
116.87
116.68
115.77
113.71
110.05
104.57
97.39
89.01
80.09
71.19
62.53
53.87
44.54
33.70
20.62
5.11
-12.08
-29.18
-43.62
-52.73
-54.62
-48.86
-36.74
-20.82
-4.00
11.31
23.80
33.15
39.68
43.75
45.58
45.22
42.89
39.09
34.66
30.47
27.20
25.09
23.99
23.39
22.67
21.23
18.72
15.05
10.48
5.46
0.52
-3.93
-7.74
-11.00
-14.03
-17.22
-20.99
-25.63
-31.15
-37.07
-42.37
-45.55
-45.01
-39.67
-29.46
-15.48
0.27
15.58
28.82
39.30
47.22
53.19
57.63
60.52
61.49
60.23
56.92
52.30
47.46
43.36
40.45
38.52
36.91
34.81
31.71
27.45
22.21
16.31
9.96
3.30
-3.61
-10.68
-17.71
-24.45
-30.76
-36.58
-41.81
-46.11
-48.71
-48.54
-44.52
-36.02
-23.22
-7.11
10.78
28.89
45.93
61.12
74.07
84.87
93.98
102.11
110.08
118.43
127.17
135.82
143.68
150.27
155.54
159.78
163.12
165.18
165.10
161.83
154.84
144.33
131.17
116.44
100.99
85.25
69.55
54.35
40.34
28.22
18.34
10.33
3.22
-4.17
-12.68
-22.45
-32.95
-43.13
-51.94
-58.63
-62.98
-65.21
-65.88
-65.60
-64.83
-63.87
-62.84
-61.77
-60.60
-59.19
-57.34
-54.90
-51.85
-48.36
-44.75
-41.32
-38.18
-35.23
-32.19
-28.86
-25.25
-21.60
-18.25
-15.44
-13.13
-11.06
-8.86
-6.32
-3.46
-0.60
1.81
3.43
4.14
4.20
4.13
4.54
5.87
8.28
11.62
15.57
19.85
24.32
28.97
33.82
38.91
44.18
49.53
54.85
60.05
65.08
69.98
74.86
79.90
85.20
90.76
96.36
101.49
105.48
107.59
107.09
103.38
95.95
84.55
69.33
50.97
30.75
10.22
-9.24
-26.89
-42.68
-57.10
-70.60
-83.26
-94.79
-104.94
-113.85
-122.33
-131.48
-142.10
-154.20
-166.95
-179.07
-189.39
-197.06
-201.29
-201.04
-194.94
-181.86
-161.83
-136.65
-109.81
-85.48
-66.98
-55.75
-51.05
-50.76
-52.52
-54.74
-56.95
-59.48
-62.84
-67.21
-72.29
-77.41
-81.77
-84.65
-85.72
-85.05
-83.18
-80.96
-79.39
-79.37
-81.54
-86.23
-93.37
-102.41
-112.14
-120.66
-125.64
-124.81
-116.80
-101.64
-80.96
-57.52
-34.28
-13.56
3.50
16.90
27.29
35.40
41.67
46.17
48.86
49.82
49.41
48.24
46.97
46.00
45.40
44.89
44.01
42.33
39.62
35.99
31.79
27.45
23.23
19.08
14.70
9.66
3.60
-3.67
-12.12
-21.60
-31.75
-41.91
-51.01
-57.60
-60.12
-57.38
-49.08
-36.08
-20.20
-3.69
11.48
24.10
33.75
40.67
45.26
47.84
48.57
47.54
44.94
41.11
36.52
31.63
26.78
22.05
17.37
12.46
6.98
0.61
-6.85
-15.44
-25.01
-35.30
-46.06
-57.09
-68.22
-79.23
-89.72
-99.16
-107.04
-112.98
-116.82
-118.53
-118.01
-114.85
-108.50
-98.37
-84.32
-66.82
-46.90
-25.84
-4.91
14.89
32.76
47.93
59.60
67.16
70.52
70.41
68.36
66.32
66.01
68.37
73.23
79.46
85.30
89.07
89.67
87.04
82.44
78.23
77.23
81.74
92.45
107.93
124.93
139.62
149.14
152.67
151.53
148.19
144.90
142.68
141.14
139.10
135.53
130.22
123.85
117.68
113.03
110.87
111.53
114.63
119.06
123.35
126.03
126.18
123.65
118.88
112.43
104.50
94.71
82.38
67.09
49.24
30.03
11.15
-5.93
-20.45
-32.51
-42.79
-52.02
-60.59
-68.42
-75.13
-80.39
-84.25
-87.22
-90.10
-93.58
-97.87
-102.54
-106.62
-109.13
-109.44
-107.58
-104.20
-100.17
-96.11
-92.12
-87.78
-82.51
-76.09
-68.86
-61.73
-55.70
-51.45
-49.01
-47.71
-46.52
-44.35
-40.50
-34.83
-27.63
-19.40
-10.47
-0.82
9.77
21.45
34.00
46.66
58.35
68.07
75.33
80.36
83.97
87.26
91.29
96.87
104.23
112.68
120.22
123.67
119.51
105.27
80.91
49.31
15.53
-15.01
-38.38
-53.27
-60.79
-63.27
-62.89
-60.86
-57.57
-53.20
-48.31
-43.94
-41.24
-40.80
-42.34
-44.79
-46.70
-46.91
-45.06
-41.72
-38.09
-35.46
-34.59
-35.40
-37.10
-38.59
-39.05
-38.26
-36.65
-34.93
-33.86
-33.81
-34.74
-36.25
-37.72
-38.45
-37.87
-35.59
-31.49
-25.75
-18.82
-11.30
-3.76
3.34
9.73
15.24
19.70
22.91
24.67
24.89
23.71
21.54
18.98
16.57
14.68
13.39
12.57
12.03
11.66
11.44
11.37
11.33
11.05
10.26
8.79
6.74
4.39
2.12
0.15
-1.59
-3.47
-5.96
-9.40
-13.82
-18.75
-23.39
-26.77
-28.04
-26.75
-23.00
-17.44
-11.02
-4.70
0.84
5.37
9.01
12.03
14.61
16.75
18.27
19.00
18.84
17.92
16.53
15.04
13.79
12.98
12.62
12.60
12.69
12.61
12.08
10.91
9.02
6.54
3.73
0.87
-1.83
-4.39
-7.05
-10.19
-14.12
-18.91
-24.26
-29.53
-33.88
-36.51
-36.88
-34.85
-30.72
-25.13
-18.84
-12.56
-6.80
-1.84
2.25
5.49
7.95
9.73
10.91
11.51
11.58
11.18
10.45
9.67
9.11
8.97
9.20
9.52
9.53
8.92
7.66
5.94
4.09
2.34
0.72
-0.94
-2.77
-4.83
-7.04
-9.37
-11.93
-14.92
-18.47
-22.38
-25.94
-28.14
-28.07
-25.32
-20.28
-13.98
-7.57
-1.88
2.91
7.12
11.13
15.06
18.52
20.89
21.65
20.70
18.40
15.43
12.42
9.84
7.89
6.56
5.72
5.11
4.45
3.48
2.07
0.30
-1.66
-3.58
-5.32
-6.91
-8.43
-9.99
-11.69
-13.55
-15.60
-17.79
-19.86
-21.31
-21.48
-19.79
-16.03
-10.56
-4.16
2.22
7.86
12.45
16.11
19.14
21.81
24.13
25.91
26.87
26.84
25.85
24.14
22.04
19.87
17.83
16.01
14.42
13.01
11.73
10.45
8.99
7.16
4.81
1.94
-1.28
-4.63
-7.86
-10.89
-13.79
-16.74
-19.96
-23.52
-27.26
-30.78
-33.53
-34.93
-34.57
-32.33
-28.44
-23.42
-17.92
-12.52
-7.58
-3.29
0.40
3.53
6.11
8.09
9.43
10.12
10.26
10.00
9.45
8.68
7.68
6.42
4.87
3.02
0.88
-1.52
-4.16
-6.98
-9.79
-12.37
-14.40
-15.72
-16.25
-16.11
-15.63
-15.25
-15.46
-16.65
-18.86
-21.67
-24.22
-25.48
-24.65
-21.51
-16.49
-10.50
-4.50
0.77
5.02
8.37
11.05
13.29
15.16
16.66
17.75
18.45
18.82
18.89
18.68
18.17
17.33
16.19
14.83
13.37
11.91
10.51
9.15
7.76
6.26
4.54
2.55
0.27
-2.28
-5.03
-7.93
-10.95
-14.10
-17.41
-20.80
-23.93
-26.22
-27.01
-25.81
-22.55
-17.69
-12.01
-6.35
-1.30
2.96
6.59
9.78
12.63
14.93
16.35
16.66
15.84
14.16
12.04
9.90
8.08
6.78
6.05
5.84
5.92
5.96
5.63
4.63
2.94
0.79
-1.40
-3.25
-4.61
-5.67
-6.85
-8.60
-11.20
-14.63
-18.56
-22.43
-25.62
-27.46
-27.46
-25.37
-21.27
-15.67
-9.42
-3.47
1.43
4.91
7.13
8.58
9.80
11.14
12.63
14.05
15.08
15.45
15.06
13.98
12.48
10.87
9.47
8.48
7.94
7.69
7.51
7.11
6.30
4.96
3.04
0.55
-2.47
-5.92
-9.67
-13.59
-17.52
-21.28
-24.58
-26.96
-27.90
-26.98
-24.09
-19.53
-14.00
-8.29
-3.18
0.89
3.74
5.45
6.27
6.51
6.41
6.07
5.37
4.03
1.82
-1.29
-4.94
-8.50
-11.26
-12.87
-13.43
-13.50
-13.73
-14.55
-15.98
-17.72
-19.38
-20.71
-21.74
-22.66
-23.69
-24.94
-26.36
-27.80
-28.99
-29.65
-29.44
-27.98
-24.94
-20.17
-13.87
-6.57
0.95
7.93
13.85
18.52
22.03
24.60
26.46
27.80
28.83
29.83
31.07
32.70
34.59
36.29
37.13
36.53
34.22
30.44
25.92
21.53
18.09
15.88
14.71
13.90
12.64
10.31
6.63
1.60
-4.57
-11.58
-19.01
-26.19
-32.20
-36.10
-37.28
-35.82
-32.46
-28.37
-24.59
-21.59
-19.17
-16.75
-13.74
-9.97
-5.91
-2.42
-0.53
-0.91
-3.64
-8.09
-13.24
-18.16
-22.23
-25.26
-27.27
-28.17
-27.88
-26.45
-24.32
-22.37
-21.53
-22.29
-24.38
-26.84
-28.68
-29.51
-29.80
-30.61
-32.78
-36.32
-40.27
-43.17
-43.78
-41.68
-37.39
-31.81
-25.66
-19.04
-11.49
-2.50
7.86
18.63
28.22
35.10
38.41
38.30
35.73
32.00
28.20
24.97
22.42
20.40
18.54
16.40
13.55
9.63
4.54
-1.52
-8.21
-15.27
-22.86
-31.65
-42.53
-56.30
-73.01
-91.65
-110.18
-125.88
-136.05
-138.88
-133.99
-122.56
-106.82
-89.32
-71.98
-55.50
-39.44
-22.65
-4.13
16.31
37.85
58.91
77.61
92.36
102.25
107.12
107.55
104.53
99.23
92.68
85.69
78.95
73.10
68.71
66.30
66.15
68.30
72.55
78.48
85.38
92.33
98.16
101.83
102.71
100.83
96.83
91.71
86.33
81.22
76.46
71.78
66.70
60.56
52.52
41.78
28.03
11.92
-4.95
-20.63
-33.71
-43.95
-52.29
-60.01
-67.75
-74.98
-80.42
-82.98
-82.56
-80.07
-76.63
-72.41
-66.03
-55.01
-37.15
-12.01
18.43
50.30
79.43
102.89
119.56
129.71
133.98
132.93
127.19
118.14
108.18
100.03
95.39
93.65
91.98
86.97
77.08
64.25
53.46
50.12
56.95
71.94
88.84
99.69
98.14
81.89
53.30
18.25
-15.89
-42.41
-56.74
-57.23
-45.27
-24.82
-1.65
18.20
30.07
32.08
25.79
15.69
7.72
7.10
16.20
33.50
54.03
71.41
80.44
79.21
69.54
55.90
43.40
35.86
34.82
39.49
47.31
54.62
57.45
52.42
38.01
15.37
-11.61
-37.58
-57.90
-70.65
-77.22
-80.96
-84.78
-89.02
-90.91
-86.04
-70.91
-45.22
-12.58
20.56
46.97
60.85
59.05
41.19
9.10
-33.76
-82.67
-131.81
-174.49
-204.27
-216.54
-210.20
-188.36
-157.75
-126.71
-102.66
-89.84
-88.30
-94.38
-102.22
-105.92
-101.68
-89.33
-72.50
-57.79
-52.87
-63.97
-93.59
-139.21
-193.85
-248.21
-293.44
-323.42
-335.51
-329.85
-308.23
-273.34
-228.69
-178.99
-130.10
-87.94
-56.72
-37.44
-27.51
-21.93
-15.56
-5.16
9.63
26.92
43.98
58.65
69.94
78.03
83.76
87.94
91.06
93.23
94.37
94.44
93.55
92.06
90.40
88.90
87.64
86.50
85.39
84.53
84.57
86.30
90.30
96.39
103.39
109.39
112.54
111.76
107.31
100.51
93.05
86.16
80.08
74.26
67.83
60.29
51.75
42.81
34.12
25.98
18.32
10.90
3.68
-3.14
-9.31
-14.74
-19.55
-23.91
-27.86
-31.21
-33.66
-35.11
-35.75
-35.91
-35.72
-34.85
-32.59
-28.24
-21.59
-13.19
-4.02
4.89
12.99
20.23
26.77
32.67
37.74
41.74
44.69
47.02
49.38
52.17
55.21
57.62
58.33
56.55
52.24
46.12
39.41
33.46
29.47
28.28
30.23
35.00
41.45
47.86
52.49
54.30
53.60
52.06
51.95
55.07
61.75
70.60
79.10
84.73
86.00
82.88
76.33
67.54
57.36
46.38
35.36
25.60
18.80
16.23
17.96
22.38
26.79
28.34
25.18
17.09
5.38
-7.70
-19.95
-29.77
-36.60
-40.80
-43.38
-45.69
-48.96
-54.11
-61.47
-70.87
-81.79
-93.53
-105.10
-115.28
-122.64
-125.84
-124.13
-117.67
-107.70
-96.18
-85.16
-76.16
-69.70
-65.22
-61.39
-56.88
-50.89
-43.40
-35.01
-26.29
-17.33
-7.65
3.32
15.64
28.41
39.91
48.31
52.64
53.20
51.37
48.79
46.39
44.06
40.86
35.70
28.11
18.53
8.30
-0.72
-6.52
-7.46
-2.84
6.61
18.79
30.73
39.71
44.29
44.66
42.41
39.59
37.94
38.43
41.18
45.50
49.97
52.69
51.76
46.25
36.76
25.44
15.01
7.29
2.33
-1.47
-6.04
-12.24
-19.29
-25.41
-28.97
-29.40
-27.12
-22.70
-16.04
-6.19
8.01
26.97
49.72
73.99
96.91
115.83
129.11
136.41
138.66
137.68
135.45
133.30
131.41
128.83
123.95
115.47
103.28
88.71
74.11
61.92
53.61
49.25
47.73
47.69
48.38
50.06
53.68
60.05
68.95
78.78
87.06
91.33
90.29
84.34
75.35
65.75
57.51
51.24
46.05
39.91
30.37
15.47
-5.71
-33.04
-65.34
-100.64
-136.43
-169.86
-198.17
-219.39
-232.88
-239.62
-241.88
-242.29
-242.77
-243.86
-244.81
-244.22
-240.97
-234.81
-226.35
-216.60
-206.40
-196.03
-185.19
-173.32
-159.99
-145.22
-129.43
-113.13
-96.60
-79.69
-61.93
-42.90
-22.67
-1.92
18.28
36.90
53.31
67.50
79.91
91.32
102.53
114.19
126.55
139.16
150.64
159.06
162.63
160.37
152.60
140.69
126.55
111.91
97.98
85.40
74.33
64.39
54.42
42.40
25.98
3.39
-25.65
-59.89
-97.15
-135.23
-172.34
-206.77
-236.28
-257.96
-269.04
-268.26
-256.74
-237.62
-214.68
-190.76
-166.87
-142.54
-117.04
-90.46
-63.96
-39.35
-18.20
-1.20
12.07
22.94
33.30
44.98
59.11
75.50
92.47
107.32
117.17
120.02
115.21
103.26
85.17
61.87
34.08
2.72
-30.65
-63.75
-94.04
-119.43
-138.84
-152.09
-159.41
-160.85
-156.09
-144.59
-126.25
-101.83
-73.26
-43.48
-16.04
5.76
19.85
26.07
26.53
24.81
24.86
29.58
39.83
54.51
71.51
89.05
106.33
123.44
140.02
154.89
166.31
173.06
175.37
175.17
175.24
177.58
182.64
188.64
193.22
194.71
192.44
186.03
174.09
153.98
123.38
82.86
36.08
-10.21
-49.02
-76.42
-93.17
-104.04
-115.30
-131.60
-150.47
-167.16
-175.92
-173.19
-159.73
-139.66
-117.72
-97.08
-80.70
-66.79
-54.27
-43.37
-35.48
-32.22
-34.05
-39.71
-46.34
-51.12
-51.94
-49.09
-44.34
-40.15
-38.78
-41.48
-48.12
-57.04
-65.17
-68.20
-62.54
-46.40
-20.98
9.45
38.91
61.94
75.51
79.75
77.38
71.48
64.21
56.35
47.94
39.39
32.07
27.84
27.98
32.26
38.72
44.57
47.57
46.99
43.68
39.36
35.71
33.56
32.80
32.59
31.79
29.46
25.26
19.61
13.78
9.53
8.55
11.74
18.82
28.47
39.00
49.13
58.49
67.46
76.64
86.15
95.49
103.77
110.52
116.08
121.55
128.14
136.27
144.95
152.00
154.96
152.29
144.14
132.29
119.16
106.58
94.85
82.73
68.18
49.29
24.83
-5.81
-42.77
-85.64
-132.79
-180.64
-223.53
-254.67
-268.09
-260.70
-233.49
-191.17
-140.34
-87.29
-36.42
9.97
50.64
84.11
108.17
120.57
120.61
110.40
94.83
79.99
70.85
69.55
75.22
85.42
97.99
112.27
128.83
148.32
170.13
191.83
209.58
219.28
217.90
204.51
180.87
151.31
121.78
98.29
85.08
83.44
91.55
105.55
121.02
134.26
142.54
143.87
136.57
119.38
92.24
57.06
17.94
-19.75
-50.96
-72.44
-83.70
-86.82
-85.39
-82.99
-81.80
-81.86
-81.45
-78.37
-71.57
-62.20
-53.55
-49.53
-52.62
-62.38
-75.45
-87.21
-94.16
-95.66
-94.14
-93.55
-97.07
-105.60
-117.67
-130.80
-143.13
-154.41
-165.72
-178.17
-191.66
-204.63
-214.51
-219.02
-217.07
-209.07
-196.56
-181.31
-164.74
-147.63
-130.29
-112.98
-96.20
-80.94
-68.52
-60.28
-57.00
-58.55
-63.67
-70.34
-76.42
-80.35
-81.56
-80.38
-77.56
-73.89
-69.96
-66.27
-63.21
-61.09
-59.84
-58.78
-56.58
-51.64
-42.53
-28.54
-9.80
12.80
37.95
64.19
90.24
115.13
138.16
158.86
176.78
191.33
201.76
207.30
207.49
202.46
193.12
180.97
167.75
154.94
143.48
133.61
124.91
116.51
107.35
96.39
82.83
66.26
46.72
24.81
1.45
-22.22
-45.14
-66.43
-85.38
-101.36
-113.71
-121.80
-125.16
-123.61
-117.21
-105.98
-89.70
-68.04
-41.11
-10.21
21.73
50.43
71.40
81.30
79.21
66.76
47.46
25.38
3.90
-14.93
-30.37
-42.55
-51.99
-59.23
-64.86
-69.61
-74.20
-79.30
-85.27
-91.98
-98.87
-105.19
-110.40
-114.40
-117.52
-120.14
-122.32
-123.43
-122.31
-117.72
-108.93
-96.11
-80.36
-63.42
-47.05
-32.55
-20.56
-11.14
-4.10
0.77
3.61
4.72
4.68
4.32
4.53
5.96
8.79
12.76
17.43
22.33
27.21
31.96
36.63
41.20
45.56
49.49
52.73
55.06
56.37
56.66
56.03
54.66
52.73
50.46
48.17
46.25
45.12
45.03
45.88
47.17
48.22
48.49
47.82
46.49
44.96
43.62
42.47
41.27
39.75
37.88
35.99
34.64
34.24
34.83
35.96
36.82
36.56
34.68
31.30
27.28
23.96
22.72
24.45
29.21
36.24
44.25
51.99
58.70
64.24
68.95
73.25
77.30
81.00
84.23
87.12
90.27
94.41
100.06
107.17
114.88
121.87
126.82
128.94
128.23
125.38
121.29
116.54
111.11
104.42
95.81
84.95
72.13
58.17
44.14
30.93
19.04
8.55
-0.86
-9.60
-17.96
-25.99
-33.33
-39.34
-43.19
-44.18
-41.93
-36.61
-28.88
-19.82
-10.73
-2.99
2.05
3.12
-0.80
-10.29
-25.20
-44.49
-66.26
-88.13
-107.84
-123.80
-135.38
-142.85
-146.83
-147.80
-145.83
-140.77
-132.65
-122.06
-110.17
-98.40
-88.01
-79.77
-73.94
-70.39
-68.72
-68.31
-68.33
-67.87
-66.23
-63.30
-59.63
-56.32
-54.55
-55.08
-57.98
-62.55
-67.54
-71.50
-73.03
-71.10
-65.23
-55.54
-42.76
-28.10
-12.98
1.19
13.35
22.88
29.80
34.62
38.15
41.08
43.73
45.86
46.84
45.96
42.82
37.57
30.88
23.74
17.21
12.17
9.09
8.04
8.60
10.08
11.73
12.85
13.01
11.96
9.53
5.59
0.12
-6.60
-13.80
-20.14
-24.02
-24.07
-19.76
-11.74
-1.78
7.79
14.79
17.88
16.99
13.41
9.44
7.99
11.83
22.88
41.43
65.69
91.82
114.87
130.23
135.11
129.44
115.62
97.56
79.18
63.16
50.47
40.66
32.52
24.86
16.82
7.92
-1.99
-12.88
-24.46
-36.31
-47.90
-58.74
-68.41
-76.65
-83.35
-88.54
-92.31
-94.83
-96.32
-97.09
-97.40
-97.29
-96.46
-94.38
-90.69
-85.82
-81.19
-78.90
-80.84
-87.61
-97.82
-108.24
-114.97
-115.06
-107.86
-95.23
-80.71
-67.84
-58.77
-53.67
-51.08
-48.78
-44.51
-36.35
-22.75
-2.85
23.01
52.69
82.24
106.85
122.44
127.32
122.80
112.50
100.61
90.21
82.53
77.15
73.16
69.99
67.82
67.32
68.90
72.40
76.99
81.43
84.60
85.70
84.19
79.63
71.60
59.93
45.16
28.89
13.63
2.18
-3.45
-2.93
2.25
9.36
15.66
19.41
20.34
19.21
17.08
14.51
11.33
6.87
0.43
-8.29
-18.95
-30.71
-42.31
-52.50
-60.29
-65.18
-67.14
-66.49
-63.67
-59.09
-53.07
-45.98
-38.38
-30.82
-23.65
-16.69
-9.36
-1.03
8.47
18.54
28.02
35.87
41.86
46.75
51.83
57.91
64.51
69.71
71.01
66.58
56.34
42.19
27.32
14.84
6.72
3.27
3.53
6.03
9.61
13.86
19.05
25.65
34.08
44.39
56.34
69.35
82.47
94.26
102.82
106.23
103.04
92.92
76.83
56.68
34.71
12.75
-8.10
-27.25
-44.20
-58.23
-68.44
-74.08
-75.06
-72.03
-66.32
-59.60
-53.38
-48.69
-45.84
-44.50
-43.86
-43.05
-41.55
-39.38
-36.99
-34.87
-33.22
-31.88
-30.49
-28.73
-26.46
-23.66
-20.18
-15.72
-9.94
-2.82
5.24
13.39
20.65
26.13
29.11
29.05
25.61
18.86
9.49
-1.14
-11.35
-19.78
-25.87
-30.03
-33.15
-36.06
-39.00
-41.64
-43.31
-43.54
-42.31
-40.18
-38.23
-37.89
-40.80
-48.41
-61.47
-79.48
-100.31
-120.22
-134.48
-138.50
-129.32
-106.92
-74.70
-38.73
-5.75
19.13
34.03
40.42
41.71
41.28
40.92
40.78
40.28
39.41
39.32
41.84
48.28
58.41
70.34
81.29
88.95
92.42
92.57
91.60
92.07
95.83
103.14
112.34
120.25
123.26
118.54
104.96
83.42
56.31
26.67
-2.60
-29.21
-51.45
-68.20
-78.80
-83.32
-82.62
-78.26
-71.92
-64.76
-56.97
-48.11
-37.83
-26.75
-16.66
-10.04
-8.76
-13.03
-21.07
-29.81
-36.38
-39.41
-39.58
-38.79
-39.02
-41.08
-44.34
-47.45
-49.31
-49.71
-49.28
-48.69
-47.91
-45.87
-40.70
-30.52
-14.18
8.33
35.95
66.84
98.82
129.69
157.56
181.02
199.16
211.44
217.60
217.56
211.44
199.66
183.00
162.50
139.37
114.75
89.67
64.91
41.02
18.38
-2.73
-21.93
-38.62
-51.86
-60.69
-64.52
-63.77
-60.12
-56.30
-55.14
-58.36
-65.58
-74.28
-80.74
-81.69
-75.91
-64.80
-51.65
-40.11
-32.64
-29.77
-30.45
-33.05
-36.13
-38.82
-40.58
-40.84
-39.08
-35.24
-30.27
-26.23
-25.75
-31.10
-43.23
-61.15
-82.15
-102.63
-119.37
-130.71
-136.92
-139.72
-141.14
-142.11
-141.90
-138.57
-130.35
-116.66
-98.65
-78.56
-58.59
-40.10
-23.60
-8.90
4.64
18.45
34.80
56.11
83.35
114.41
143.54
163.08
166.52
151.65
121.73
84.26
47.86
19.20
1.29
-6.20
-5.50
0.74
10.22
20.76
29.93
35.06
33.89
25.57
11.27
-5.89
-21.72
-32.51
-36.39
-33.91
-27.66
-21.08
-17.10
-17.49
-22.71
-32.42
-45.63
-60.62
-74.76
-84.91
-88.47
-84.42
-73.52
-57.33
-36.75
-11.26
20.48
58.86
101.56
143.16
176.81
196.96
201.68
193.26
176.87
157.95
140.27
125.21
112.56
101.96
93.61
88.06
85.24
83.57
80.00
71.14
55.17
33.09
8.82
-12.56
-27.28
-34.78
-38.08
-42.28
-52.17
-70.02
-94.84
-123.01
-149.67
-170.36
-182.11
-183.93
-176.84
-163.37
-146.87
-130.65
-117.02
-106.67
-98.61
-90.69
-80.46
-65.86
-45.59
-19.24
12.74
48.99
87.08
123.59
154.47
175.62
183.70
176.68
154.12
117.20
68.74
13.11
-44.24
-97.48
-141.77
-174.60
-196.47
-210.37
-220.20
-228.88
-237.24
-243.91
-246.50
-242.92
-232.33
-215.22
-192.73
-166.12
-136.58
-105.65
-75.72
-50.12
-32.55
-25.85
-30.83
-45.53
-65.63
-85.65
-100.54
-106.98
-103.69
-90.95
-69.60
-40.48
-4.40
37.25
82.19
127.56
171.12
212.26
252.24
293.47
337.81
384.98
431.93
473.30
502.80
514.69
505.46
474.39
423.92
359.54
288.84
220.05
160.38
114.66
84.60
68.89
63.50
62.38
58.29
44.28
15.60
-28.46
-83.82
-142.68
-195.99
-236.55
-260.99
-269.91
-266.38
-253.97
-235.59
-213.22
-188.69
-164.26
-142.65
-126.55
-118.10
-118.79
-129.11
-148.66
-175.87
-207.73
-239.75
-266.67
-283.46
-286.48
-274.09
-246.61
-205.72
-153.90
-94.35
-31.17
30.21
83.35
121.69
139.97
135.78
110.53
69.24
19.28
-31.49
-76.54
-111.70
-135.07
-146.17
-145.01
-131.77
-107.32
-73.87
-35.40
3.11
37.15
64.44
85.69
103.91
122.64
143.85
167.03
189.54
208.07
220.21
225.35
224.53
219.78
213.24
206.54
200.56
195.44
190.70
185.31
177.71
165.83
147.39
120.79
86.11
45.93
5.16
-30.25
-55.41
-68.30
-70.31
-65.20
-56.95
-48.01
-38.66
-27.96
-15.43
-2.21
9.01
15.29
14.87
8.03
-3.13
-15.95
-28.40
-39.91
-51.50
-65.43
-84.65
-111.99
-149.24
-196.15
-249.71
-304.36
-353.19
-389.79
-410.17
-413.78
-403.17
-382.49
-355.45
-324.21
-289.14
-249.70
-205.79
-158.88
-112.03
-68.63
-30.68
3.34
37.75
77.90
127.39
186.01
249.32
310.34
362.29
400.95
426.75
442.43
450.77
452.83
447.95
435.15
415.02
390.46
366.15
348.81
343.17
349.89
365.20
382.55
395.41
399.66
394.60
382.29
368.61
358.89
355.80
358.77
364.80
370.13
371.42
366.13
335.97
270.35
168.54
40.95
-94.79
-221.52
-328.45
-411.95
-473.60
-516.33
-543.13
-555.54
-554.92
-543.97
-527.00
-508.89
-493.32
-481.61
-471.85
-458.82
-437.47
-405.75
-365.93
-323.73
-285.70
-256.31
-236.27
-222.54
-208.57
-187.32
-153.85
-106.32
-46.33
21.72
91.88
157.99
215.29
262.15
299.28
328.51
351.82
370.37
384.09
392.34
394.64
391.18
383.41
373.21
362.08
351.68
343.30
337.02
331.59
324.49
312.40
292.61
263.52
225.12
180.15
133.14
88.18
48.00
13.67
-17.41
-45.48
-66.56
-80.22
-89.39
-98.50
-113.80
-140.84
-182.17
-235.68
-294.37
-349.02
-391.50
-416.26
-421.69
-410.88
-389.39
-363.37
-337.78
-315.41
-297.53
-284.90
-277.46
-269.57
-256.52
-234.44
-201.79
-159.91
-112.49
-64.51
-20.76
15.70
43.86
63.62
75.89
81.88
83.03
80.72
76.04
69.68
62.01
52.72
40.07
22.33
-0.94
-27.31
-51.54
-67.16
-68.95
-55.27
-29.11
2.78
33.11
54.68
64.32
62.42
51.05
32.50
9.43
-14.15
-32.13
-38.33
-28.27
-1.44
37.16
78.21
111.44
129.70
131.61
121.93
108.67
99.40
98.41
105.39
116.57
127.36
134.80
135.93
131.18
122.19
110.40
96.40
80.07
61.57
42.13
24.03
9.74
1.06
-2.32
-2.61
-2.92
-5.86
-12.47
-22.00
-32.54
-42.28
-50.03
-55.91
-60.73
-65.16
-69.03
-71.35
-70.85
-66.79
-59.51
-50.14
-40.32
-31.34
-23.71
-17.18
-11.14
-5.19
0.50
5.29
8.53
9.95
9.86
9.03
8.26
8.00
8.21
8.45
8.22
7.33
5.91
4.36
3.05
2.10
1.30
0.18
-1.71
-4.62
-8.41
-12.57
-16.29
-18.75
-19.28
-17.61
-13.99
-9.26
-4.70
-1.80
-1.85
-5.51
-12.49
-21.42
-30.10
-36.22
-38.06
-35.02
-27.78
-17.92
-7.30
2.51
10.61
16.70
20.86
23.25
24.04
23.39
21.61
19.23
16.98
15.45
14.95
15.32
16.08
16.56
16.24
14.89
12.63
9.83
6.86
4.03
1.45
-0.84
-2.83
-4.40
-5.31
-5.28
-4.14
-1.90
1.18
4.67
8.08
10.96
12.96
13.98
14.05
13.38
12.29
11.13
10.20
9.60
9.28
9.00
8.51
7.62
6.33
4.76
3.12
1.60
0.29
-0.76
-1.68
-2.65
-3.93
-5.75
-8.14
-10.86
-13.48
-15.54
-16.67
-16.74
-15.83
-14.07
-11.64
-8.69
-5.46
-2.24
0.56
2.60
3.68
3.83
3.25
2.18
0.81
-0.73
-2.37
-4.06
-5.72
-7.37
-9.07
-10.94
-13.13
-15.71
-18.68
-21.99
-25.59
-29.41
-33.46
-37.77
-42.45
-47.66
-53.60
-60.40
-67.99
-75.94
-83.49
-89.77
-94.09
-96.10
-95.86
-93.62
-89.60
-83.81
-75.99
-65.74
-52.79
-37.12
-19.18
0.20
19.83
38.33
54.37
66.91
75.39
79.79
80.53
78.25
73.53
66.83
58.53
48.93
38.39
27.31
16.05
4.81
-6.44
-18.00
-30.36
-43.90
-58.69
-74.27
-89.62
-103.43
-114.48
-122.06
-126.10
-127.02
-125.36
-121.30
-114.60
-104.68
-91.06
-73.65
-52.85
-29.46
-4.39
21.44
47.13
71.66
94.02
113.37
129.37
142.25
152.50
160.28
165.01
165.33
159.71
147.36
128.91
106.43
82.75
60.38
40.66
23.62
8.40
-5.99
-19.98
-33.31
-45.10
-54.28
-59.94
-61.60
-59.27
-53.35
-44.48
-33.35
-20.59
-6.76
7.50
21.49
34.43
45.72
55.07
62.64
68.90
74.27
78.83
82.21
83.76
83.08
80.31
76.31
72.44
69.98
69.75
71.70
75.00
78.26
80.02
79.18
75.22
68.36
59.24
48.61
37.00
24.47
10.73
-4.62
-21.75
-40.23
-58.86
-75.86
-89.26
-97.38
-99.38
-95.39
-86.51
-74.34
-60.64
-46.86
-34.12
-23.20
-14.78
-9.42
-7.42
-8.62
-12.23
-16.95
-21.28
-24.00
-24.49
-22.73
-19.16
-14.38
-8.95
-3.39
1.70
5.52
7.19
5.94
1.43
-6.12
-16.02
-27.44
-39.77
-52.66
-65.87
-78.78
-90.12
-98.11
-100.97
-97.65
-88.38
-74.63
-58.52
-42.06
-26.51
-12.14
1.38
14.46
27.11
38.69
48.21
54.72
57.80
57.84
55.88
53.36
51.43
50.61
50.55
50.21
48.34
43.94
36.65
26.92
15.86
5.04
-3.83
-9.18
-9.95
-6.03
1.53
10.54
18.21
21.92
20.32
13.88
4.87
-3.41
-7.81
-6.47
0.60
11.73
24.37
36.09
45.45
52.27
57.52
62.69
69.19
77.72
88.07
99.21
109.77
118.57
124.86
128.44
129.32
127.40
122.37
113.81
101.57
85.99
68.10
49.29
30.93
13.99
-1.23
-15.04
-28.12
-41.18
-54.51
-67.79
-80.15
-90.42
-97.63
-101.40
-102.09
-100.54
-97.69
-94.18
-90.20
-85.60
-80.08
-73.44
-65.61
-56.71
-46.99
-36.93
-27.16
-18.46
-11.56
-6.94
-4.65
-4.48
-6.00
-8.69
-12.02
-15.39
-18.14
-19.72
-19.88
-18.85
-17.29
-15.99
-15.47
-15.72
-16.26
-16.41
-15.76
-14.35
-12.60
-10.99
-9.69
-8.49
-6.90
-4.59
-1.61
1.48
3.89
4.94
4.40
2.60
0.25
-1.90
-3.30
-3.87
-3.83
-3.63
-3.63
-3.97
-4.60
-5.32
-5.96
-6.37
-6.50
-6.29
-5.62
-4.35
-2.46
-0.07
2.54
4.92
6.69
7.56
7.48
6.58
5.16
3.53
1.91
0.42
-1.01
-2.48
-4.11
-5.88
-7.58
-8.91
-9.58
-9.38
-8.31
-6.58
-4.45
-2.19
0.16
2.76
5.92
9.91
14.75
20.04
25.07
29.08
31.50
32.22
31.53
29.94
27.94
25.86
23.87
22.16
21.06
21.03
22.36
24.96
28.26
31.33
33.37
34.03
33.67
33.17
33.56
35.50
39.06
43.80
48.91
53.59
57.13
58.96
58.65
55.99
51.07
44.38
36.78
29.29
22.82
18.01
15.20
14.38
15.35
17.67
20.67
23.52
25.41
25.71
24.08
20.42
14.82
7.45
-1.47
-11.74
-23.21
-35.85
-49.64
-64.44
-79.73
-94.43
-107.09
-116.32
-121.22
-121.72
-118.49
-112.53
-104.84
-96.22
-87.28
-78.57
-70.65
-63.92
-58.64
-54.90
-52.66
-51.86
-52.28
-53.36
-54.23
-53.89
-51.67
-47.65
-42.70
-38.10
-34.98
-33.86
-34.62
-36.78
-39.96
-44.10
-49.39
-56.06
-64.19
-73.57
-83.72
-93.77
-102.51
-108.42
-109.92
-105.89
-96.12
-81.51
-63.83
-45.10
-26.94
-10.15
5.23
19.43
32.51
43.98
53.03
58.84
61.20
60.72
58.67
56.47
55.14
54.84
55.03
54.87
53.74
51.55
48.59
45.14
41.00
35.51
27.73
17.05
3.43
-12.44
-29.35
-45.82
-60.23
-71.05
-76.97
-77.17
-71.68
-61.43
-48.10
-33.53
-19.26
-6.11
5.79
16.63
26.65
35.99
44.72
52.93
60.72
67.87
73.70
77.16
77.20
73.33
65.95
56.16
45.28
34.15
22.90
11.00
-2.22
-17.11
-33.51
-50.93
-68.70
-86.16
-102.40
-116.16
-125.75
-129.39
-125.82
-114.80
-97.32
-75.41
-51.47
-27.68
-5.46
14.60
32.52
48.44
62.27
73.54
81.66
86.31
87.88
87.45
86.48
86.09
86.56
87.12
86.33
82.77
75.62
65.07
52.18
38.41
25.01
12.61
0.94
-10.97
-24.44
-40.52
-59.41
-80.19
-100.82
-118.74
-131.59
-137.96
-137.74
-132.07
-122.88
-112.15
-101.37
-91.25
-81.93
-73.23
-64.90
-56.66
-48.04
-38.54
-27.96
-16.91
-7.04
-0.71
-0.01
-5.60
-16.04
-28.12
-38.16
-43.58
-43.88
-40.58
-36.24
-33.10
-32.11
-32.70
-33.23
-31.88
-27.46
-20.07
-11.08
-2.54
3.93
7.92
10.63
14.46
21.97
35.23
55.82
85.42
125.99
178.89
242.89
312.38
377.44
426.20
449.03
442.36
410.09
361.66
308.24
258.42
215.95
180.03
147.07
112.63
72.51
23.38
-36.38
-105.39
-178.29
-245.99
-298.09
-326.46
-328.28
-307.21
-271.67
-231.16
-192.47
-157.54
-123.78
-86.43
-41.57
11.37
68.40
121.85
162.71
183.46
180.33
154.31
110.73
57.71
5.02
-37.78
-62.50
-63.64
-39.79
5.39
63.54
123.76
176.11
215.55
242.40
261.08
277.03
293.70
311.26
327.59
340.40
348.98
355.56
362.58
370.77
377.80
379.08
369.76
347.53
314.07
274.39
235.23
199.84
166.52
130.37
87.44
38.46
-10.07
-48.78
-79.18
-104.10
-130.44
-165.66
-212.33
-265.36
-314.45
-349.69
-366.71
-368.10
-360.12
-348.72
-336.81
-324.04
-308.66
-289.75
-268.34
-247.08
-228.41
-212.97
-200.19
-188.47
-176.19
-162.89
-149.73
-139.15
-133.89
-135.34
-142.50
-152.99
-163.45
-171.17
-175.29
-177.07
-179.02
-183.83
-191.54
-199.69
-204.91
-203.40
-193.69
-177.66
-160.05
-146.30
-141.04
-143.98
-151.48
-159.13
-161.37
-154.09
-135.58
-106.10
-67.02
-21.57
29.65
86.16
146.40
211.09
282.11
361.32
449.21
543.57
636.78
721.93
791.53
820.69
791.18
699.29
560.36
402.68
268.76
167.17
93.58
40.25
0.82
-28.39
-46.17
-51.49
-46.26
-35.42
-27.01
-23.94
-25.51
-29.23
-30.32
-25.13
-13.35
1.82
15.35
21.26
18.89
11.16
2.02
-4.25
-6.16
-5.95
-8.62
-19.44
-42.04
-73.97
-108.43
-137.35
-153.83
-155.80
-145.79
-129.57
-113.77
-104.53
-105.67
-119.19
-145.14
-180.42
-219.90
-255.33
-277.82
-281.21
-265.47
-237.12
-206.90
-185.38
-178.90
-190.46
-218.26
-258.03
-304.50
-352.39
-396.63
-432.08
-454.02
-445.23
-397.61
-314.75
-212.49
-111.22
-26.49
35.61
77.30
104.99
125.18
138.40
145.14
144.98
138.34
126.96
113.26
99.58
87.71
78.84
71.85
66.38
62.35
60.80
63.66
72.72
88.90
111.93
140.27
170.04
196.69
215.40
222.56
216.59
198.33
171.00
139.58
109.67
85.67
70.51
64.83
67.35
74.95
83.33
88.13
86.40
77.73
64.19
49.41
36.44
26.41
18.18
9.62
-0.60
-11.75
-21.38
-27.01
-28.00
-26.56
-26.59
-31.60
-42.51
-56.86
-69.94
-76.86
-74.86
-64.13
-47.42
-28.56
-11.18
2.10
9.66
10.79
5.69
-4.41
-16.78
-27.88
-34.27
-33.86
-26.68
-14.92
-2.12
8.02
12.34
9.46
-0.60
-16.34
-35.38
-55.08
-73.37
-89.32
-102.85
-114.29
-122.12
-123.44
-114.22
-90.99
-52.27
0.73
64.48
134.32
204.89
272.15
327.41
360.23
361.72
329.67
271.27
200.84
138.01
90.31
58.92
41.23
33.91
34.58
42.39
57.88
81.55
113.06
149.98
189.58
228.54
263.92
293.44
314.86
326.37
326.69
315.42
292.90
261.48
224.25
184.30
143.95
102.92
60.21
15.43
-30.20
-74.32
-113.68
-146.06
-170.88
-188.92
-204.41
-222.22
-246.13
-278.05
-318.09
-364.57
-415.09
-467.09
-517.76
-567.92
-619.55
-673.72
-729.63
-784.55
-834.44
-875.11
-903.34
-893.46
-828.63
-705.99
-539.17
-354.18
-178.78
-32.90
74.76
145.56
184.66
203.99
213.83
222.10
233.21
247.89
264.08
279.72
290.57
295.08
293.21
286.03
276.19
267.25
261.71
262.22
270.77
287.29
309.99
334.81
352.08
357.71
353.10
342.20
327.06
305.30
272.35
226.75
172.41
117.48
71.40
39.17
19.57
7.34
-2.72
-12.51
-20.15
-22.86
-20.10
-13.49
-6.80
-3.71
-5.71
-11.77
-18.74
-23.15
-22.80
-18.12
-11.38
-6.44
-6.48
-12.69
-24.24
-38.32
-51.86
-62.59
-70.08
-75.41
-80.95
-88.68
-99.84
-115.06
-134.02
-155.00
-174.41
-187.12
-185.19
-166.48
-133.22
-92.01
-52.07
-21.47
-3.96
2.05
1.98
1.88
5.30
13.01
23.96
36.20
48.89
62.32
77.45
94.82
113.95
133.27
149.67
163.22
174.76
184.72
191.79
192.46
182.30
158.33
121.36
76.88
33.51
-0.96
-22.38
-31.22
-31.31
-27.31
-22.46
-17.92
-13.49
-8.67
-3.94
-0.31
1.55
1.95
2.05
3.12
6.13
10.90
16.50
21.35
24.09
24.08
21.50
17.10
11.58
5.54
-1.02
-8.36
-16.89
-26.68
-37.22
-47.77
-56.90
-64.55
-70.77
-75.97
-80.48
-84.43
-87.58
-89.38
-89.59
-88.47
-86.99
-86.26
-87.27
-90.19
-94.40
-98.83
-101.74
-102.06
-99.70
-95.52
-90.63
-86.48
-83.57
-82.33
-82.52
-82.53
-79.40
-69.14
-48.40
-16.42
23.68
65.46
101.23
125.30
136.18
136.21
129.77
120.54
109.74
96.44
79.38
58.52
35.73
15.28
0.77
-6.27
-6.81
-3.74
-0.16
2.16
3.38
5.46
11.24
22.88
41.06
64.89
91.71
116.72
135.15
141.55
131.42
103.12
59.35
7.53
-41.32
-77.87
-95.63
-93.66
-77.01
-54.08
-33.23
-20.08
-16.12
-19.15
-25.76
-33.07
-39.68
-45.43
-50.21
-53.22
-53.02
-48.71
-40.84
-31.68
-24.18
-20.72
-22.43
-28.28
-35.84
-42.26
-45.39
-44.41
-39.99
-33.51
-26.41
-19.63
-13.13
-6.36
1.26
9.82
18.64
26.37
31.52
32.91
30.03
23.52
14.60
4.74
-4.80
-13.18
-20.25
-26.30
-31.93
-37.75
-43.68
-49.45
-54.58
-58.59
-61.19
-62.47
-62.87
-63.08
-63.79
-64.85
-65.79
-65.75
-63.70
-58.73
-50.26
-37.99
-21.51
-3.85
13.87
31.25
48.37
65.54
83.18
101.74
121.63
142.87
164.50
184.82
200.72
208.64
206.03
192.59
170.60
144.17
117.44
93.06
72.07
53.98
38.15
24.85
15.41
11.37
13.22
19.69
28.05
35.62
40.76
43.44
45.08
47.56
52.18
59.00
66.83
73.91
78.89
81.35
81.69
80.90
80.20
80.77
83.26
87.44
92.01
95.12
94.92
89.64
78.22
60.46
37.88
13.67
-7.82
-22.37
-27.47
-23.84
-16.62
-13.69
-23.09
-49.00
-90.03
-140.22
-191.76
-238.05
-272.24
-289.43
-288.47
-273.24
-249.49
-221.91
-193.43
-166.05
-141.62
-121.81
-110.11
-107.47
-114.50
-129.92
-150.06
-169.45
-181.51
-179.63
-158.91
-118.41
-59.15
11.77
84.98
152.12
207.29
248.05
275.22
291.76
300.51
303.74
302.25
296.44
286.53
271.57
249.98
220.75
184.41
142.16
96.15
48.33
-0.99
-47.76
-87.89
-120.38
-147.95
-174.03
-200.21
-223.39
-236.68
-232.36
-205.74
-158.63
-98.63
-37.57
19.08
68.34
109.19
141.18
163.48
174.95
174.38
162.08
140.89
116.38
94.45
80.26
76.61
84.03
99.85
118.22
131.99
135.30
125.80
104.28
74.00
38.68
0.80
-38.76
-80.00
-122.30
-163.84
-202.08
-235.52
-264.06
-288.67
-310.57
-330.31
-347.33
-360.00
-365.94
-362.26
-346.18
-315.59
-270.27
-213.13
-150.85
-92.78
-48.49
-24.88
-24.10
-43.47
-77.09
-118.32
-161.46
-202.18
-236.74
-261.08
-270.86
-262.61
-235.31
-191.42
-136.52
-77.73
-21.72
26.67
64.92
92.58
110.55
120.64
125.26
127.03
128.14
129.78
131.98
134.12
135.87
137.79
141.17
147.15
155.67
164.97
172.17
174.62
171.28
163.31
153.65
145.72
141.92
142.58
145.73
147.48
142.97
127.66
98.85
57.00
6.31
-45.88
-90.91
-121.40
-133.47
-127.59
-107.74
-79.25
-46.55
-11.83
24.76
63.71
104.43
144.50
180.15
207.71
225.30
233.59
235.38
234.16
232.57
231.42
229.94
226.82
221.53
214.90
208.75
204.82
203.56
203.81
203.24
199.55
191.57
179.70
165.53
150.86
136.73
122.86
107.89
90.10
68.16
41.52
10.44
-24.23
-61.09
-98.19
-133.09
-163.15
-186.22
-201.49
-210.07
-214.90
-219.79
-227.87
-240.51
-256.78
-273.76
-287.64
-294.95
-293.55
-283.14
-265.12
-241.71
-215.48
-188.79
-163.29
-139.78
-118.31
-98.43
-79.61
-61.53
-43.57
-25.88
-9.74
2.74
9.63
10.35
6.35
0.66
-3.24
-1.12
8.96
25.67
44.76
60.86
69.64
69.28
60.65
46.45
32.51
23.10
19.10
18.24
17.69
17.13
20.32
34.02
64.95
119.94
199.06
294.21
391.18
474.89
534.90
568.18
578.25
552.56
486.58
385.02
262.78
137.86
22.59
-78.63
-166.01
-238.66
-297.64
-336.67
-348.52
-330.03
-285.76
-227.93
-173.08
-136.70
-131.07
-159.71
-211.97
-269.15
-311.48
-325.41
-307.67
-265.06
-210.86
-159.61
-122.34
-101.81
-95.35
-97.76
-104.09
-110.55
-113.95
-111.09
-98.93
-75.46
-40.03
4.83
53.89
101.16
142.38
176.69
206.53
236.42
271.34
315.77
371.54
436.40
503.38
561.93
600.89
612.57
595.75
556.30
504.61
451.08
402.35
360.01
321.88
284.88
247.46
210.27
175.25
144.04
116.94
92.74
69.63
46.12
21.69
-3.09
-27.06
-49.38
-69.67
-88.20
-105.67
-122.88
-140.52
-159.05
-178.65
-199.27
-220.85
-243.10
-265.67
-288.06
-309.92
-331.12
-351.69
-371.90
-392.56
-415.79
-444.45
-480.69
-523.92
-569.24
-607.46
-627.67
-621.17
-585.19
-525.43
-452.75
-378.20
-308.37
-244.10
-182.98
-122.93
-64.76
-11.42
32.53
65.80
90.96
112.07
130.58
143.48
145.91
135.95
118.22
99.36
86.78
83.69
87.22
89.22
80.48
55.75
16.54
-30.60
-82.61
-138.29
-198.23
-261.70
-325.88
-386.51
-439.32
-481.06
-482.83
-427.75
-317.44
-174.94
-30.63
93.20
188.17
255.96
302.59
334.18
351.13
352.86
337.96
309.41
271.74
229.61
186.44
144.29
104.25
63.59
25.95
-7.76
-36.07
-57.79
-71.91
-84.64
-97.10
-109.36
-122.32
-134.42
-142.24
-139.46
-120.06
-79.91
-11.29
79.20
175.20
257.75
315.04
344.57
351.90
344.60
329.74
311.75
292.48
273.51
256.51
243.22
233.32
228.91
225.87
221.80
216.50
210.83
207.04
207.76
215.32
229.32
246.68
261.76
269.62
267.29
255.07
237.62
219.04
206.89
206.23
216.65
231.68
242.68
242.39
227.84
201.56
168.74
135.45
105.32
79.10
55.52
33.65
13.80
-2.70
-14.60
-24.10
-33.97
-46.62
-62.75
-81.75
-101.84
-120.90
-137.11
-149.54
-163.11
-182.25
-208.71
-240.58
-274.23
-306.18
-333.68
-354.63
-367.64
-379.62
-396.41
-419.42
-445.18
-468.90
-487.57
-500.23
-507.10
-509.03
-517.02
-540.24
-581.71
-637.42
-701.14
-768.37
-836.27
-903.20
-908.10
-818.17
-642.46
-426.04
-215.85
-37.51
102.44
206.81
280.63
330.25
355.05
359.36
354.72
355.83
372.30
403.28
440.86
475.01
498.13
500.61
477.39
431.01
370.35
305.80
244.15
190.26
147.25
118.04
100.72
93.49
96.03
108.44
133.48
164.86
195.12
218.69
233.14
235.91
224.47
198.73
162.45
122.66
85.92
60.54
52.63
62.09
81.82
102.28
116.28
121.15
117.91
107.50
91.21
69.71
43.11
11.23
-26.27
-69.60
-119.73
-169.86
-215.95
-254.66
-283.10
-297.75
-294.41
-269.96
-224.99
-165.19
-100.29
-42.00
1.51
27.78
39.51
42.01
40.22
37.03
33.41
29.66
25.53
21.67
18.96
17.70
17.27
16.43
13.98
9.43
3.42
-3.20
-9.28
-13.96
-17.11
-19.30
-21.45
-24.34
-28.16
-32.27
-35.71
-37.32
-36.09
-31.58
-23.90
-13.90
-2.06
11.04
24.93
39.18
53.36
67.07
79.78
90.99
100.25
107.32
112.11
114.71
115.40
114.50
112.33
109.24
105.48
101.37
97.45
94.26
92.27
91.51
91.26
90.00
85.87
77.18
63.45
45.67
25.97
6.77
-10.25
-24.85
-38.03
-51.22
-65.45
-80.43
-94.81
-106.96
-115.88
-121.49
-124.36
-125.21
-123.37
-118.85
-112.53
-106.51
-103.57
-105.99
-114.19
-126.33
-138.89
-148.35
-152.83
-152.45
-148.68
-142.81
-134.83
-123.19
-105.93
-82.29
-53.72
-23.79
3.30
24.60
39.45
49.32
56.42
62.14
66.26
67.39
64.22
56.95
47.72
39.69
35.59
36.51
41.47
48.16
54.10
57.61
58.28
56.75
54.08
51.10
47.98
44.29
39.27
32.18
22.59
10.44
-3.83
-19.33
-34.62
-47.76
-56.64
-59.46
-55.42
-44.98
-29.81
-12.14
5.98
23.23
39.12
53.60
66.58
77.61
86.03
91.31
93.43
92.95
90.83
87.99
84.95
81.74
78.00
73.37
67.70
61.19
54.31
47.61
41.54
36.42
32.30
28.94
25.82
22.20
17.57
12.10
7.04
4.68
7.74
18.16
36.01
59.05
83.18
103.65
116.56
119.88
113.75
100.11
82.01
62.78
45.39
32.04
23.86
20.78
21.71
24.94
28.57
30.84
30.37
26.13
17.57
4.72
-11.65
-30.13
-48.99
-66.69
-82.16
-94.86
-104.60
-111.39
-115.41
-117.39
-118.71
-121.26
-126.71
-135.56
-146.49
-156.51
-161.98
-159.95
-149.32
-131.05
-107.64
-81.97
-56.32
-31.90
-9.05
12.12
31.25
47.49
59.89
68.01
72.34
74.45
76.44
80.16
86.50
95.05
104.30
112.38
117.93
120.71
121.71
122.62
125.08
130.06
137.56
146.87
156.92
166.55
174.65
180.07
181.59
177.95
168.07
151.32
127.85
98.95
67.37
37.25
13.47
0.26
-0.35
10.52
28.65
48.21
63.73
71.55
70.61
62.15
48.75
33.60
20.07
10.93
7.79
10.48
16.42
21.79
23.30
19.58
11.55
1.52
-9.29
-21.60
-37.71
-60.61
-91.63
-129.61
-171.61
-214.66
-256.40
-295.67
-330.62
-357.24
-370.73
-367.30
-346.59
-312.78
-273.17
-234.40
-200.77
-172.68
-142.75
-105.62
-60.21
-10.18
38.34
76.74
104.61
124.41
138.40
147.29
151.00
148.78
140.74
128.31
113.44
97.92
81.06
60.09
31.59
-6.97
-54.31
-103.75
-144.48
-165.62
-160.82
-133.13
-94.21
-59.43
-41.37
-44.05
-61.85
-83.35
-97.08
-95.78
-78.17
-47.06
-7.38
34.60
71.35
94.61
97.66
78.65
42.88
1.71
-31.41
-46.52
-41.01
-19.94
7.27
31.31
46.17
49.79
42.85
27.25
5.34
-20.27
-46.63
-70.99
-91.73
-108.92
-123.98
-138.32
-151.81
-162.26
-166.13
-160.41
-144.34
-120.05
-91.63
-63.44
-38.47
-17.80
-1.09
12.49
23.49
32.06
38.34
42.83
46.20
49.02
51.27
52.26
50.95
46.52
38.94
29.23
19.15
10.46
4.25
0.44
-2.18
-5.44
-10.97
-19.53
-30.75
-43.44
-56.21
-68.02
-78.28
-86.57
-92.17
-93.90
-90.36
-80.64
-65.02
-45.05
-23.21
-2.00
16.75
32.27
44.57
53.99
60.78
64.91
66.33
65.21
62.18
58.20
54.26
51.13
49.14
48.17
47.86
47.88
48.04
48.29
48.69
49.20
49.69
49.90
49.45
47.94
44.97
40.32
34.16
27.21
20.65
15.93
14.20
15.98
20.96
28.24
36.75
45.65
54.57
63.37
71.90
79.81
86.63
92.03
96.15
99.66
103.51
108.56
115.06
122.55
130.01
136.24
140.39
142.17
141.92
140.29
137.99
135.52
133.10
130.59
127.49
123.10
116.69
107.93
97.14
85.48
74.66
66.46
62.08
61.77
64.78
69.64
74.72
78.66
80.70
80.71
79.01
76.06
72.16
67.43
61.92
55.84
49.77
44.58
41.01
39.26
38.64
37.74
35.05
29.56
21.26
10.98
-0.08
-11.02
-21.67
-32.48
-44.16
-57.22
-71.66
-86.90
-101.89
-115.37
-125.97
-132.50
-134.26
-131.22
-124.20
-114.64
-104.20
-94.30
-85.81
-79.08
-74.11
-70.81
-69.16
-69.12
-70.54
-73.01
-75.97
-78.77
-80.93
-82.27
-82.92
-83.28
-83.77
-84.47
-84.95
-84.25
-81.31
-75.50
-67.11
-57.51
-48.67
-42.34
-39.19
-38.24
-37.22
-33.36
-24.66
-10.79
6.81
25.52
42.73
56.87
67.86
76.89
85.78
96.31
109.50
125.11
141.37
154.83
160.72
154.25
132.50
96.36
51.24
5.81
-30.88
-52.86
-59.38
-54.84
-46.52
-41.44
-43.78
-54.13
-70.36
-89.40
-108.58
-126.01
-140.16
-149.21
-150.88
-143.11
-125.04
-97.84
-64.77
-30.41
0.67
25.43
43.16
55.26
64.29
72.53
80.95
88.88
94.69
96.78
94.51
88.46
80.05
70.77
61.44
52.08
42.24
31.46
19.80
7.92
-3.25
-12.93
-20.89
-27.51
-33.54
-39.76
-46.47
-53.24
-58.88
-61.64
-59.81
-52.22
-38.78
-20.66
0.03
20.83
39.67
55.32
67.53
76.70
83.46
88.31
91.51
93.05
92.79
90.49
85.78
78.34
67.97
54.95
40.18
25.10
11.38
0.28
-7.70
-13.05
-16.99
-21.06
-26.66
-34.80
-45.95
-60.01
-76.16
-92.71
-107.15
-116.63
-118.74
-112.52
-98.82
-80.02
-59.15
-38.88
-20.94
-6.30
4.45
10.84
12.88
11.58
9.15
8.44
11.64
18.98
28.18
35.14
35.72
27.67
11.72
-8.60
-28.55
-44.10
-53.53
-58.07
-61.23
-67.61
-81.29
-104.72
-137.92
-178.20
-220.24
-256.86
-280.46
-285.53
-271.17
-242.18
-207.83
-177.99
-158.57
-148.57
-140.94
-126.85
-100.96
-64.76
-25.52
7.98
30.37
42.07
48.23
55.13
66.80
83.49
102.35
119.44
131.52
136.92
135.74
129.46
120.48
111.22
103.29
96.82
90.75
83.83
76.07
69.28
66.34
69.54
78.94
92.17
105.50
115.82
122.14
125.78
129.44
135.46
144.66
156.22
168.25
178.60
185.60
188.22
186.11
179.49
168.99
155.29
138.83
119.45
96.52
69.62
39.37
8.08
-20.59
-42.87
-56.48
-61.74
-61.37
-59.19
-58.31
-59.92
-63.25
-66.36
-67.37
-65.42
-60.81
-54.65
-48.13
-41.94
-36.11
-30.20
-23.69
-16.33
-8.24
0.15
8.27
15.61
21.83
26.80
30.55
33.34
35.47
37.15
38.37
38.77
37.76
34.70
29.25
21.52
12.05
1.55
-9.32
-20.14
-30.65
-40.54
-49.27
-56.16
-60.54
-62.12
-61.11
-58.23
-54.43
-50.48
-46.79
-43.31
-39.81
-36.20
-32.71
-29.94
-28.57
-29.02
-31.24
-34.71
-38.66
-42.47
-45.87
-49.01
-52.21
-55.71
-59.47
-63.25
-66.69
-69.61
-72.01
-74.12
-76.25
-78.59
-80.95
-82.58
-82.32
-78.90
-71.43
-59.89
-45.24
-29.21
-13.62
0.17
11.62
20.88
28.46
34.75
39.76
43.27
45.02
45.02
43.59
41.28
38.65
36.11
33.80
31.64
29.46
27.21
25.03
23.28
22.39
22.71
24.29
26.86
29.85
32.50
34.10
34.27
33.12
31.51
30.89
32.98
39.20
50.07
65.07
82.71
101.11
118.51
133.69
145.98
155.12
161.05
163.80
163.51
160.56
155.49
148.89
141.18
132.42
122.30
110.22
95.57
78.04
57.91
36.07
13.86
-7.36
-26.59
-43.45
-58.13
-71.17
-83.16
-94.52
-105.27
-115.03
-122.89
-127.58
-127.78
-122.63
-112.14
-97.37
-80.19
-62.63
-46.34
-32.21
-20.48
-11.10
-4.11
0.25
1.70
0.20
-3.81
-9.50
-15.91
-22.30
-28.38
-34.20
-40.02
-45.94
-51.83
-57.29
-61.88
-65.35
-67.85
-69.87
-72.14
-75.42
-80.29
-86.97
-95.14
-103.74
-111.02
-114.84
-113.34
-105.64
-92.31
-75.20
-56.82
-39.39
-24.17
-11.33
-0.37
9.16
17.25
23.39
26.94
27.67
25.92
22.52
18.39
14.15
9.98
5.68
0.94
-4.42
-10.23
-16.05
-21.36
-25.71
-28.96
-31.34
-33.40
-35.87
-39.50
-44.84
-52.02
-60.48
-68.90
-75.28
-77.49
-73.92
-64.16
-49.15
-30.92
-11.81
6.25
22.21
35.83
47.19
56.27
62.74
66.09
65.98
62.55
56.50
48.85
40.62
32.58
25.05
17.95
10.97
3.87
-3.41
-10.61
-17.31
-23.14
-28.02
-32.29
-36.65
-41.90
-48.76
-57.61
-68.31
-80.13
-91.66
-100.94
-105.86
-104.65
-96.57
-82.23
-63.48
-42.86
-22.73
-4.61
10.97
24.23
35.56
44.98
52.08
56.31
57.37
55.63
52.08
47.93
44.19
41.20
38.65
35.77
31.81
26.47
20.01
13.10
6.50
0.65
-4.51
-9.47
-14.99
-21.75
-30.22
-40.50
-52.26
-64.51
-75.65
-83.59
-86.31
-82.52
-72.20
-56.76
-38.54
-20.06
-3.17
11.27
23.24
32.99
40.56
45.57
47.50
46.13
41.86
35.72
29.01
22.81
17.62
13.26
9.04
4.25
-1.53
-8.21
-15.27
-22.08
-28.21
-33.63
-38.76
-44.34
-51.20
-60.13
-71.60
-85.47
-100.70
-115.22
-126.21
-130.85
-127.15
-114.80
-95.21
-71.03
-45.15
-19.79
4.00
26.16
46.98
66.53
84.32
99.46
111.09
118.79
122.77
123.84
122.99
121.13
118.78
116.01
112.60
108.23
102.71
96.11
88.64
80.63
72.26
63.58
54.42
44.47
33.41
20.90
6.64
-9.58
-27.52
-46.25
-63.85
-77.67
-84.91
-83.72
-73.96
-57.42
-37.23
-16.69
1.88
17.62
30.95
42.68
53.25
62.34
69.05
72.55
72.61
69.74
64.98
59.51
54.12
49.10
44.24
39.16
33.57
27.40
20.83
14.11
7.41
0.73
-6.10
-13.38
-21.45
-30.71
-41.60
-54.50
-69.51
-85.95
-102.11
-115.27
-122.30
-120.66
-109.36
-89.54
-64.04
-36.56
-10.35
12.60
31.81
47.83
61.47
73.06
82.28
88.36
90.52
88.51
82.75
74.29
64.45
54.42
44.89
35.99
27.42
18.75
9.74
0.52
-8.56
-17.07
-24.75
-31.65
-38.08
-44.49
-51.34
-59.13
-68.35
-79.32
-91.87
-104.96
-116.44
-123.39
-122.93
-113.37
-94.93
-69.90
-41.80
-14.24
10.25
30.64
47.19
60.69
71.75
80.35
86.03
88.22
86.74
81.98
74.87
66.61
58.24
50.37
43.00
35.70
27.92
19.35
10.09
0.56
-8.69
-17.41
-25.74
-34.13
-43.17
-53.31
-64.81
-77.78
-92.22
-107.80
-123.54
-137.47
-146.83
-148.74
-141.26
-124.29
-99.81
-71.29
-42.43
-16.00
6.78
26.08
42.75
57.44
70.11
80.17
86.84
89.64
88.76
85.02
79.61
73.70
68.11
63.04
58.22
53.03
46.93
39.67
31.42
22.63
13.80
5.19
-3.24
-11.83
-20.99
-31.16
-42.72
-56.07
-71.41
-88.41
-105.72
-120.82
-130.40
-131.34
-121.91
-102.52
-75.76
-45.44
-15.31
12.03
35.62
55.74
73.16
88.45
101.63
112.26
119.73
123.59
123.72
120.36
114.07
105.63
95.92
85.76
75.90
66.81
58.60
51.05
43.62
35.58
26.32
15.53
3.35
-9.70
-22.93
-35.78
-48.09
-60.20
-72.96
-87.41
-104.36
-123.67
-143.76
-161.54
-173.08
-174.86
-165.09
-144.51
-116.10
-83.95
-51.79
-21.90
5.09
29.54
51.98
72.38
90.12
104.38
114.59
120.71
123.19
122.70
119.82
114.99
108.48
100.63
91.98
83.36
75.70
69.71
65.52
62.52
59.45
54.87
47.69
37.66
25.43
12.26
-0.47
-11.84
-21.69
-30.65
-39.84
-50.60
-64.05
-80.70
-100.09
-120.36
-138.36
-150.22
-152.44
-143.15
-122.87
-94.50
-62.29
-30.33
-1.38
23.69
45.35
64.59
81.96
97.25
109.72
118.66
123.86
125.74
125.11
122.78
119.21
114.47
108.44
101.13
92.98
84.83
77.56
71.67
66.94
62.38
56.59
48.35
37.20
23.62
8.91
-5.41
-18.16
-28.95
-38.28
-47.30
-57.38
-69.75
-85.06
-103.03
-122.18
-139.87
-152.64
-157.20
-151.46
-135.40
-111.12
-82.24
-52.56
-24.95
-0.78
19.90
37.67
53.04
66.12
76.71
84.62
89.96
93.20
95.04
96.12
96.88
97.41
97.53
97.00
95.69
93.76
91.59
89.50
87.42
84.66
80.07
72.43
61.03
46.15
29.05
11.56
-4.56
-18.27
-29.56
-39.35
-49.09
-60.30
-74.02
-90.40
-108.34
-125.43
-138.35
-143.71
-139.18
-124.40
-101.19
-73.02
-43.77
-16.55
6.98
26.53
42.58
55.60
65.73
72.85
76.90
78.18
77.32
75.08
71.98
68.20
63.73
58.53
52.86
47.22
42.20
38.14
34.84
31.58
27.32
21.23
12.97
2.89
-8.11
-18.96
-28.86
-37.54
-45.37
-53.22
-62.18
-73.18
-86.46
-101.11
-114.95
-124.81
-127.40
-120.49
-103.79
-79.20
-50.21
-20.74
6.09
28.61
46.58
60.66
71.66
80.06
85.91
89.02
89.24
86.70
81.84
75.42
68.30
61.30
54.95
49.40
44.42
39.51
34.16
27.99
20.90
12.99
4.49
-4.37
-13.40
-22.47
-31.47
-40.42
-49.52
-59.34
-70.62
-83.96
-99.09
-114.40
-126.98
-133.39
-130.84
-118.38
-97.45
-71.36
-44.20
-19.46
0.88
16.42
27.89
36.24
42.14
45.76
47.03
45.93
42.72
37.99
32.46
26.77
21.33
16.23
11.27
6.11
0.39
-6.19
-13.80
-22.54
-32.43
-43.43
-55.38
-68.01
-80.86
-93.37
-105.05
-115.65
-125.41
-135.06
-145.50
-157.24
-169.68
-180.85
-187.70
-187.07
-176.87
-156.83
-128.63
-95.19
-59.66
-24.59
8.46
38.65
65.49
88.48
107.15
121.21
130.81
136.39
138.54
137.70
134.10
127.80
118.95
107.93
95.45
82.34
69.28
56.61
44.22
31.82
19.20
6.50
-5.76
-16.92
-26.42
-34.11
-40.26
-45.51
-50.66
-56.57
-64.02
-73.62
-85.46
-98.74
-111.51
-120.90
-123.90
-118.33
-103.82
-81.98
-55.90
-29.01
-4.01
17.82
36.52
52.87
67.63
81.13
93.15
103.24
110.97
116.18
118.94
119.45
117.98
114.76
110.12
104.54
98.59
92.83
87.57
82.71
77.71
71.83
64.40
55.19
44.48
32.97
21.53
10.82
1.05
-8.08
-17.37
-27.78
-40.18
-54.91
-71.44
-88.18
-102.64
-112.00
-113.94
-107.46
-93.23
-73.40
-50.84
-28.16
-7.13
11.56
28.01
42.52
55.20
65.85
74.04
79.47
82.33
83.45
84.22
86.08
89.86
95.03
99.58
100.55
95.19
82.17
62.20
37.78
12.19
-11.56
-31.32
-45.75
-54.07
-55.98
-52.01
-44.09
-35.54
-30.40
-32.02
-41.61
-57.58
-76.05
-92.26
-102.22
-103.82
-97.10
-83.72
-66.08
-46.52
-26.79
-7.94
9.59
25.71
40.35
53.26
63.97
71.95
76.93
79.10
79.10
77.70
75.53
72.90
69.88
66.49
62.80
58.93
54.82
50.22
44.75
38.23
30.78
22.81
14.68
6.41
-2.42
-12.56
-24.58
-38.56
-53.76
-68.73
-81.46
-89.96
-92.70
-89.20
-80.17
-67.29
-52.58
-37.68
-23.39
-9.70
3.72
16.92
29.34
39.89
47.51
51.62
52.44
50.85
48.06
45.15
42.77
41.08
39.91
39.06
38.48
38.36
38.99
40.50
42.74
45.22
47.24
48.11
47.35
44.66
39.88
32.98
24.16
14.16
4.53
-2.56
-4.79
-0.59
10.17
25.98
44.15
61.70
76.28
86.69
92.88
95.45
95.19
92.72
88.44
82.63
75.61
67.73
59.39
50.99
42.86
35.29
28.44
22.38
16.99
12.06
7.31
2.43
-2.80
-8.51
-14.72
-21.24
-27.86
-34.31
-40.46
-46.38
-52.42
-59.07
-66.88
-76.08
-86.29
-96.31
-104.21
-107.82
-105.40
-96.33
-81.41
-62.58
-42.28
-22.62
-4.86
10.67
24.18
35.95
46.01
54.06
59.76
62.94
63.82
62.87
60.70
57.77
54.31
50.36
45.90
41.03
36.00
31.16
26.71
22.56
18.28
13.30
7.15
-0.28
-8.71
-17.60
-26.35
-34.62
-42.34
-49.73
-57.20
-65.28
-74.45
-84.84
-96.06
-106.90
-115.53
-119.82
-118.15
-109.91
-95.84
-77.78
-57.99
-38.52
-20.66
-4.95
8.61
20.19
29.88
37.71
43.75
48.20
51.48
54.00
56.04
57.55
58.17
57.43
55.04
51.14
46.39
41.71
37.95
35.39
33.60
31.59
28.14
22.34
13.98
3.61
-7.59
-18.23
-27.13
-33.71
-38.12
-41.20
-44.22
-48.48
-54.79
-63.17
-72.57
-81.03
-86.14
-85.80
-78.92
-65.88
-48.39
-28.84
-9.48
8.31
24.25
38.80
52.60
65.96
78.64
90.08
99.68
107.09
112.32
115.56
117.02
116.79
114.89
111.29
106.04
99.40
91.71
83.43
74.92
66.36
57.72
48.70
38.98
28.26
16.54
4.10
-8.46
-20.47
-31.31
-40.66
-48.56
-55.36
-61.57
-67.67
-74.09
-81.12
-88.81
-96.87
-104.52
-110.48
-113.26
-111.55
-104.84
-93.59
-79.22
-63.55
-48.27
-34.37
-22.10
-11.17
-1.16
8.16
16.61
23.79
29.24
32.75
34.41
34.64
33.97
32.91
31.75
30.58
29.33
27.89
26.26
24.54
22.89
21.39
19.94
18.24
15.80
12.21
7.30
1.30
-5.19
-11.35
-16.51
-20.40
-23.25
-25.73
-28.58
-32.46
-37.65
-44.12
-51.44
-58.85
-65.22
-69.21
-69.55
-65.45
-57.02
-45.27
-31.88
-18.60
-6.66
3.48
12.06
19.60
26.46
32.59
37.66
41.23
43.08
43.32
42.31
40.53
38.40
36.17
33.90
31.54
29.00
26.28
23.47
20.73
18.24
16.07
14.11
12.03
9.37
5.74
1.01
-4.56
-10.39
-15.78
-20.19
-23.44
-25.82
-27.91
-30.40
-33.89
-38.68
-44.71
-51.44
-57.89
-62.70
-64.47
-62.21
-55.66
-45.50
-33.20
-20.47
-8.78
1.02
8.86
15.11
20.31
24.78
28.54
31.40
33.20
33.90
33.72
32.92
31.73
30.21
28.29
25.85
22.98
19.94
17.13
14.89
13.28
11.98
10.40
7.95
4.29
-0.47
-5.86
-11.17
-15.79
-19.40
-22.12
-24.44
-27.03
-30.60
-35.56
-41.91
-49.02
-55.67
-60.26
-61.31
-57.95
-50.29
-39.47
-27.20
-15.24
-4.81
3.70
10.53
16.25
21.33
25.94
29.90
32.93
34.79
35.42
34.94
33.61
31.71
29.55
27.38
25.36
23.60
22.10
20.78
19.47
18.03
16.34
14.40
12.21
9.73
6.86
3.45
-0.61
-5.31
-10.42
-15.55
-20.30
-24.45
-28.03
-31.30
-34.67
-38.59
-43.44
-49.48
-56.71
-64.73
-72.56
-78.75
-81.64
-79.99
-73.44
-62.80
-49.76
-36.32
-24.01
-13.63
-5.10
2.05
8.30
13.85
18.70
22.79
26.14
28.91
31.27
33.33
35.15
36.83
38.49
40.24
42.03
43.61
44.60
44.64
43.58
41.60
39.02
36.10
32.92
29.37
25.22
20.36
14.94
9.23
3.55
-1.87
-7.01
-11.97
-16.95
-22.14
-27.73
-33.88
-40.80
-48.56
-56.97
-65.37
-72.61
-77.26
-78.07
-74.36
-66.37
-55.16
-42.29
-29.28
-17.23
-6.63
2.51
10.55
17.81
24.50
30.63
36.03
40.40
43.47
45.09
45.36
44.61
43.30
41.84
40.48
39.20
37.83
36.12
33.94
31.26
28.18
24.83
21.27
17.46
13.27
8.55
3.27
-2.43
-8.29
-14.01
-19.41
-24.45
-29.29
-34.18
-39.37
-45.07
-51.47
-58.67
-66.67
-75.13
-83.18
-89.40
-92.11
-89.97
-82.48
-70.36
-55.28
-39.38
-24.44
-11.48
-0.54
8.91
17.58
25.87
33.78
40.89
46.68
50.73
52.89
53.33
52.51
50.98
49.23
47.52
45.86
44.13
42.14
39.84
37.29
34.59
31.78
28.78
25.41
21.39
16.52
10.73
4.13
-2.98
-10.18
-17.04
-23.25
-28.72
-33.59
-38.25
-43.24
-49.16
-56.52
-65.46
-75.61
-85.81
-94.23
-98.80
-97.82
-90.61
-77.84
-61.33
-43.42
-26.19
-10.85
2.26
13.44
23.11
31.47
38.44
43.83
47.53
49.68
50.57
50.57
50.00
49.00
47.54
45.56
43.01
40.09
37.17
34.69
32.95
31.89
31.00
29.44
26.39
21.40
14.61
6.77
-1.12
-8.14
-13.92
-18.64
-23.07
-28.19
-34.98
-44.00
-55.19
-67.69
-79.83
-89.43
-94.31
-92.97
-85.14
-71.89
-55.33
-37.81
-21.29
-6.77
5.61
16.28
25.68
34.01
41.10
46.62
50.34
52.31
52.93
52.79
52.41
52.07
51.65
50.83
49.35
47.25
44.99
43.22
42.39
42.38
42.46
41.51
38.52
33.05
25.37
16.32
6.94
-1.93
-9.93
-17.21
-24.37
-32.31
-41.94
-54.00
-68.63
-85.12
-101.74
-115.95
-125.03
-126.90
-120.84
-107.74
-89.76
-69.61
-49.64
-31.33
-15.12
-0.78
12.14
23.89
34.37
43.26
50.24
55.20
58.32
60.02
60.74
60.83
60.38
59.28
57.38
54.69
51.47
48.20
45.32
42.94
40.67
37.72
33.20
26.56
17.89
7.90
-2.29
-11.72
-19.85
-26.78
-33.12
-39.78
-47.67
-57.52
-69.58
-83.42
-97.61
-109.86
-117.41
-117.89
-110.17
-94.90
-74.27
-51.28
-28.66
-8.18
9.60
24.92
38.29
49.94
59.79
67.53
72.97
76.22
77.67
77.82
77.11
75.76
73.71
70.82
67.05
62.59
57.96
53.71
50.22
47.33
44.34
40.23
34.11
25.69
15.50
4.66
-5.56
-14.27
-21.35
-27.42
-33.56
-40.96
-50.50
-62.53
-76.59
-91.34
-104.58
-113.65
-116.09
-110.51
-97.12
-77.84
-55.63
-33.53
-13.73
2.88
16.50
27.90
37.75
46.30
53.45
59.02
63.01
65.74
67.65
69.07
70.04
70.33
69.62
67.85
65.31
62.64
60.46
58.99
57.80
55.88
52.08
45.69
36.75
26.15
15.19
5.04
-3.76
-11.50
-19.11
-27.81
-38.63
-52.05
-67.63
-83.89
-98.34
-108.07
-110.49
-104.26
-89.84
-69.43
-46.26
-23.51
-3.29
13.69
27.88
40.21
51.34
61.38
69.91
76.41
80.59
82.62
82.98
82.20
80.66
78.40
75.31
71.31
66.56
61.50
56.67
52.44
48.72
44.94
40.23
33.83
25.41
15.34
4.50
-6.00
-15.27
-22.91
-29.21
-34.98
-41.32
-49.39
-59.92
-72.98
-87.57
-101.56
-112.09
-116.25
-112.14
-99.63
-80.45
-57.65
-34.46
-13.25
5.02
20.70
34.72
47.89
60.39
71.84
81.54
88.87
93.59
95.85
96.03
94.60
91.93
88.17
83.41
77.78
71.57
65.33
59.65
54.97
51.29
48.06
44.40
39.37
32.50
23.87
14.20
4.49
-4.41
-12.06
-18.65
-24.84
-31.52
-39.55
-49.53
-61.57
-75.10
-88.76
-100.41
-107.57
-108.12
-101.06
-87.01
-68.09
-47.16
-26.89
-8.96
6.20
19.08
30.45
40.82
50.17
58.12
64.26
68.32
70.34
70.52
69.09
66.32
62.45
57.84
52.95
48.30
44.33
41.17
38.60
35.97
32.51
27.57
20.92
12.88
4.18
-4.31
-11.93
-18.47
-24.24
-30.01
-36.75
-45.28
-55.88
-67.90
-79.69
-88.85
-92.94
-90.30
-80.74
-65.63
-47.44
-28.85
-11.86
2.63
14.73
25.10
34.37
42.78
50.19
56.17
60.31
62.41
62.51
60.92
58.06
54.43
50.51
46.69
43.27
40.43
38.12
36.06
33.73
30.44
25.63
19.05
11.01
2.21
-6.38
-13.99
-20.26
-25.44
-30.32
-35.96
-43.35
-52.90
-64.13
-75.48
-84.61
-89.05
-87.12
-78.55
-64.64
-47.76
-30.44
-14.54
-0.81
10.98
21.51
31.37
40.63
48.95
55.79
60.66
63.39
64.10
63.17
61.05
58.13
54.68
50.83
46.69
42.47
38.52
35.17
32.56
30.40
28.04
24.64
19.56
12.76
4.77
-3.45
-10.99
-17.31
-22.48
-27.08
-32.00
-38.10
-46.00
-55.82
-67.00
-78.22
-87.52
-92.78
-92.34
-85.67
-73.61
-58.13
-41.62
-26.01
-12.27
-0.36
10.37
20.59
30.53
39.88
47.98
54.18
58.14
59.88
59.78
58.37
56.14
53.42
50.38
47.11
43.70
40.35
37.25
34.54
32.10
29.62
26.57
22.51
17.17
10.65
3.41
-3.90
-10.68
-16.55
-21.45
-25.71
-29.80
-34.32
-39.74
-46.49
-54.74
-64.24
-74.19
-83.09
-89.07
-90.35
-85.94
-76.11
-62.31
-46.69
-31.30
-17.40
-5.30
5.45
15.49
25.22
34.62
43.30
50.78
56.65
60.68
62.86
63.32
62.32
60.21
57.42
54.37
51.50
49.13
47.40
46.20
45.13
43.57
40.95
36.92
31.57
25.45
19.29
13.72
8.94
4.64
0.23
-4.87
-10.91
-17.63
-24.49
-30.87
-36.36
-40.97
-45.06
-49.23
-54.16
-60.47
-68.40
-77.67
-87.24
-95.31
-99.80
-98.96
-92.09
-79.89
-64.26
-47.57
-31.88
-18.29
-6.87
3.04
12.23
21.21
29.98
38.15
45.09
50.29
53.44
54.57
54.00
52.21
49.69
46.83
43.88
40.95
38.09
35.38
32.83
30.39
27.85
24.90
21.18
16.43
10.61
3.94
-3.10
-9.97
-16.20
-21.55
-26.08
-30.22
-34.58
-39.91
-46.82
-55.64
-66.07
-77.04
-86.75
-93.05
-94.07
-88.92
-78.13
-63.44
-47.27
-31.76
-18.18
-6.73
3.20
12.38
21.27
29.80
37.49
43.78
48.29
50.95
52.00
51.83
50.82
49.25
47.18
44.62
41.56
38.14
34.63
31.37
28.57
26.15
23.65
20.41
15.79
9.55
1.93
-6.35
-14.39
-21.48
-27.33
-32.18
-36.65
-41.53
-47.54
-55.18
-64.59
-75.35
-86.33
-95.73
-101.45
-101.68
-95.58
-83.70
-67.84
-50.41
-33.56
-18.59
-5.72
5.56
15.94
25.83
35.18
43.63
50.74
56.16
59.79
61.71
62.10
61.28
59.57
57.36
55.02
52.80
50.82
48.99
47.07
44.72
41.64
37.64
32.74
27.15
21.18
15.13
9.16
3.22
-2.85
-9.27
-16.10
-23.26
-30.52
-37.64
-44.47
-51.09
-57.80
-65.08
-73.45
-83.13
-93.72
-104.04
-112.12
-115.77
-113.29
-104.16
-89.35
-71.00
-51.67
-33.44
-17.33
-3.29
9.40
21.44
33.13
44.22
54.12
62.25
68.25
72.07
73.85
73.88
72.46
69.98
66.93
63.83
61.17
59.24
58.01
57.11
55.92
53.77
50.24
45.22
39.01
32.22
25.51
19.35
13.85
8.71
3.39
-2.65
-9.69
-17.59
-25.85
-33.84
-41.05
-47.34
-53.02
-58.83
-65.65
-74.29
-85.03
-97.26
-109.39
-119.08
-123.85
-121.91
-112.83
-97.70
-78.72
-58.41
-38.78
-20.91
-4.97
9.39
22.55
34.68
45.71
55.42
63.64
70.26
75.19
78.40
79.89
79.76
78.32
76.02
73.39
70.89
68.73
66.84
64.83
62.22
58.57
53.73
47.93
41.61
35.29
29.32
23.74
18.32
12.63
6.33
-0.73
-8.40
-16.29
-23.94
-30.99
-37.34
-43.23
-49.21
-56.02
-64.35
-74.54
-86.22
-98.08
-107.97
-113.48
-112.67
-104.80
-90.67
-72.35
-52.44
-33.19
-15.93
-0.95
12.14
23.84
34.33
43.45
50.79
56.05
59.17
60.43
60.26
59.21
57.68
55.94
54.02
51.88
49.48
46.91
44.39
42.15
40.24
38.34
35.81
31.92
26.17
18.63
9.91
0.95
-7.36
-14.56
-20.70
-26.32
-32.14
-38.89
-47.13
-57.18
-68.83
-81.21
-92.66
-101.02
-104.09
-100.50
-90.16
-74.45
-55.74
-36.55
-18.81
-3.36
9.90
21.61
32.35
42.33
51.33
58.91
64.66
68.38
70.18
70.38
69.46
67.85
65.86
63.64
61.17
58.38
55.20
51.65
47.83
43.84
39.73
35.38
30.61
25.20
19.02
12.07
4.54
-3.29
-11.10
-18.65
-25.83
-32.75
-39.67
-46.97
-55.02
-64.16
-74.53
-85.94
-97.70
-108.47
-116.38
-119.46
-116.23
-106.33
-90.76
-71.63
-51.42
-32.18
-14.97
0.17
13.81
26.56
38.67
49.87
59.62
67.37
72.80
75.87
76.83
76.13
74.28
71.80
69.16
66.66
64.44
62.39
60.26
57.67
54.27
49.86
44.47
38.34
31.86
25.38
19.06
12.84
6.50
-0.18
-7.25
-14.55
-21.77
-28.63
-35.03
-41.18
-47.46
-54.49
-62.84
-72.87
-84.35
-96.22
-106.59
-113.04
-113.45
-106.73
-93.37
-75.32
-55.26
-35.71
-18.19
-3.09
10.09
22.12
33.54
44.42
54.42
63.02
69.73
74.29
76.66
77.06
75.93
73.78
71.12
68.36
65.69
63.12
60.52
57.73
54.58
50.96
46.80
42.07
36.76
30.87
24.47
17.68
10.66
3.64
-3.22
-9.79
-16.05
-22.08
-28.02
-34.08
-40.65
-48.18
-57.16
-67.78
-79.57
-91.17
-100.45
-105.08
-103.34
-94.84
-80.71
-63.17
-44.74
-27.32
-11.85
1.66
13.64
24.46
34.17
42.55
49.31
54.31
57.63
59.48
60.12
59.72
58.38
56.13
53.07
49.42
45.55
41.96
39.01
36.79
34.90
32.59
29.00
23.55
16.19
7.55
-1.35
-9.50
-16.25
-21.56
-26.02
-30.58
-36.29
-43.97
-53.96
-65.82
-78.28
-89.24
-96.30
-97.41
-91.62
-79.50
-62.97
-44.64
-26.89
-11.19
2.19
13.81
24.47
34.69
44.40
53.06
60.01
64.76
67.22
67.69
66.72
64.93
62.79
60.51
58.11
55.50
52.66
49.64
46.59
43.60
40.58
37.26
33.20
28.04
21.59
14.01
5.70
-2.76
-10.83
-18.13
-24.61
-30.52
-36.34
-42.71
-50.23
-59.38
-70.23
-82.26
-94.20
-104.15
-109.96
-109.92
-103.38
-91.01
-74.64
-56.60
-38.91
-22.76
-8.40
4.56
16.67
28.19
39.02
48.77
56.94
63.17
67.30
69.39
69.74
68.82
67.12
65.13
63.18
61.38
59.65
57.78
55.52
52.68
49.17
45.00
40.25
35.02
29.33
23.19
16.57
9.51
2.12
-5.39
-12.80
-19.92
-26.73
-33.29
-39.80
-46.50
-53.72
-61.87
-71.30
-81.96
-93.13
-103.25
-110.18
-111.86
-107.08
-95.99
-80.09
-61.63
-42.84
-25.19
-9.22
5.24
18.59
31.07
42.63
52.94
61.67
68.53
73.41
76.34
77.44
76.96
75.16
72.44
69.22
65.97
63.05
60.68
58.79
56.98
54.68
51.35
46.71
40.91
34.45
28.03
22.15
16.95
12.12
7.08
1.27
-5.57
-13.26
-21.32
-29.11
-36.20
-42.47
-48.22
-54.07
-60.79
-69.06
-79.16
-90.60
-101.98
-111.12
-115.64
-113.75
-104.97
-90.41
-72.32
-53.30
-35.42
-19.60
-5.75
6.81
18.69
30.00
40.34
49.03
55.50
59.56
61.48
61.83
61.26
60.21
58.85
57.08
54.76
51.89
48.64
45.37
42.30
39.42
36.40
32.70
27.87
21.71
14.40
6.44
-1.51
-8.84
-15.19
-20.53
-25.20
-29.75
-34.89
-41.31
-49.49
-59.54
-71.01
-82.72
-92.83
-99.25
-100.14
-94.62
-83.11
-67.24
-49.29
-31.39
-14.92
-0.32
12.72
24.70
35.97
46.44
55.69
63.17
68.41
71.26
71.89
70.78
68.61
66.05
63.57
61.40
59.47
57.54
55.29
52.51
49.11
45.11
40.59
35.57
30.03
23.91
17.17
9.83
2.05
-5.86
-13.53
-20.65
-27.05
-32.85
-38.37
-44.08
-50.54
-58.29
-67.70
-78.71
-90.57
-101.75
-110.08
-113.34
-109.93
-99.56
-83.40
-63.73
-43.18
-23.91
-7.00
7.49
20.16
31.76
42.65
52.78
61.74
69.05
74.35
77.49
78.59
77.92
75.94
73.11
69.94
66.87
64.16
61.91
59.95
57.93
55.45
52.18
47.96
42.86
37.12
31.06
24.95
18.90
12.87
6.68
0.15
-6.81
-14.14
-21.55
-28.68
-35.21
-41.04
-46.48
-52.21
-59.13
-68.02
-79.04
-91.36
-103.11
-111.81
-115.06
-111.42
-100.93
-85.07
-66.26
-46.98
-29.01
-13.08
0.99
13.80
25.85
37.24
47.57
56.28
62.87
67.18
69.39
69.94
69.34
67.95
65.99
63.51
60.52
57.13
53.49
49.85
46.39
43.15
39.97
36.47
32.19
26.74
19.99
12.17
3.83
-4.38
-11.89
-18.48
-24.29
-29.79
-35.56
-42.18
-50.17
-59.84
-71.10
-83.20
-94.60
-103.12
-106.52
-103.30
-93.29
-77.89
-59.50
-40.72
-23.45
-8.49
4.36
15.72
26.12
35.63
43.93
50.56
55.21
57.93
59.08
59.17
58.65
57.71
56.27
54.14
51.19
47.56
43.63
39.89
36.63
33.72
30.62
26.54
20.85
13.39
4.63
-4.53
-13.09
-20.38
-26.34
-31.49
-36.75
-43.12
-51.40
-61.96
-74.52
-88.02
-100.56
-109.75
-113.31
-109.80
-99.22
-83.09
-63.94
-44.38
-26.24
-10.20
4.05
17.25
29.91
41.96
52.83
61.75
68.07
71.62
72.67
71.89
70.09
67.97
65.89
63.90
61.72
59.04
55.66
51.64
47.17
42.50
37.74
32.82
27.42
21.20
13.94
5.71
-3.11
-11.95
-20.27
-27.78
-34.58
-41.10
-47.93
-55.63
-64.66
-75.27
-87.39
-100.39
-112.94
-122.97
-128.17
-126.67
-117.81
-102.50
-82.91
-61.74
-41.22
-22.61
-6.03
9.11
23.46
37.38
50.75
63.10
73.82
82.32
88.20
91.33
91.93
90.52
87.81
84.54
81.24
78.15
75.27
72.38
69.20
65.47
61.00
55.70
49.60
42.84
35.56
27.89
19.86
11.47
2.80
-5.98
-14.54
-22.61
-30.07
-37.08
-44.10
-51.80
-60.86
-71.82
-84.71
-98.80
-112.41
-123.10
-128.26
-125.98
-115.82
-99.03
-78.14
-56.03
-34.93
-15.92
1.00
16.38
30.72
44.07
56.08
66.22
74.08
79.52
82.66
83.77
83.19
81.22
78.09
74.03
69.28
64.25
59.37
55.02
51.30
47.90
44.09
38.98
31.93
22.90
12.48
1.80
-8.03
-16.32
-23.05
-28.91
-34.97
-42.37
-51.90
-63.76
-77.33
-91.14
-103.00
-110.45
-111.44
-105.07
-91.91
-73.93
-53.76
-33.82
-15.64
0.39
14.65
27.71
39.88
50.92
60.31
67.48
72.18
74.49
74.76
73.44
70.87
67.31
62.92
57.95
52.79
47.96
43.92
40.80
38.22
35.31
31.00
24.48
15.67
5.25
-5.50
-15.30
-23.38
-29.79
-35.40
-41.48
-49.28
-59.53
-72.14
-86.04
-99.22
-109.11
-113.25
-110.05
-99.43
-82.84
-62.84
-42.14
-22.74
-5.50
9.73
23.60
36.60
48.73
59.53
68.42
74.97
79.09
81.02
81.13
79.81
77.35
73.96
69.84
65.23
60.43
55.75
51.39
47.31
43.13
38.21
31.89
23.80
14.12
3.57
-6.79
-16.03
-23.68
-29.97
-35.70
-41.99
-49.90
-60.11
-72.63
-86.64
-100.36
-111.37
-117.18
-116.04
-107.59
-93.08
-74.88
-55.56
-37.01
-20.01
-4.31
10.74
25.60
40.14
53.72
65.45
74.60
80.82
84.18
85.10
84.22
82.11
79.17
75.60
71.45
66.83
62.00
57.36
53.17
49.43
45.71
41.27
35.44
27.93
18.97
9.28
-0.27
-8.97
-16.59
-23.41
-30.05
-37.24
-45.65
-55.69
-67.37
-80.17
-92.86
-103.64
-110.37
-111.31
-105.67
-94.01
-78.03
-59.95
-41.71
-24.42
-8.24
7.19
22.32
37.21
51.49
64.48
75.41
83.68
88.92
91.14
90.75
88.48
85.19
81.62
78.21
75.04
71.95
68.63
64.91
60.70
56.04
51.05
45.80
40.28
34.42
28.05
21.05
13.44
5.39
-2.75
-10.62
-17.95
-24.72
-31.09
-37.43
-44.19
-51.93
-61.12
-71.96
-83.98
-95.83
-105.38
-110.27
-108.75
-100.43
-86.44
-69.06
-50.75
-33.39
-17.76
-3.69
9.44
22.07
34.16
45.21
54.54
61.65
66.39
68.96
69.76
69.22
67.65
65.21
62.00
58.16
53.93
49.68
45.79
42.49
39.67
36.94
33.63
29.06
22.85
15.07
6.26
-2.73
-11.06
-18.18
-24.01
-28.93
-33.63
-38.89
-45.44
-53.74
-63.76
-74.77
-85.28
-93.23
-96.59
-94.03
-85.48
-72.21
-56.35
-40.07
-24.88
-11.30
0.94
12.45
23.60
34.28
43.97
52.00
57.85
61.39
62.82
62.62
61.39
59.61
57.53
55.23
52.62
49.60
46.21
42.63
39.13
35.86
32.71
29.28
25.00
19.44
12.50
4.60
-3.51
-11.03
-17.46
-22.78
-27.42
-32.10
-37.46
-43.99
-51.84
-60.88
-70.60
-80.02
-87.71
-92.00
-91.51
-85.59
-74.82
-60.75
-45.42
-30.62
-17.25
-5.32
5.76
16.60
27.38
37.78
47.13
54.78
60.33
63.73
65.16
64.93
63.40
60.90
57.78
54.44
51.19
48.26
45.65
43.21
40.63
37.58
33.85
29.42
24.48
19.32
14.17
9.17
4.21
-0.93
-6.45
-12.42
-18.70
-24.95
-30.80
-36.01
-40.59
-44.81
-49.14
-54.14
-60.34
-67.94
-76.51
-84.87
-91.23
-93.63
-90.69
-82.23
-69.33
-53.98
-38.30
-23.78
-10.96
0.43
10.99
21.13
30.83
39.71
47.29
53.18
57.27
59.59
60.32
59.67
57.88
55.25
52.15
49.02
46.27
44.19
42.79
41.82
40.78
39.08
36.26
32.16
27.01
21.38
15.93
11.12
7.00
3.19
-0.98
-6.06
-12.23
-19.16
-26.17
-32.53
-37.81
-42.04
-45.64
-49.29
-53.68
-59.37
-66.62
-75.27
-84.54
-93.00
-98.81
-100.21
-96.11
-86.58
-72.83
-56.83
-40.62
-25.65
-12.53
-1.15
8.90
17.91
25.85
32.40
37.21
40.08
41.17
40.90
39.96
38.99
38.47
38.62
39.40
40.67
42.40
44.71
47.83
51.88
56.61
61.32
65.01
66.76
66.10
63.20
58.80
53.79
48.86
44.21
39.59
34.51
28.40
20.77
11.20
-0.57
-14.46
-29.77
-45.07
-58.31
-67.38
-70.71
-67.86
-59.61
-47.71
-34.25
-21.06
-9.28
0.65
8.87
15.71
21.37
25.71
28.33
28.79
26.89
22.94
17.69
12.06
6.74
1.89
-2.80
-7.90
-13.81
-20.54
-27.69
-34.77
-41.41
-47.53
-53.34
-59.08
-64.86
-70.58
-75.93
-80.57
-84.23
-86.80
-88.32
-88.91
-88.77
-88.25
-88.02
-88.92
-91.77
-96.86
-103.51
-109.98
-113.92
-113.21
-106.77
-95.06
-79.78
-63.12
-46.85
-31.77
-17.81
-4.46
8.68
21.63
33.99
45.24
54.91
62.64
68.25
71.69
73.11
72.89
71.58
69.75
67.86
66.08
64.34
62.45
60.23
57.63
54.66
51.31
47.48
42.96
37.50
30.96
23.46
15.30
6.99
-0.99
-8.34
-15.03
-21.31
-27.61
-34.47
-42.37
-51.73
-62.67
-74.81
-87.06
-97.58
-104.17
-104.98
-99.14
-87.19
-70.90
-52.62
-34.45
-17.66
-2.57
11.16
23.95
35.93
46.86
56.25
63.66
68.88
71.98
73.23
72.96
71.45
68.90
65.50
61.49
57.21
53.07
49.40
46.28
43.39
40.12
35.65
29.36
21.07
11.19
0.60
-9.61
-18.55
-25.87
-31.82
-37.26
-43.32
-51.08
-61.18
-73.47
-86.81
-99.14
-107.87
-110.63
-106.02
-94.18
-76.76
-56.36
-35.68
-16.61
0.15
14.88
28.36
41.16
53.29
64.15
72.95
79.03
82.27
83.06
82.16
80.35
78.15
75.69
72.85
69.45
65.52
61.32
57.20
53.37
49.66
45.47
40.02
32.67
23.29
12.42
1.13
-9.39
-18.30
-25.45
-31.38
-37.18
-44.04
-52.93
-64.32
-77.87
-92.37
-105.77
-115.47
-119.02
-114.89
-103.11
-85.29
-64.15
-42.52
-22.45
-4.75
10.89
25.30
39.16
52.63
65.30
76.40
85.20
91.19
94.30
94.86
93.52
90.95
87.69
83.98
79.85
75.26
70.31
65.26
60.40
55.91
51.62
47.05
41.60
34.76
26.44
16.97
7.05
-2.50
-11.05
-18.36
-24.65
-30.53
-36.77
-44.12
-53.18
-64.21
-76.95
-90.37
-102.62
-111.21
-113.71
-108.57
-95.83
-77.22
-55.58
-33.86
-14.13
2.84
17.42
30.46
42.64
54.09
64.46
73.11
79.57
83.67
85.56
85.68
84.52
82.53
80.04
77.19
74.06
70.65
66.98
63.05
58.83
54.27
49.23
43.57
37.15
29.90
21.90
13.41
4.88
-3.19
-10.40
-16.63
-22.11
-27.35
-32.97
-39.48
-47.30
-56.61
-67.33
-78.92
-90.13
-99.07
-103.55
-101.79
-93.19
-78.66
-60.38
-41.00
-22.76
-6.84
6.62
18.18
28.45
37.77
46.00
52.81
57.80
60.80
61.90
61.41
59.74
57.27
54.22
50.75
47.00
43.24
39.87
37.21
35.30
33.70
31.54
27.88
22.10
14.35
5.44
-3.39
-11.03
-16.94
-21.32
-25.06
-29.36
-35.34
-43.65
-54.16
-65.85
-76.86
-84.89
-87.78
-84.25
-74.39
-59.67
-42.45
-25.19
-9.64
3.53
14.62
24.38
33.42
41.83
49.23
55.04
58.85
60.61
60.64
59.46
57.57
55.28
52.71
49.87
46.76
43.53
40.39
37.57
35.15
32.95
30.54
27.34
22.85
16.86
9.59
1.67
-6.12
-13.10
-18.99
-23.96
-28.58
-33.51
-39.39
-46.58
-55.10
-64.49
-73.71
-81.18
-85.04
-83.71
-76.54
-64.19
-48.47
-31.81
-16.37
-3.37
7.08
15.66
23.23
30.32
36.94
42.70
47.12
49.90
51.08
50.94
49.90
48.33
46.47
44.39
42.03
39.35
36.40
33.35
30.43
27.81
25.43
23.01
20.06
16.12
11.00
4.86
-1.80
-8.38
-14.36
-19.51
-23.92
-27.90
-31.87
-36.24
-41.35
-47.44
-54.58
-62.46
-70.23
-76.50
-79.57
-78.07
-71.44
-60.32
-46.34
-31.55
-17.77
-5.97
3.78
12.02
19.41
26.32
32.69
38.12
42.16
44.56
45.41
45.07
44.05
42.80
41.56
40.31
38.86
37.02
34.73
32.13
29.41
26.74
24.10
21.29
17.99
13.88
8.80
2.80
-3.83
-10.58
-16.96
-22.58
-27.33
-31.44
-35.37
-39.71
-44.97
-51.41
-58.93
-66.89
-74.16
-79.27
-80.76
-77.70
-70.01
-58.62
-45.10
-31.21
-18.32
-7.12
2.31
10.23
16.97
22.66
27.29
30.80
33.16
34.46
34.89
34.62
33.81
32.52
30.76
28.57
26.09
23.60
21.43
19.80
18.60
17.35
15.34
11.91
6.81
0.36
-6.68
-13.41
-19.17
-23.77
-27.50
-31.00
-35.01
-40.19
-46.92
-55.09
-63.95
-72.04
-77.51
-78.61
-74.39
-65.13
-52.26
-37.86
-23.91
-11.64
-1.29
7.58
15.67
23.38
30.64
37.00
41.87
44.88
46.00
45.61
44.30
42.68
41.14
39.70
38.17
36.22
33.73
30.79
27.73
24.85
22.27
19.79
16.90
13.07
7.97
1.67
-5.35
-12.36
-18.71
-24.05
-28.48
-32.47
-36.65
-41.65
-47.91
-55.64
-64.70
-74.41
-83.54
-90.32
-92.95
-90.16
-81.76
-68.80
-53.20
-37.07
-22.00
-8.72
2.85
13.16
22.62
31.37
39.29
46.13
51.67
55.72
58.21
59.17
58.78
57.44
55.61
53.78
52.23
51.03
49.92
48.51
46.34
43.12
38.84
33.72
28.17
22.62
17.30
12.24
7.21
1.92
-3.85
-10.13
-16.73
-23.34
-29.66
-35.56
-41.09
-46.53
-52.34
-59.13
-67.45
-77.50
-88.77
-99.79
-108.32
-111.95
-108.99
-99.08
-83.49
-64.60
-45.02
-26.71
-10.54
3.60
16.29
28.06
39.01
48.93
57.45
64.27
69.21
72.26
73.50
73.13
71.48
69.03
66.33
63.88
61.92
60.37
58.86
56.83
53.82
49.54
44.09
37.81
31.19
24.63
18.30
12.10
5.73
-1.08
-8.44
-16.17
-23.90
-31.23
-37.94
-44.10
-50.07
-56.42
-63.79
-72.69
-83.20
-94.70
-105.72
-114.05
-117.27
-113.61
-102.61
-85.47
-64.72
-43.28
-23.52
-6.62
7.47
19.47
30.18
39.85
48.21
54.72
59.00
61.12
61.57
61.04
60.10
58.93
57.40
55.23
52.28
48.74
45.10
41.87
39.25
36.95
34.25
30.29
24.44
16.63
7.42
-2.27
-11.43
-19.36
-25.84
-31.21
-36.22
-41.85
-49.06
-58.47
-70.10
-83.05
-95.47
-104.83
-108.64
-105.24
-94.46
-77.69
-57.45
-36.48
-16.89
0.29
15.05
27.91
39.37
49.59
58.33
65.18
69.85
72.37
73.09
72.54
71.26
69.61
67.69
65.40
62.55
59.07
55.07
50.83
46.65
42.62
38.53
33.88
28.08
20.73
11.83
1.87
-8.33
-17.88
-26.23
-33.29
-39.56
-45.89
-53.24
-62.38
-73.63
-86.56
-99.93
-111.70
-119.42
-120.89
-114.84
-101.51
-82.61
-60.84
-38.94
-18.94
-1.63
13.23
26.44
38.71
50.24
60.66
69.34
75.66
79.42
80.85
80.53
79.15
77.22
74.99
72.46
69.52
66.15
62.43
58.57
54.71
50.82
46.64
41.82
35.98
28.88
20.57
11.38
1.83
-7.46
-15.97
-23.42
-29.91
-35.86
-41.92
-48.86
-57.33
-67.80
-80.16
-93.52
-106.07
-115.30
-118.67
-114.48
-102.54
-84.34
-62.62
-40.30
-19.61
-1.58
13.89
27.50
39.90
51.31
61.51
70.03
76.43
80.53
82.48
82.69
81.72
80.11
78.19
76.06
73.63
70.75
67.41
63.78
60.15
56.67
53.26
49.45
44.59
38.10
29.81
20.10
9.86
0.10
-8.38
-15.35
-21.23
-26.85
-33.17
-40.97
-50.66
-62.15
-74.75
-87.11
-97.25
-102.92
-102.23
-94.32
-79.78
-60.58
-39.38
-18.65
-0.01
15.99
29.55
41.10
50.84
58.65
64.26
67.48
68.45
67.59
65.45
62.52
59.06
55.15
50.74
45.91
40.93
36.22
32.20
28.97
26.18
23.07
18.75
12.70
4.97
-3.74
-12.35
-19.89
-25.88
-30.55
-34.79
-39.89
-47.13
-57.32
-70.45
-85.33
-99.70
-110.63
-115.44
-112.56
-102.18
-86.21
-67.64
-49.45
-33.75
-21.37
-12.08
-5.18
-0.09
3.38
5.14
5.16
3.68
1.39
-0.93
-2.51
-2.92
-2.06
0.11
3.76
9.30
17.20
27.72
40.49
54.47
68.22
80.23
89.45
95.37
98.12
98.19
96.28
93.08
89.14
84.68
79.47
72.87
63.95
51.87
36.26
17.65
-2.42
-21.59
-37.20
-47.10
-50.25
-47.11
-39.38
-29.40
-19.25
-10.20
-2.49
4.34
10.89
17.43
23.72
29.21
33.37
35.93
37.07
37.19
36.78
36.13
35.25
33.99
32.18
29.83
27.23
24.75
22.69
21.02
19.33
16.96
13.26
7.94
1.18
-6.37
-13.79
-20.32
-25.56
-29.67
-33.25
-37.16
-42.25
-49.14
-57.98
-68.29
-78.86
-87.83
-93.06
-92.78
-86.17
-73.82
-57.51
-39.66
-22.45
-7.15
6.00
17.49
27.96
37.68
46.47
53.84
59.33
62.81
64.51
64.84
64.19
62.74
60.51
57.45
53.66
49.48
45.36
41.74
38.75
36.11
33.19
29.20
23.61
16.34
7.89
-0.83
-8.84
-15.51
-20.78
-25.20
-29.67
-35.18
-42.46
-51.71
-62.42
-73.35
-82.61
-88.11
-88.11
-81.91
-70.12
-54.57
-37.67
-21.60
-7.74
3.59
12.79
20.51
27.19
32.87
37.33
40.33
41.76
41.75
40.56
38.50
35.86
32.88
29.81
26.84
24.21
22.04
20.25
18.57
16.46
13.42
9.10
3.53
-2.91
-9.56
-15.78
-21.19
-25.80
-30.05
-34.65
-40.38
-47.77
-56.77
-66.47
-75.16
-80.67
-81.07
-75.41
-64.11
-48.93
-32.29
-16.43
-2.70
8.60
17.95
26.04
33.28
39.62
44.72
48.23
50.08
50.42
49.65
48.07
45.89
43.15
39.91
36.34
32.77
29.55
26.88
24.59
22.16
18.87
14.16
7.89
0.47
-7.31
-14.55
-20.69
-25.65
-29.87
-34.16
-39.42
-46.34
-55.13
-65.27
-75.39
-83.47
-87.34
-85.41
-77.28
-64.02
-47.78
-31.03
-15.70
-2.67
8.22
17.62
26.15
34.00
40.91
46.42
50.21
52.27
52.81
52.16
50.60
48.32
45.40
41.97
38.23
34.49
31.07
28.13
25.55
22.83
19.33
14.48
8.19
0.83
-6.79
-13.86
-19.88
-24.89
-29.45
-34.44
-40.72
-48.89
-59.01
-70.36
-81.38
-89.90
-93.67
-91.18
-82.24
-68.16
-51.32
-34.29
-18.98
-6.12
4.59
13.96
22.70
31.05
38.77
45.34
50.29
53.33
54.43
53.78
51.76
48.84
45.49
42.18
39.22
36.70
34.49
32.21
29.34
25.41
20.15
13.61
6.19
-1.49
-8.81
-15.37
-21.15
-26.52
-32.18
-38.92
-47.34
-57.49
-68.54
-78.77
-85.89
-87.72
-83.02
-71.99
-56.29
-38.45
-21.02
-5.73
6.83
17.05
25.76
33.59
40.73
46.84
51.40
54.01
54.56
53.29
50.75
47.58
44.39
41.58
39.29
37.33
35.29
32.69
29.14
24.52
18.96
12.81
6.40
-0.01
-6.36
-12.73
-19.29
-26.32
-34.21
-43.33
-53.73
-64.79
-75.02
-82.22
-84.19
-79.56
-68.43
-52.45
-34.19
-16.26
-0.44
12.60
23.21
32.10
39.87
46.63
52.09
55.78
57.33
56.80
54.59
51.42
47.99
44.83
42.05
39.50
36.78
33.57
29.69
25.15
20.13
14.78
9.19
3.34
-2.87
-9.55
-16.76
-24.59
-33.18
-42.67
-53.00
-63.60
-73.16
-79.78
-81.40
-76.66
-65.48
-49.23
-30.40
-11.62
5.10
18.87
29.77
38.45
45.54
51.32
55.71
58.49
59.51
58.85
56.84
53.92
50.61
47.33
44.34
41.68
39.17
36.53
33.42
29.60
24.99
19.64
13.67
7.30
0.71
-5.91
-12.42
-18.83
-25.32
-32.31
-40.35
-49.77
-60.23
-70.48
-78.40
-81.63
-78.41
-68.39
-52.92
-34.50
-16.01
0.37
13.61
23.87
31.93
38.52
43.97
48.13
50.60
51.15
49.85
47.15
43.69
40.12
36.90
34.22
32.01
30.04
27.95
25.41
22.12
17.95
12.93
7.30
1.43
-4.30
-9.66
-14.65
-19.58
-24.93
-31.29
-39.13
-48.52
-58.84
-68.72
-76.12
-78.93
-75.62
-65.91
-50.97
-33.09
-14.89
1.49
14.97
25.54
33.79
40.40
45.70
49.67
52.10
52.87
52.11
50.16
47.47
44.45
41.39
38.45
35.70
33.17
30.76
28.28
25.35
21.58
16.67
10.58
3.58
-3.83
-11.11
-17.83
-23.81
-29.18
-34.32
-39.87
-46.53
-54.83
-64.71
-75.19
-84.30
-89.54
-88.74
-80.93
-66.89
-48.85
-29.68
-11.84
3.32
15.70
25.97
34.84
42.60
49.00
53.58
56.00
56.41
55.32
53.50
51.59
49.93
48.42
46.74
44.54
41.71
38.48
35.20
32.15
29.28
26.11
21.95
16.24
8.89
0.44
-8.16
-15.91
-22.19
-26.99
-30.93
-34.96
-40.03
-46.83
-55.61
-66.02
-77.07
-87.14
-94.17
-96.17
-91.81
-81.00
-65.03
-46.20
-27.06
-9.62
5.15
17.29
27.51
36.52
44.67
51.85
57.61
61.53
63.46
63.61
62.49
60.72
58.78
56.95
55.28
53.65
51.86
49.75
47.20
44.13
40.52
36.41
31.92
27.16
22.22
17.03
11.46
5.35
-1.32
-8.39
-15.55
-22.40
-28.67
-34.32
-39.56
-44.79
-50.50
-57.18
-65.16
-74.33
-83.94
-92.44
-97.76
-97.88
-91.59
-79.08
-61.95
-42.74
-24.01
-7.52
6.11
17.23
26.55
34.60
41.40
46.61
49.87
51.15
50.86
49.77
48.64
47.89
47.46
46.91
45.71
43.57
40.61
37.25
33.97
30.96
28.00
24.50
19.79
13.52
5.81
-2.70
-11.08
-18.48
-24.36
-28.75
-32.13
-35.35
-39.37
-45.04
-52.81
-62.50
-73.10
-82.80
-89.28
-90.41
-85.00
-73.34
-57.15
-39.00
-21.42
-6.08
6.49
16.64
25.06
32.19
38.08
42.49
45.27
46.58
46.88
46.71
46.39
45.94
45.15
43.74
41.61
38.95
36.13
33.50
31.22
29.06
26.52
22.96
17.93
11.37
3.68
-4.38
-11.95
-18.44
-23.70
-28.13
-32.51
-37.73
-44.57
-53.36
-63.78
-74.77
-84.48
-90.73
-91.56
-85.91
-74.16
-58.00
-39.91
-22.32
-6.76
6.30
17.32
27.02
35.84
43.66
49.99
54.33
56.49
56.79
55.88
54.50
53.18
52.04
50.86
49.24
46.90
43.81
40.26
36.66
33.33
30.22
26.97
22.98
17.77
11.14
3.39
-4.87
-12.89
-20.11
-26.32
-31.73
-36.84
-42.31
-48.78
-56.74
-66.30
-77.05
-87.84
-96.84
-101.94
-101.35
-94.25
-81.21
-64.02
-45.07
-26.55
-9.88
4.54
17.02
28.10
38.08
46.84
54.00
59.10
62.00
62.93
62.45
61.22
59.78
58.35
56.81
54.90
52.35
49.12
45.43
41.63
38.04
34.74
31.51
27.87
23.31
17.50
10.47
2.67
-5.24
-12.61
-19.09
-24.71
-29.86
-35.16
-41.23
-48.61
-57.62
-68.17
-79.64
-90.68
-99.33
-103.48
-101.52
-92.97
-78.76
-60.94
-41.93
-23.79
-7.69
6.12
17.94
28.16
36.94
44.15
49.58
53.12
54.94
55.46
55.18
54.49
53.54
52.23
50.33
47.72
44.50
41.03
37.77
34.98
32.49
29.64
25.58
19.64
11.72
2.42
-7.19
-15.96
-23.21
-28.94
-33.88
-39.08
-45.63
-54.22
-64.86
-76.78
-88.35
-97.38
-101.57
-99.23
-89.91
-74.63
-55.63
-35.59
-16.82
-0.61
12.83
23.99
33.48
41.60
48.24
53.09
55.96
57.03
56.76
55.75
54.42
52.92
51.08
48.68
45.72
42.43
39.28
36.60
34.31
31.80
28.12
22.45
14.56
4.99
-5.15
-14.63
-22.63
-29.03
-34.45
-39.97
-46.73
-55.60
-66.86
-79.88
-93.09
-104.07
-110.19
-109.35
-100.80
-85.50
-65.75
-44.44
-24.02
-5.89
9.68
23.11
34.98
45.54
54.63
61.91
67.11
70.20
71.44
71.18
69.76
67.45
64.42
60.85
57.02
53.28
49.93
47.07
44.40
41.28
36.91
30.67
22.46
12.75
2.48
-7.30
-15.81
-22.86
-28.86
-34.76
-41.73
-50.80
-62.42
-76.10
-90.17
-102.03
-108.76
-108.08
-99.21
-83.19
-62.57
-40.47
-19.51
-1.09
14.67
28.42
40.92
52.48
62.81
71.33
77.50
81.12
82.45
81.99
80.36
77.99
75.09
71.72
67.88
63.72
59.53
55.63
52.18
48.96
45.35
40.60
34.05
25.54
15.52
4.93
-5.17
-13.94
-21.18
-27.28
-33.23
-40.15
-49.07
-60.46
-73.99
-88.37
-101.42
-110.50
-113.28
-108.43
-96.15
-78.19
-57.16
-35.76
-15.87
1.74
17.29
31.38
44.43
56.31
66.46
74.17
79.06
81.24
81.35
80.24
78.65
76.96
75.09
72.74
69.62
65.74
61.40
57.07
53.14
49.60
46.03
41.73
36.02
28.54
19.49
9.53
-0.42
-9.57
-17.48
-24.23
-30.30
-36.38
-43.12
-51.07
-60.56
-71.59
-83.62
-95.30
-104.56
-109.05
-106.90
-97.51
-81.91
-62.39
-41.70
-22.04
-4.49
10.95
24.87
37.81
49.83
60.48
69.09
75.09
78.33
79.11
78.10
76.07
73.63
71.13
68.59
65.80
62.56
58.84
54.80
50.70
46.75
42.90
38.80
33.99
28.02
20.70
12.25
3.25
-5.54
-13.46
-20.23
-25.99
-31.33
-36.91
-43.38
-51.15
-60.38
-70.89
-82.01
-92.38
-100.10
-103.11
-99.83
-89.90
-74.44
-55.72
-36.41
-18.66
-3.48
9.22
20.16
30.01
38.94
46.62
52.46
56.09
57.61
57.51
56.53
55.27
54.03
52.70
51.02
48.76
45.94
42.85
39.89
37.28
34.88
32.16
28.37
22.92
15.65
6.97
-2.26
-11.07
-18.69
-24.84
-29.83
-34.45
-39.67
-46.40
-55.15
-65.71
-77.02
-87.24
-94.10
-95.57
-90.58
-79.43
-63.77
-46.02
-28.50
-12.76
0.68
12.16
22.27
31.35
39.29
45.61
49.94
52.17
52.67
52.08
51.09
50.16
49.40
48.65
47.56
45.88
43.54
40.75
37.81
34.93
32.07
28.81
24.59
18.96
11.84
3.69
-4.68
-12.40
-18.88
-24.07
-28.44
-32.77
-37.93
-44.55
-52.94
-62.84
-73.39
-83.06
-89.90
-92.08
-88.44
-79.02
-65.12
-48.83
-32.33
-17.20
-4.07
7.27
17.38
26.70
35.25
42.67
48.44
52.23
54.05
54.30
53.59
52.51
51.41
50.33
49.04
47.28
44.91
42.02
38.85
35.65
32.51
29.34
25.89
21.87
17.09
11.49
5.21
-1.46
-8.18
-14.61
-20.54
-25.96
-31.06
-36.19
-41.72
-48.09
-55.64
-64.53
-74.45
-84.41
-92.76
-97.49
-96.89
-90.24
-78.15
-62.38
-45.25
-28.75
-14.03
-1.29
9.90
20.06
29.39
37.75
44.80
50.26
54.07
56.38
57.47
57.58
56.92
55.68
54.05
52.25
50.47
48.77
47.07
45.10
42.56
39.25
35.14
30.40
25.31
20.11
14.87
9.56
4.04
-1.78
-7.88
-14.12
-20.26
-26.11
-31.54
-36.63
-41.67
-47.15
-53.66
-61.70
-71.34
-81.88
-91.76
-98.81
-100.88
-96.66
-86.20
-71.00
-53.45
-35.99
-20.32
-7.01
4.26
14.21
23.46
32.15
39.98
46.46
51.18
54.03
55.17
55.05
54.18
52.98
51.64
50.10
48.19
45.71
42.66
39.22
35.70
32.38
29.32
26.30
22.87
18.54
13.02
6.33
-1.08
-8.56
-15.52
-21.62
-26.96
-31.95
-37.17
-43.17
-50.41
-59.10
-69.12
-79.75
-89.60
-96.72
-99.06
-95.21
-85.01
-69.71
-51.60
-33.19
-16.37
-2.02
9.99
20.30
29.47
37.69
44.69
50.05
53.50
55.12
55.33
54.77
54.00
53.32
52.63
51.53
49.63
46.76
43.09
39.10
35.27
31.84
28.61
25.05
20.55
14.72
7.63
-0.22
-8.11
-15.35
-21.60
-26.95
-31.88
-37.11
-43.34
-51.12
-60.65
-71.57
-82.86
-92.82
-99.34
-100.51
-95.30
-83.97
-68.05
-49.86
-31.65
-14.96
-0.36
12.33
23.60
33.74
42.71
50.20
55.85
59.48
61.21
61.38
60.54
59.27
58.06
57.12
56.36
55.48
54.06
51.86
48.81
45.06
40.82
36.22
31.27
25.81
19.66
12.69
4.89
-3.54
-12.21
-20.69
-28.55
-35.57
-41.83
-47.66
-53.54
-59.97
-67.42
-76.19
-86.25
-96.97
-106.90
-113.93
-115.81
-110.92
-98.99
-81.38
-60.53
-39.16
-19.28
-1.74
13.59
27.34
40.00
51.61
61.77
69.97
75.83
79.26
80.45
79.88
78.11
75.75
73.28
70.95
68.79
66.60
64.14
61.21
57.74
53.76
49.31
44.38
38.95
32.93
26.30
19.06
11.31
3.17
-5.18
-13.56
-21.73
-29.54
-36.93
-44.03
-51.16
-58.83
-67.65
-78.08
-90.04
-102.60
-113.90
-121.39
-122.72
-116.50
-103.06
-84.35
-63.34
-42.84
-24.73
-9.55
3.25
14.54
24.92
34.31
42.11
47.53
50.05
49.67
46.97
42.96
38.77
35.26
32.80
31.20
29.91
28.31
26.02
23.02
19.62
16.20
13.09
10.46
8.38
6.94
6.32
6.81
8.55
11.45
15.07
18.79
21.99
24.27
25.46
25.36
23.52
19.21
11.82
1.47
-10.48
-21.49
-28.65
-29.81
-24.49
-14.02
-0.84
12.61
24.82
35.41
44.74
53.12
60.31
65.51
67.82
66.81
62.90
57.26
51.41
46.61
43.48
41.87
41.14
40.61
39.98
39.49
39.67
40.93
43.06
45.15
45.84
43.79
38.34
29.67
18.79
7.05
-4.34
-14.76
-24.23
-33.38
-43.08
-54.21
-67.37
-82.74
-99.82
-117.28
-133.03
-144.53
-149.52
-146.67
-136.11
-119.29
-98.52
-76.10
-53.71
-32.12
-11.41
8.60
27.90
46.13
62.81
77.56
90.33
101.40
111.14
119.63
126.59
131.27
132.86
130.75
124.99
116.25
105.72
94.61
83.74
73.26
62.67
51.14
37.99
23.16
7.25
-8.57
-23.16
-35.90
-46.94
-57.16
-67.79
-79.89
-94.07
-110.24
-127.50
-144.15
-157.87
-166.07
-166.67
-158.84
-143.44
-122.85
-100.15
-78.01
-57.95
-40.06
-23.54
-7.48
8.40
23.64
37.29
48.50
56.92
62.77
66.64
69.11
70.47
70.71
69.57
66.85
62.63
57.33
51.63
46.27
41.70
37.92
34.48
30.62
25.63
19.18
11.41
2.96
-5.38
-12.98
-19.62
-25.57
-31.45
-38.00
-45.84
-55.39
-66.68
-79.26
-92.01
-103.13
-110.44
-111.96
-106.57
-94.52
-77.38
-57.56
-37.46
-18.82
-2.37
12.02
24.83
36.41
46.71
55.31
61.79
65.98
68.14
68.85
68.78
68.34
67.56
66.17
63.92
60.81
57.26
53.88
51.17
49.13
47.20
44.42
39.82
32.90
23.86
13.53
3.12
-6.31
-14.18
-20.60
-26.29
-32.30
-39.60
-48.83
-60.03
-72.53
-84.92
-95.19
-101.18
-101.13
-94.34
-81.49
-64.40
-45.52
-27.01
-10.23
4.42
17.22
28.56
38.61
47.17
53.82
58.29
60.62
61.19
60.56
59.28
57.66
55.79
53.58
51.03
48.28
45.66
43.48
41.76
40.06
37.54
33.34
26.94
18.52
8.88
-0.85
-9.70
-17.19
-23.50
-29.30
-35.54
-43.07
-52.43
-63.63
-75.90
-87.67
-96.73
-100.84
-98.42
-89.22
-74.45
-56.36
-37.47
-19.69
-3.88
10.00
22.40
33.63
43.58
51.78
57.80
61.47
63.06
63.16
62.39
61.19
59.71
57.87
55.55
52.72
49.56
46.39
43.47
40.83
38.10
34.71
29.98
23.54
15.45
6.24
-3.24
-12.15
-19.99
-26.73
-32.87
-39.27
-46.82
-56.18
-67.42
-79.83
-91.89
-101.49
-106.48
-105.29
-97.50
-84.05
-66.90
-48.42
-30.54
-14.36
0.04
13.08
25.27
36.74
47.10
55.74
62.13
66.11
67.98
68.36
67.90
67.05
65.94
64.41
62.23
59.28
55.67
51.70
47.71
43.88
40.10
35.97
30.97
24.77
17.29
8.86
0.08
-8.39
-16.04
-22.68
-28.51
-34.04
-39.93
-46.90
-55.48
-65.80
-77.39
-89.00
-98.68
-104.27
-104.01
-97.21
-84.54
-67.86
-49.52
-31.57
-15.20
-0.62
12.60
24.99
36.70
47.47
56.72
63.97
68.99
71.93
73.23
73.39
72.82
71.78
70.32
68.41
65.98
63.03
59.64
55.92
51.94
47.73
43.18
38.13
32.36
25.71
18.16
9.90
1.32
-7.07
-14.80
-21.63
-27.59
-33.06
-38.60
-44.87
-52.41
-61.54
-72.12
-83.39
-93.89
-101.60
-104.52
-101.30
-91.79
-77.18
-59.63
-41.52
-24.65
-9.85
2.94
14.24
24.48
33.73
41.63
47.72
51.68
53.54
53.73
52.83
51.42
49.83
48.10
46.06
43.57
40.63
37.49
34.52
31.91
29.54
26.87
23.20
18.01
11.22
3.31
-4.88
-12.44
-18.80
-23.87
-28.08
-32.18
-37.02
-43.31
-51.42
-61.20
-71.78
-81.59
-88.61
-90.90
-87.28
-77.76
-63.68
-47.20
-30.56
-15.39
-2.30
8.94
18.96
28.25
36.91
44.57
50.71
54.95
57.28
58.04
57.77
57.01
56.06
54.91
53.31
51.00
47.90
44.20
40.31
36.61
33.22
29.86
26.01
21.07
14.75
7.19
-1.01
-9.09
-16.38
-22.60
-27.88
-32.72
-37.75
-43.57
-50.62
-59.13
-69.04
-79.76
-90.05
-98.11
-101.96
-100.10
-92.13
-78.91
-62.36
-44.73
-27.83
-12.60
0.88
13.03
24.26
34.71
44.14
52.16
58.36
62.57
64.86
65.52
65.00
63.70
61.96
59.95
57.72
55.26
52.59
49.71
46.66
43.41
39.88
35.95
31.53
26.53
20.91
14.66
7.89
0.80
-6.35
-13.29
-19.82
-25.93
-31.76
-37.56
-43.65
-50.34
-57.98
-66.78
-76.65
-86.89
-96.07
-102.22
-103.37
-98.28
-87.01
-70.94
-52.39
-33.77
-16.84
-2.33
9.90
20.50
30.10
39.02
47.19
54.30
59.93
63.78
65.78
66.06
65.03
63.16
60.96
58.79
56.87
55.18
53.57
51.75
49.42
46.31
42.31
37.48
32.07
26.39
20.66
14.89
8.95
2.64
-4.11
-11.21
-18.32
-25.12
-31.38
-37.09
-42.53
-48.18
-54.65
-62.54
-72.14
-83.06
-93.97
-102.78
-107.05
-104.94
-95.99
-81.31
-63.31
-44.65
-27.42
-12.52
0.19
11.31
21.31
30.17
37.52
42.93
46.29
47.91
48.39
48.34
48.19
47.97
47.47
46.35
44.40
41.72
38.68
35.75
33.23
31.01
28.57
25.14
20.10
13.26
5.03
-3.73
-12.06
-19.28
-25.21
-30.22
-35.08
-40.60
-47.53
-56.29
-66.82
-78.44
-89.75
-98.70
-103.13
-101.38
-93.02
-79.07
-61.70
-43.52
-26.64
-12.18
-0.20
9.85
18.53
26.02
32.09
36.27
38.26
38.07
36.11
33.02
29.42
25.68
21.83
17.61
12.71
7.00
0.66
-5.90
-12.23
-18.09
-23.63
-29.27
-35.44
-42.29
-49.45
-56.11
-61.22
-63.94
-64.08
-62.24
-59.79
-58.43
-59.76
-64.73
-73.49
-85.24
-98.45
-111.09
-120.98
-126.15
-125.33
-118.27
-105.75
-89.27
-70.35
-50.00
-28.45
-5.42
19.20
44.82
69.96
92.63
110.98
123.84
130.96
132.95
131.11
127.19
123.04
120.29
119.89
121.87
125.56
130.00
134.36
138.16
140.89
141.70
139.14
131.63
118.25
99.44
77.20
54.42
33.76
16.76
3.41
-7.49
-17.61
-28.38
-40.73
-54.97
-70.99
-88.09
-104.93
-119.47
-129.29
-132.27
-127.38
-115.22
-97.95
-78.58
-59.92
-43.80
-30.67
-19.90
-10.30
-0.72
9.55
20.75
32.64
44.70
56.23
66.59
75.47
83.05
90.01
97.24
105.62
115.54
126.77
138.56
149.77
159.16
165.65
168.52
167.58
163.29
156.80
149.73
143.75
139.90
138.14
137.25
135.26
130.15
120.68
106.77
89.34
69.99
50.40
32.04
16.06
3.33
-5.55
-10.33
-11.23
-8.98
-4.66
0.49
5.40
9.29
11.79
12.88
12.80
11.92
10.50
8.70
6.47
3.69
0.28
-3.64
-7.80
-11.91
-15.73
-19.28
-22.72
-26.31
-30.22
-34.49
-39.04
-43.76
-48.50
-53.15
-57.62
-61.73
-65.20
-67.75
-69.24
-69.89
-70.34
-71.49
-74.25
-79.24
-86.44
-95.20
-104.37
-112.44
-117.85
-119.15
-115.27
-105.73
-90.83
-71.71
-50.16
-28.33
-8.32
8.20
20.05
26.57
27.56
23.32
14.73
3.20
-9.47
-21.57
-31.84
-39.78
-45.64
-50.09
-53.89
-57.43
-60.69
-63.32
-65.03
-65.83
-66.23
-67.07
-69.16
-72.87
-77.90
-83.39
-88.29
-91.94
-94.42
-96.66
-100.05
-105.93
-115.07
-127.18
-140.91
-153.93
-163.39
-166.57
-161.57
-147.92
-126.76
-100.63
-72.71
-45.96
-22.41
-2.82
13.11
26.25
37.48
47.41
56.16
63.69
69.92
74.88
78.74
81.66
83.52
83.93
82.36
78.55
72.99
66.87
61.73
58.64
57.47
56.90
54.98
50.24
42.51
33.16
24.30
17.84
14.50
13.70
13.94
13.65
11.73
7.83
2.22
-4.22
-10.14
-13.75
-13.26
-7.41
4.01
19.89
38.18
56.52
73.03
86.77
97.66
106.07
112.41
116.84
119.24
119.55
117.90
114.71
110.57
105.98
101.21
96.27
91.00
85.31
79.28
73.12
66.97
60.66
53.69
45.36
35.13
22.94
9.33
-4.67
-17.97
-29.74
-39.72
-48.15
-55.67
-63.11
-71.23
-80.48
-90.73
-101.11
-110.02
-115.51
-115.87
-110.30
-99.21
-84.16
-67.31
-50.67
-35.63
-22.77
-12.03
-3.14
4.15
9.95
14.25
17.17
18.92
19.84
20.27
20.46
20.51
20.35
19.90
19.11
18.07
16.96
15.97
15.16
14.28
12.92
10.53
6.79
1.76
-4.10
-10.07
-15.50
-20.06
-23.91
-27.58
-31.77
-37.08
-43.82
-51.79
-60.24
-67.84
-72.91
-73.83
-69.55
-60.06
-46.48
-30.76
-15.00
-0.84
10.90
20.23
27.54
33.25
37.56
40.52
42.18
42.79
42.74
42.45
42.17
41.93
41.56
40.82
39.56
37.80
35.74
33.63
31.71
30.00
28.27
26.04
22.86
18.38
12.64
6.06
-0.69
-6.99
-12.49
-17.25
-21.72
-26.46
-32.05
-38.85
-46.88
-55.71
-64.36
-71.36
-75.05
-74.05
-67.78
-56.74
-42.44
-26.87
-11.92
1.21
12.13
21.04
28.33
34.27
38.90
42.10
43.84
44.28
43.77
42.76
41.61
40.55
39.54
38.44
37.04
35.25
33.11
30.83
28.62
26.62
24.71
22.56
19.69
15.70
10.44
4.13
-2.71
-9.43
-15.47
-20.59
-24.92
-28.86
-32.99
-37.89
-44.03
-51.61
-60.34
-69.29
-76.88
-81.27
-80.82
-74.78
-63.61
-48.81
-32.55
-16.83
-3.01
8.40
17.58
24.96
30.91
35.54
38.79
40.58
41.05
40.60
39.75
38.97
38.47
38.05
37.29
35.78
33.35
30.25
26.98
24.09
21.82
19.93
17.78
14.60
9.88
3.60
-3.68
-11.09
-17.81
-23.40
-27.97
-32.07
-36.46
-41.88
-48.76
-57.13
-66.40
-75.40
-82.45
-85.75
-83.87
-76.31
-63.78
-48.00
-31.15
-15.22
-1.44
9.84
18.90
26.26
32.25
36.95
40.24
42.03
42.48
42.00
41.17
40.49
40.21
40.14
39.88
38.97
37.14
34.51
31.47
28.48
25.79
23.24
20.31
16.34
10.88
3.90
-4.11
-12.31
-19.81
-26.02
-30.91
-34.99
-39.17
-44.44
-51.55
-60.68
-71.24
-81.83
-90.42
-94.85
-93.41
-85.49
-71.86
-54.42
-35.66
-17.81
-2.22
10.77
21.56
30.75
38.70
45.36
50.41
53.64
55.10
55.20
54.56
53.76
53.15
52.75
52.25
51.27
49.51
46.93
43.78
40.46
37.30
34.34
31.26
27.50
22.53
16.10
8.45
0.23
-7.80
-15.01
-21.22
-26.67
-31.92
-37.64
-44.43
-52.77
-62.88
-74.48
-86.60
-97.49
-104.83
-106.38
-100.77
-88.07
-69.87
-48.77
-27.53
-8.22
8.19
21.72
32.93
42.42
50.46
57.02
61.87
64.90
66.20
66.10
65.10
63.74
62.40
61.25
60.24
59.11
57.59
55.48
52.75
49.55
46.11
42.58
38.91
34.80
29.86
23.76
16.50
8.43
0.15
-7.73
-14.84
-21.17
-27.10
-33.18
-39.99
-48.01
-57.56
-68.65
-80.81
-92.84
-102.78
-108.29
-107.32
-98.92
-83.68
-63.73
-41.94
-21.02
-2.71
12.50
25.06
35.71
44.91
52.64
58.52
62.22
63.75
63.52
62.28
60.75
59.39
58.29
57.20
55.78
53.80
51.27
48.45
45.67
43.14
40.71
37.93
34.16
28.79
21.60
12.90
3.49
-5.63
-13.65
-20.24
-25.68
-30.73
-36.32
-43.26
-52.04
-62.62
-74.36
-85.85
-95.10
-99.88
-98.38
-89.93
-75.26
-56.48
-36.29
-17.20
-0.72
12.74
23.66
32.74
40.44
46.81
51.60
54.64
56.04
56.30
56.07
55.90
55.98
56.11
55.87
54.88
53.08
50.78
48.52
46.71
45.37
44.07
42.03
38.53
33.24
26.41
18.85
11.65
5.71
1.44
-1.39
-3.62
-6.34
-10.72
-17.56
-27.07
-38.61
-50.67
-61.14
-67.80
-69.04
-64.39
-54.80
-42.26
-29.14
-17.30
-7.55
0.39
7.49
14.67
22.26
29.77
36.15
40.28
41.53
40.07
36.75
32.72
28.89
25.49
22.07
17.78
11.86
4.10
-5.03
-14.57
-23.54
-31.38
-38.18
-44.61
-51.51
-59.49
-68.57
-78.16
-87.21
-94.57
-99.24
-100.55
-98.26
-92.71
-84.85
-76.40
-69.59
-66.67
-69.06
-76.53
-86.92
-96.55
-101.40
-98.49
-86.80
-67.50
-43.18
-16.82
9.11
33.02
53.93
71.16
84.03
92.05
95.26
94.41
90.94
86.54
82.60
79.76
77.92
76.46
74.61
71.89
68.33
64.42
60.82
57.93
55.57
52.92
48.94
43.05
35.73
28.62
24.00
23.85
28.91
38.34
50.04
61.41
70.15
74.74
74.56
69.78
61.40
51.18
41.48
34.75
32.75
35.95
43.42
53.21
63.23
71.98
78.83
83.86
87.41
89.70
90.75
90.49
88.90
86.18
82.61
78.49
73.95
69.00
63.62
57.90
52.14
46.76
42.16
38.51
35.55
32.65
28.98
23.84
16.94
8.59
-0.46
-9.25
-16.98
-23.28
-28.31
-32.71
-37.41
-43.41
-51.33
-61.12
-71.78
-81.41
-87.62
-88.31
-82.39
-70.25
-53.66
-35.09
-16.80
-0.20
14.29
26.95
38.18
48.11
56.56
63.25
68.20
71.82
74.80
77.81
81.21
84.91
88.48
91.34
93.12
93.79
93.70
93.39
93.27
93.23
92.33
88.73
79.90
63.13
36.29
-1.35
-48.50
-101.76
-156.24
-206.68
-248.83
-280.29
-300.66
-310.99
-312.86
-307.67
-296.50
-280.36
-260.56
-238.75
-216.67
-195.82
-177.23
-161.55
-149.25
-140.70
-135.89
-134.19
-134.23
-134.23
-132.65
-128.68
-122.44
-114.58
-105.88
-96.73
-87.19
-76.99
-65.78
-53.22
-38.98
-22.78
-4.49
15.75
37.52
60.10
82.56
103.83
122.77
138.20
149.01
154.53
154.70
150.15
142.12
132.17
121.91
112.88
106.44
103.69
105.36
111.62
122.02
135.51
150.64
165.76
179.29
189.85
196.39
198.47
196.37
191.26
185.01
179.71
177.22
178.60
183.75
191.21
198.31
201.83
198.94
188.23
170.36
147.87
124.15
101.99
82.43
64.51
46.03
25.02
0.97
-24.69
-49.24
-70.05
-85.94
-97.79
-108.23
-120.31
-136.14
-155.71
-176.59
-194.62
-205.53
-206.64
-198.25
-183.64
-167.86
-155.67
-149.57
-148.94
-150.70
-151.09
-147.67
-140.34
-131.07
-122.54
-116.63
-113.81
-113.45
-114.94
-118.22
-123.53
-130.42
-136.95
-139.68
-134.87
-120.12
-95.62
-64.27
-30.54
1.23
28.02
48.56
62.76
70.73
72.08
65.95
51.60
29.50
2.00
-26.80
-51.89
-68.75
-74.65
-69.34
-54.76
-34.24
-11.40
10.58
29.26
43.04
51.29
54.40
53.73
51.16
48.33
45.91
43.43
39.96
34.90
28.73
22.90
19.10
18.39
20.62
24.62
28.79
31.83
33.04
32.22
29.34
24.42
17.60
9.28
0.30
-8.30
-15.57
-21.06
-25.11
-28.71
-33.18
-39.56
-48.06
-57.73
-66.56
-72.06
-72.07
-65.65
-53.40
-37.32
-20.07
-4.02
9.43
20.00
28.25
34.94
40.55
45.05
48.09
49.32
48.75
46.80
44.17
41.62
39.61
38.29
37.49
36.91
36.26
35.29
33.75
31.36
27.86
23.11
17.24
10.65
3.90
-2.50
-8.32
-13.72
-19.20
-25.42
-32.88
-41.62
-50.97
-59.55
-65.58
-67.31
-63.63
-54.50
-40.95
-24.87
-8.31
6.98
19.97
30.40
38.51
44.76
49.55
53.08
55.41
56.55
56.55
55.56
53.84
51.66
49.28
46.91
44.65
42.52
40.39
38.03
35.19
31.63
27.20
21.90
15.87
9.37
2.71
-3.79
-9.93
-15.73
-21.45
-27.61
-34.83
-43.43
-53.07
-62.51
-69.80
-72.88
-70.28
-61.76
-48.48
-32.55
-16.31
-1.60
10.68
20.49
28.34
34.77
40.07
44.29
47.32
49.14
49.92
49.94
49.50
48.79
47.77
46.27
44.13
41.34
38.16
34.99
32.25
30.03
28.04
25.64
22.17
17.24
10.93
3.85
-3.17
-9.43
-14.64
-19.01
-23.14
-27.75
-33.49
-40.66
-49.03
-57.74
-65.37
-70.15
-70.52
-65.68
-55.84
-42.33
-27.08
-12.02
1.44
12.63
21.58
28.64
34.20
38.49
41.57
43.46
44.20
43.98
43.13
42.06
41.10
40.38
39.78
38.97
37.62
35.56
32.85
29.82
26.81
24.07
21.57
18.98
15.90
11.96
7.10
1.57
-4.11
-9.38
-13.90
-17.66
-20.96
-24.30
-28.17
-32.94
-38.77
-45.62
-53.08
-60.32
-66.11
-68.99
-67.72
-61.74
-51.53
-38.50
-24.57
-11.55
-0.61
7.92
14.38
19.39
23.44
26.70
29.07
30.32
30.43
29.66
28.51
27.54
27.15
27.34
27.75
27.90
27.36
26.01
24.08
21.92
19.83
17.82
15.64
12.91
9.36
4.90
-0.26
-5.69
-10.94
-15.62
-19.55
-22.84
-25.83
-29.04
-32.98
-38.04
-44.26
-51.29
-58.31
-64.10
-67.32
-66.83
-62.06
-53.30
-41.64
-28.69
-16.13
-5.18
3.58
10.19
15.04
18.53
20.92
22.32
22.79
22.51
21.80
21.01
20.47
20.31
20.43
20.55
20.35
19.57
18.17
16.30
14.30
12.46
10.93
9.61
8.14
6.02
2.86
-1.45
-6.66
-12.23
-17.54
-22.15
-25.94
-29.12
-32.15
-35.61
-40.01
-45.75
-52.92
-61.22
-69.82
-77.34
-82.09
-82.53
-77.79
-68.06
-54.61
-39.41
-24.52
-11.49
-1.00
7.07
13.31
18.40
22.77
26.51
29.42
31.31
32.13
32.10
31.58
30.96
30.49
30.19
29.94
29.54
28.88
27.90
26.56
24.86
22.72
20.14
17.11
13.65
9.77
5.47
0.77
-4.31
-9.66
-15.11
-20.49
-25.70
-30.71
-35.61
-40.59
-45.94
-52.06
-59.26
-67.58
-76.55
-85.00
-91.25
-93.55
-90.67
-82.38
-69.59
-54.05
-37.81
-22.55
-9.27
1.80
10.92
18.49
24.75
29.75
33.38
35.59
36.49
36.46
36.00
35.60
35.56
35.90
36.38
36.62
36.28
35.20
33.43
31.18
28.67
26.00
23.11
19.75
15.62
10.48
4.32
-2.67
-10.08
-17.40
-24.22
-30.33
-35.83
-41.08
-46.65
-53.09
-60.87
-70.09
-80.36
-90.58
-99.05
-103.76
-102.95
-95.75
-82.59
-65.13
-45.78
-26.91
-10.22
3.58
14.60
23.32
30.17
35.33
38.76
40.48
40.76
40.18
39.44
39.09
39.25
39.63
39.67
38.88
37.12
34.66
32.00
29.53
27.23
24.57
20.78
15.22
7.72
-1.26
-10.78
-19.78
-27.50
-33.76
-39.07
-44.45
-51.13
-60.17
-72.02
-86.19
-101.10
-114.27
-122.86
-124.47
-117.91
-103.63
-83.62
-60.68
-37.58
-16.31
2.22
18.00
31.36
42.58
51.62
58.28
62.53
64.69
65.50
65.76
66.05
66.45
66.59
65.98
64.35
61.90
59.15
56.64
54.51
52.30
49.09
43.94
36.38
26.64
15.61
4.47
-5.77
-14.67
-22.40
-29.72
-37.68
-47.39
-59.64
-74.51
-91.06
-107.15
-119.74
-125.67
-122.73
-110.41
-90.32
-65.60
-39.84
-16.03
4.22
20.64
33.80
44.43
53.03
59.72
64.51
67.55
69.16
69.80
69.86
69.54
68.81
67.58
65.85
63.75
61.64
59.77
58.21
56.55
54.01
49.73
43.10
34.14
23.57
12.59
2.36
-6.42
-13.85
-20.77
-28.44
-38.09
-50.51
-65.69
-82.53
-98.87
-111.74
-118.11
-115.73
-104.06
-84.50
-60.07
-34.37
-10.46
9.91
26.48
40.01
51.47
61.50
70.22
77.39
82.72
86.16
87.92
88.34
87.76
86.37
84.25
81.45
78.09
74.49
70.98
67.79
64.77
61.40
56.86
50.41
41.82
31.47
20.38
9.79
0.60
-6.98
-13.57
-20.44
-29.01
-40.31
-54.45
-70.29
-85.45
-96.79
-101.20
-96.68
-83.01
-61.97
-36.83
-11.25
11.79
30.78
45.70
57.50
67.32
75.90
83.34
89.34
93.57
95.94
96.74
96.48
95.74
95.03
94.80
95.32
96.70
98.64
100.35
100.51
97.55
90.15
77.70
60.50
39.72
16.95
-6.24
-28.66
-49.67
-69.17
-87.44
-104.99
-122.18
-138.76
-153.55
-164.36
-168.50
-163.65
-148.95
-125.50
-96.25
-65.11
-35.76
-10.68
9.26
24.53
36.28
45.63
53.27
59.39
63.94
66.94
68.61
69.41
69.80
70.12
70.43
70.54
70.13
68.88
66.53
62.90
57.89
51.56
44.12
36.03
27.84
20.03
12.81
6.07
-0.70
-8.21
-17.23
-28.35
-41.56
-56.03
-69.88
-80.50
-85.18
-82.09
-70.99
-53.44
-32.31
-10.79
8.60
24.60
37.22
47.23
55.48
62.46
68.16
72.19
74.16
73.92
71.76
68.28
64.26
60.38
57.02
54.21
51.72
49.15
46.08
42.21
37.32
31.38
24.50
16.90
8.91
0.90
-6.88
-14.38
-21.80
-29.70
-38.78
-49.58
-61.96
-74.66
-85.37
-91.26
-90.00
-80.69
-64.39
-43.78
-22.26
-2.77
13.02
24.92
33.76
40.73
46.66
51.83
56.02
58.81
59.89
59.28
57.33
54.56
51.53
48.60
45.94
43.49
41.08
38.46
35.36
31.50
26.67
20.79
13.97
6.48
-1.31
-9.08
-16.70
-24.32
-32.37
-41.45
-52.06
-64.14
-76.70
-87.76
-94.76
-95.37
-88.42
-74.49
-55.83
-35.53
-16.46
-0.42
12.21
22.08
30.27
37.61
44.40
50.46
55.35
58.62
60.06
59.66
57.72
54.69
51.11
47.48
44.07
40.98
38.05
35.00
31.47
27.21
22.02
15.91
9.06
1.78
-5.51
-12.51
-19.09
-25.52
-32.40
-40.59
-50.70
-62.59
-75.02
-85.67
-91.74
-90.95
-82.48
-67.38
-48.28
-28.43
-10.60
3.72
14.46
22.53
29.10
35.00
40.43
45.10
48.56
50.49
50.83
49.86
48.03
45.78
43.40
41.05
38.66
36.10
33.17
29.68
25.54
20.72
15.27
9.35
3.15
-3.18
-9.54
-15.99
-22.80
-30.41
-39.26
-49.50
-60.61
-71.16
-79.03
-81.97
-78.42
-68.27
-53.03
-35.34
-18.05
-3.26
8.24
16.85
23.55
29.22
34.14
38.06
40.47
41.09
40.06
37.93
35.40
33.05
31.16
29.60
28.05
26.05
23.32
19.77
15.58
11.11
6.68
2.46
-1.70
-6.11
-11.24
-17.44
-24.95
-33.77
-43.66
-53.95
-63.42
-70.35
-72.90
-69.71
-60.55
-46.57
-30.05
-13.57
0.82
12.24
20.89
27.58
33.05
37.48
40.59
41.90
41.22
38.84
35.48
32.00
29.08
