1535557406.00
64.000000
-0.00
-0.00
-0.00
-0.00
-0.00
-0.00
-0.00
-0.00
-0.00
-0.00
0.00
0.01
0.01
-0.00
-0.03
-0.05
-0.05
0.00
0.13
0.36
0.66
1.01
1.37
1.72
2.06
2.40
2.79
3.24
3.80
4.42
5.06
5.66
6.20
6.68
7.15
7.68
8.31
9.14
10.09
11.04
11.88
12.56
13.14
13.76
14.65
15.96
17.91
20.32
22.90
25.38
27.58
29.57
31.68
34.32
37.81
42.54
48.15
54.10
59.83
64.97
69.58
74.14
79.34
85.71
93.76
103.00
112.62
121.73
129.77
136.75
143.30
150.75
157.77
166.64
177.95
191.79
206.97
220.57
228.25
225.36
208.53
176.87
132.76
80.05
23.07
-34.94
-92.44
-149.16
-205.23
-260.37
-313.74
-363.87
-409.83
-450.91
-486.50
-515.74
-537.23
-549.22
-549.96
-538.37
-514.21
-478.67
-433.88
-382.45
-327.02
-269.84
-212.63
-156.66
-102.95
-52.37
-5.90
35.58
71.43
101.35
125.50
144.38
158.69
169.15
176.37
180.75
182.57
182.07
179.51
175.23
169.65
163.18
156.15
148.81
141.30
133.69
126.02
118.33
110.69
103.16
95.81
88.68
81.82
75.24
68.95
62.95
57.26
51.88
46.81
42.03
37.54
33.34
29.42
25.82
22.52
19.53
16.83
14.39
12.18
10.19
8.40
6.82
5.48
4.36
3.44
2.69
2.06
1.48
0.93
0.41
-0.05
-0.40
-0.64
-0.77
-0.84
-0.94
-1.15
-1.52
-2.02
-2.55
-2.98
-3.20
-3.20
-3.09
-3.07
-3.34
-3.97
-4.93
-5.97
-6.83
-7.29
-7.34
-7.15
-7.05
-7.36
-8.22
-9.55
-11.04
-12.35
-13.21
-13.60
-13.67
-13.68
-13.89
-14.51
-15.74
-17.81
-20.74
-24.04
-26.56
-26.63
-22.77
-14.57
-3.15
9.05
19.23
25.43
27.38
26.40
24.67
24.01
25.00
26.98
28.65
29.01
27.93
26.25
24.75
23.71
22.58
20.40
16.74
12.45
9.31
9.15
12.47
17.95
23.19
26.16
26.49
25.62
25.36
26.45
27.90
27.90
25.01
19.80
14.57
11.99
13.41
17.89
22.54
23.75
18.68
6.34
-11.97
-33.01
-52.71
-67.16
-74.41
-74.88
-71.08
-66.19
-62.21
-58.83
-53.98
-45.37
-32.15
-15.79
0.51
13.31
20.22
20.56
15.25
6.33
-3.21
-9.63
-9.09
1.04
20.46
45.07
67.74
80.88
79.71
64.85
42.49
22.11
12.60
18.70
39.17
67.72
95.73
115.53
123.07
118.68
106.06
90.43
76.63
67.93
65.64
69.34
76.93
85.50
91.92
93.46
88.18
75.09
53.88
25.29
-8.05
-42.83
-75.63
-103.48
-124.33
-137.24
-142.32
-140.59
-133.70
-123.80
-113.63
-106.05
-103.57
-107.72
-118.49
-134.27
-152.45
-170.35
-186.21
-199.60
-210.92
-220.63
-228.81
-235.03
-238.82
-239.94
-238.26
-233.35
-224.00
-208.00
-182.68
-145.96
-97.54
-39.78
22.43
82.70
135.02
175.46
203.41
221.26
232.88
241.32
246.99
247.31
237.96
215.32
178.55
130.54
77.09
24.72
-21.52
-59.36
-89.05
-112.27
-130.91
-146.61
-160.84
-175.06
-190.38
-206.73
-222.15
-232.81
-234.05
-222.04
-195.16
-154.29
-102.03
-41.29
25.40
95.70
166.45
232.82
288.70
328.30
348.33
349.42
335.88
313.98
289.56
266.20
244.75
224.26
203.32
181.26
158.35
135.42
113.30
92.46
73.05
55.17
38.92
24.51
12.09
1.76
-6.39
-12.33
-16.23
-18.62
-20.47
-22.85
-26.51
-31.42
-36.78
-41.32
-43.90
-43.87
-41.06
-35.48
-26.99
-15.45
-1.03
15.13
30.76
42.84
48.54
46.24
36.16
20.18
1.14
-18.17
-35.73
-50.54
-62.23
-70.68
-75.69
-77.06
-74.87
-69.69
-62.47
-54.13
-45.18
-35.57
-24.97
-13.23
-0.69
11.86
23.64
34.30
44.04
53.39
62.76
72.19
81.32
89.69
97.09
103.61
109.67
115.73
122.13
128.75
134.90
139.22
139.87
135.18
124.33
108.05
88.64
69.33
53.07
41.43
34.07
29.14
24.08
16.72
5.76
-9.05
-27.18
-47.48
-68.32
-87.67
-103.40
-113.82
-118.21
-117.25
-112.68
-106.67
-100.75
-95.28
-89.51
-82.37
-73.46
-63.68
-55.10
-50.18
-50.63
-56.74
-67.32
-80.27
-93.47
-105.21
-114.36
-119.86
-120.42
-114.62
-101.56
-81.60
-56.73
-30.10
-5.05
15.98
31.89
42.63
48.47
49.46
45.51
36.83
24.36
9.67
-5.62
-20.37
-33.98
-46.01
-55.62
-61.43
-62.00
-56.58
-45.64
-30.89
-14.63
1.07
14.82
26.00
34.52
40.55
44.40
46.52
47.49
47.92
48.29
48.83
49.54
50.23
50.61
50.36
49.28
47.38
44.98
42.59
40.54
38.59
35.73
30.45
21.45
8.41
-7.61
-24.44
-39.66
-51.56
-59.76
-65.03
-68.46
-70.43
-70.08
-65.69
-55.93
-41.21
-24.43
-10.38
-4.01
-8.26
-22.48
-42.47
-62.08
-75.56
-79.79
-75.06
-64.44
-52.15
-42.08
-36.67
-36.85
-42.39
-52.19
-64.58
-77.33
-87.82
-93.46
-92.39
-84.17
-69.97
-52.29
-34.03
-17.44
-3.36
8.85
20.65
33.22
46.56
59.39
69.95
77.16
81.48
84.81
89.46
96.89
106.85
117.59
126.91
133.38
136.95
138.66
139.84
141.41
143.72
146.93
151.36
157.24
163.96
169.36
169.76
161.30
141.88
112.79
78.83
46.74
22.62
9.59
7.12
11.95
20.14
28.83
36.70
43.16
47.09
46.20
37.60
19.24
-8.52
-42.55
-77.73
-108.79
-131.99
-145.99
-151.61
-150.86
-145.90
-138.35
-129.20
-119.03
-108.29
-97.57
-87.70
-79.73
-74.81
-73.79
-76.90
-83.51
-92.16
-100.92
-107.95
-111.90
-112.14
-108.74
-102.36
-94.16
-85.81
-79.32
-76.54
-78.44
-84.54
-92.83
-100.39
-104.45
-103.36
-96.85
-85.72
-71.06
-53.71
-34.12
-12.73
9.71
32.04
53.01
71.65
87.32
99.45
107.11
108.88
103.37
89.96
69.72
45.47
21.22
1.02
-12.30
-17.97
-17.25
-12.90
-8.02
-5.12
-5.40
-8.74
-14.04
-19.55
-23.34
-23.59
-19.03
-9.55
3.36
16.71
26.90
31.07
28.36
20.07
8.76
-3.42
-15.95
-30.01
-47.08
-66.90
-86.36
-100.02
-102.49
-91.27
-68.57
-40.76
-15.68
0.97
8.13
9.31
10.28
15.77
27.02
41.60
55.18
64.16
67.40
66.39
63.91
62.38
62.89
65.20
68.42
71.78
74.87
77.47
79.29
79.78
78.39
74.90
69.60
63.39
57.36
52.57
49.79
49.33
50.93
53.91
57.25
59.96
61.38
61.19
59.55
57.09
54.86
54.03
55.65
60.17
67.17
75.25
81.83
83.95
79.29
67.22
49.45
29.81
12.76
1.92
-1.30
1.07
4.95
6.29
3.24
-2.97
-8.34
-8.89
-2.42
10.03
22.67
27.88
19.85
-2.47
-35.04
-69.79
-99.66
-120.56
-132.22
-139.72
-149.45
-165.54
-187.70
-212.39
-233.92
-248.72
-254.41
-248.19
-230.06
-201.60
-166.31
-129.36
-97.50
-75.90
-69.39
-79.48
-84.79
-66.38
-17.49
50.51
118.93
165.26
193.86
211.18
219.04
215.40
197.83
163.82
113.66
52.07
-14.44
-78.45
-123.72
-140.58
-129.27
-101.37
-70.36
-45.15
-26.98
-12.95
2.09
20.04
39.18
56.27
63.22
61.78
55.80
50.22
48.39
52.40
60.77
69.04
71.58
64.11
45.72
16.44
-18.52
-57.32
-99.46
-146.35
-190.21
-224.84
-247.40
-258.97
-263.01
-260.55
-249.77
-226.23
-187.18
-134.46
-75.77
-20.78
23.18
53.28
71.89
83.64
93.44
104.46
117.11
129.93
142.48
156.42
174.45
199.18
227.90
258.35
286.93
308.46
316.45
305.71
274.96
228.09
173.85
122.53
82.76
57.99
46.26
42.27
40.99
40.00
39.52
41.07
44.95
49.83
52.85
51.43
44.70
34.01
21.88
10.63
1.52
-6.05
-13.87
-24.11
-38.12
-55.49
-74.17
-89.41
-99.49
-103.87
-103.73
-101.41
-99.59
-100.14
-103.33
-107.86
-111.54
-112.84
-110.96
-106.62
-101.58
-97.80
-96.75
-99.05
-104.61
-112.71
-121.74
-128.46
-128.69
-118.74
-97.14
-66.23
-31.63
-0.35
22.11
33.78
36.67
34.76
31.38
27.54
22.04
13.48
1.96
-10.15
-19.18
-21.99
-17.81
-8.61
2.17
11.40
17.95
23.44
30.86
43.01
61.27
85.22
113.10
142.48
169.72
191.35
203.30
202.07
186.50
159.13
125.92
94.23
70.20
55.97
50.31
49.75
50.97
52.27
53.81
56.31
59.82
63.21
64.73
63.34
59.10
53.12
46.70
40.82
35.36
29.33
21.39
10.56
-3.11
-18.61
-33.69
-46.74
-56.60
-62.88
-66.07
-67.12
-67.04
-66.44
-65.47
-64.35
-62.49
-59.64
-55.92
-51.81
-47.88
-44.66
-42.34
-40.86
-39.86
-38.98
-37.95
-36.73
-35.41
-34.20
-33.30
-32.88
-32.97
-33.48
-34.29
-35.29
-36.40
-37.65
-39.02
-40.66
-42.73
-45.25
-48.18
-51.40
-54.76
-58.16
-61.65
-65.23
-69.06
-73.21
-77.44
-81.16
-83.49
-83.42
-80.10
-73.78
-64.22
-51.91
-37.81
-23.10
-8.80
4.36
15.82
25.13
31.78
35.19
34.80
30.12
21.13
8.59
-6.20
-21.57
-36.04
-48.67
-59.40
-69.23
-80.36
-95.70
-117.53
-146.04
-177.87
-206.14
-222.15
-218.25
-190.55
-140.85
-76.03
-5.91
59.29
111.27
145.17
160.23
158.00
144.92
128.95
116.69
111.24
111.65
114.34
115.61
113.66
109.36
104.80
101.32
98.30
93.63
85.32
72.66
56.59
38.96
21.95
7.72
-1.52
-3.37
4.13
21.41
46.15
73.58
98.04
115.15
123.73
125.83
125.51
125.96
127.44
126.58
118.23
98.41
66.86
28.57
-9.93
-41.64
-62.39
-72.16
-74.35
-73.76
-74.10
-77.11
-82.35
-87.52
-89.04
-83.28
-67.94
-43.77
-14.68
13.66
36.32
51.36
59.41
62.15
60.27
53.13
40.40
24.43
10.55
4.99
11.21
27.33
46.75
61.34
66.08
60.03
46.34
29.61
13.13
-2.00
-15.98
-29.25
-41.59
-52.34
-60.92
-66.79
-69.89
-70.31
-68.09
-63.00
-54.66
-42.94
-27.96
-10.36
8.91
28.49
47.14
63.94
77.22
87.55
95.29
100.80
104.12
106.27
105.94
102.34
95.09
84.31
70.69
54.92
37.87
20.38
2.67
-14.12
-29.28
-42.38
-53.14
-61.29
-66.87
-70.01
-71.09
-70.59
-69.04
-66.93
-64.60
-62.28
-60.03
-57.92
-55.99
-54.27
-52.77
-51.47
-50.37
-49.50
-48.87
-48.45
-48.23
-48.19
-48.33
-48.63
-49.22
-50.07
-51.17
-52.60
-54.34
-56.39
-58.70
-61.21
-63.86
-66.56
-69.16
-71.50
-73.28
-74.05
-73.28
-70.36
-64.78
-56.23
-44.45
-29.53
-12.00
7.22
26.96
45.93
62.89
76.62
86.02
90.19
88.68
81.30
68.44
51.17
31.20
10.53
-8.80
-25.10
-37.32
-44.76
-47.38
-45.45
-39.20
-28.79
-14.44
3.23
23.15
42.46
59.64
73.17
82.13
86.73
87.89
86.99
85.21
83.19
80.90
78.55
76.04
72.90
67.91
59.52
46.34
28.42
9.05
-9.05
-22.39
-29.16
-30.15
-28.08
-25.70
-24.62
-24.47
-23.50
-20.39
-14.82
-7.89
-1.08
3.83
8.05
13.10
19.80
27.88
35.76
41.33
43.05
40.76
35.59
29.97
26.02
24.94
27.20
32.06
37.90
42.10
41.41
33.07
16.54
-4.99
-26.96
-43.21
-49.66
-46.40
-37.79
-30.28
-28.90
-34.56
-44.07
-52.12
-53.96
-48.28
-37.23
-24.82
-14.41
-7.28
-2.14
3.37
10.58
21.00
34.31
49.26
64.08
76.49
83.35
80.84
65.38
35.94
-3.48
-44.07
-74.48
-85.33
-73.62
-44.24
-7.50
25.60
47.86
58.11
59.76
57.60
54.70
51.18
44.82
35.15
23.06
11.49
4.23
3.48
9.12
19.27
31.78
44.55
56.54
66.19
71.38
69.62
59.21
40.80
17.83
-4.70
-22.29
-32.46
-36.10
-35.73
-34.04
-32.75
-32.19
-32.19
-33.06
-35.71
-40.03
-46.59
-54.43
-61.54
-66.16
-67.01
-64.19
-58.84
-53.60
-49.09
-45.89
-43.73
-41.72
-39.25
-35.89
-31.88
-28.05
-25.53
-24.98
-26.85
-30.78
-34.47
-37.52
-40.44
-41.97
-41.29
-38.14
-32.37
-24.11
-13.65
-1.17
12.63
28.26
43.97
58.47
70.69
80.11
86.30
88.41
86.64
80.88
71.32
58.39
43.06
26.32
9.41
-5.23
-17.28
-26.61
-33.49
-38.21
-42.82
-46.35
-47.88
-46.41
-41.71
-34.55
-26.03
-17.81
-11.66
-8.67
-8.83
-11.19
-13.47
-14.16
-12.78
-9.60
-6.08
-5.38
-11.09
-25.94
-49.87
-78.54
-105.90
-125.21
-130.75
-120.13
-95.93
-58.36
-11.73
38.63
87.96
129.01
154.18
158.03
138.60
96.63
35.89
-38.61
-120.76
-203.07
-280.41
-347.20
-396.98
-413.42
-387.63
-325.42
-246.20
-179.59
-131.24
-98.02
-74.16
-53.53
-34.07
-16.63
-2.80
6.72
13.41
21.04
30.66
42.17
55.33
69.65
85.59
104.26
127.35
156.83
195.00
241.32
294.32
352.58
403.30
434.89
440.65
421.79
385.64
341.59
295.84
251.92
211.68
175.88
146.06
123.43
108.78
101.85
100.96
101.77
98.38
84.77
57.15
17.12
-29.06
-72.72
-106.31
-126.03
-132.94
-131.05
-124.78
-117.16
-108.55
-98.40
-87.00
-76.19
-68.57
-66.07
-68.57
-74.37
-81.31
-87.56
-92.90
-98.59
-106.65
-118.03
-133.83
-153.47
-174.48
-192.60
-202.39
-199.04
-180.45
-148.69
-109.81
-71.95
-42.02
-23.37
-15.36
-14.63
-17.40
-21.30
-25.73
-30.67
-35.62
-38.89
-38.09
-31.86
-20.63
-6.53
7.85
20.66
31.73
42.38
53.74
67.06
81.76
95.57
105.39
109.14
106.52
99.41
90.75
83.53
79.64
79.43
82.34
86.82
90.44
89.41
79.61
58.53
27.95
-5.22
-31.21
-41.25
-33.12
-11.18
15.18
36.10
45.62
43.64
34.29
21.64
9.18
-3.07
-16.45
-31.47
-46.54
-58.73
-65.49
-65.97
-61.51
-54.72
-48.24
-43.14
-38.88
-33.75
-26.13
-15.46
-2.64
10.23
21.10
28.74
33.42
36.76
40.83
47.00
55.19
63.87
70.94
74.65
74.44
71.02
66.16
62.07
60.72
63.66
71.38
82.72
93.48
99.31
95.50
79.79
54.02
23.77
-3.81
-23.07
-32.98
-35.93
-36.10
-37.47
-41.75
-48.29
-55.56
-62.30
-68.20
-73.88
-79.56
-84.26
-86.18
-83.30
-74.32
-60.06
-42.92
-26.17
-13.56
-7.53
-8.93
-16.87
-29.29
-41.96
-53.21
-62.18
-68.56
-73.43
-78.25
-85.11
-95.22
-107.70
-118.71
-122.48
-115.22
-92.03
-53.01
-2.70
50.98
99.50
136.09
156.71
159.77
146.29
119.98
85.11
50.20
22.82
7.30
4.14
10.54
22.15
35.31
48.30
59.93
69.35
75.00
75.15
69.82
60.62
50.02
40.28
32.73
26.35
18.68
7.94
-7.65
-27.34
-47.93
-65.33
-76.17
-78.82
-74.71
-67.40
-61.01
-58.92
-62.25
-70.03
-80.34
-90.08
-94.51
-88.53
-68.31
-33.99
8.59
48.11
74.78
81.38
67.38
39.80
9.15
-15.71
-31.36
-40.20
-47.27
-56.07
-65.76
-75.11
-81.52
-84.28
-85.47
-88.66
-96.93
-111.00
-128.81
-147.62
-163.95
-173.86
-173.96
-162.17
-138.62
-106.25
-71.14
-37.14
-7.76
15.76
34.89
52.06
68.99
85.70
100.91
112.55
120.93
127.25
133.11
139.51
145.80
150.26
150.90
146.53
137.57
125.98
114.05
104.24
98.71
98.38
101.86
105.17
102.49
88.43
60.92
22.31
-21.02
-61.30
-92.48
-111.81
-119.48
-116.72
-104.35
-82.68
-53.07
-18.96
14.39
41.39
58.59
65.94
66.26
63.32
59.95
57.42
55.83
55.12
55.66
58.09
62.57
68.31
74.02
77.91
78.74
76.43
71.93
66.48
61.32
57.41
55.20
54.53
54.07
51.09
41.98
23.61
-4.71
-40.01
-76.07
-105.60
-123.06
-126.84
-119.35
-105.41
-89.76
-75.29
-62.72
-51.78
-42.53
-35.71
-32.46
-33.23
-37.16
-42.20
-46.08
-46.84
-43.34
-36.75
-28.79
-21.16
-14.96
-10.37
-6.79
-3.24
1.12
6.47
12.33
17.89
22.35
25.21
26.37
26.26
25.49
24.62
23.79
22.98
22.07
20.89
19.41
17.67
16.00
14.94
15.08
16.79
20.00
24.34
29.23
33.66
36.45
36.97
35.45
32.90
30.51
29.15
29.11
30.13
30.95
29.44
24.31
15.74
5.33
-4.91
-13.46
-19.73
-23.89
-27.71
-34.18
-44.88
-59.05
-73.82
-86.03
-93.49
-95.52
-92.63
-87.40
-84.23
-86.64
-96.29
-113.02
-135.69
-162.84
-193.04
-215.66
-212.30
-175.25
-111.67
-40.28
20.19
59.55
77.54
80.89
78.45
75.75
73.05
68.53
61.01
51.48
42.27
35.42
32.15
32.59
35.17
36.70
35.07
29.92
22.60
15.27
9.73
7.38
9.31
15.45
24.62
36.20
50.68
69.20
91.86
114.88
132.84
139.70
131.31
107.79
74.49
39.94
12.31
-4.06
-9.79
-8.54
-4.65
-0.81
2.38
5.66
9.57
13.70
16.82
17.84
16.96
15.35
14.54
15.83
19.50
24.79
30.33
34.68
37.11
37.83
37.60
37.38
37.61
38.15
38.19
36.57
32.26
24.72
14.18
1.37
-12.09
-25.14
-36.78
-46.26
-53.27
-57.91
-60.62
-62.02
-62.82
-63.48
-64.18
-64.68
-64.51
-63.27
-60.91
-57.95
-55.29
-54.01
-54.70
-57.32
-61.00
-64.41
-66.54
-66.88
-66.20
-65.24
-65.13
-66.75
-70.76
-77.47
-86.66
-96.96
-105.42
-108.01
-100.92
-82.80
-55.84
-25.60
1.07
18.83
25.82
23.97
17.15
9.08
1.59
-5.22
-11.94
-18.52
-23.75
-25.90
-23.45
-16.22
-5.21
7.91
21.65
35.27
48.71
62.27
75.54
88.19
99.04
107.34
111.27
110.10
104.07
94.31
82.35
69.72
57.57
46.35
36.08
26.40
17.27
8.77
1.26
-4.93
-9.54
-12.52
-14.16
-14.90
-15.30
-15.67
-16.13
-16.74
-17.34
-17.84
-18.21
-18.57
-19.14
-20.18
-21.85
-24.32
-27.75
-31.94
-36.78
-42.15
-47.97
-54.17
-60.70
-67.52
-74.65
-82.23
-89.88
-97.43
-104.79
-111.92
-118.84
-125.61
-132.29
-139.01
-146.02
-152.82
-159.10
-164.60
-168.99
-171.86
-172.62
-170.32
-163.38
-154.69
-145.03
-134.87
-124.55
-114.37
-104.54
-95.28
-86.78
-79.25
-72.96
-67.49
-62.58
-58.06
-53.81
-49.75
-45.86
-42.17
-38.83
-36.10
-33.77
-31.88
-30.55
-29.95
-30.33
-31.87
-34.70
-38.91
-44.49
-51.06
-58.23
-65.56
-72.64
-79.07
-84.46
-88.47
-90.86
-91.42
-89.90
-86.18
-80.23
-72.15
-62.14
-50.52
-37.30
-22.77
-8.25
5.28
17.35
27.65
36.01
42.49
47.37
51.59
55.96
60.38
64.84
69.60
74.70
79.91
84.92
89.51
94.74
101.37
107.99
113.89
119.58
125.38
131.40
137.63
144.12
154.13
169.90
187.12
203.42
219.74
236.77
254.91
274.26
294.66
322.24
360.81
401.07
438.27
474.98
513.10
552.53
590.47
621.29
648.11
671.25
672.54
644.30
593.85
530.60
464.19
403.28
354.92
337.48
362.29
409.72
464.27
521.32
573.79
615.06
641.38
568.54
359.92
152.40
1.88
-119.14
-218.61
-302.39
-373.84
-434.11
-482.76
-505.45
-493.04
-464.01
-430.96
-394.44
-357.47
-322.93
-292.15
-264.09
-226.02
-168.54
-102.14
-33.83
37.38
109.57
180.01
245.66
302.51
350.97
387.61
399.74
380.80
335.13
270.95
199.34
130.83
71.40
23.73
-36.65
-125.02
-236.13
-346.19
-432.02
-483.56
-505.03
-508.13
-503.08
-495.51
-483.91
-464.78
-436.49
-402.38
-368.46
-340.04
-319.64
-306.81
-299.11
-290.28
-275.53
-253.13
-224.77
-194.30
-165.90
-142.95
-127.24
-118.61
-113.47
-107.91
-99.19
-86.44
-70.13
-51.21
-30.73
-9.60
11.33
31.30
48.68
61.27
67.02
65.20
57.17
46.07
35.67
28.60
25.14
22.91
17.85
6.51
-11.86
-34.15
-54.20
-65.34
-62.28
-44.76
-16.32
17.63
51.42
80.11
99.52
106.48
99.57
80.01
51.72
20.76
-6.75
-26.81
-37.91
-40.76
-36.95
-28.27
-15.71
-1.02
13.27
24.03
28.41
25.00
13.92
-3.13
-23.55
-43.99
-61.29
-72.97
-78.10
-77.36
-72.58
-65.85
-58.77
-52.12
-46.06
-40.97
-37.59
-37.25
-40.79
-47.85
-56.64
-64.61
-69.53
-70.19
-66.76
-60.03
-50.90
-39.50
-25.27
-7.28
16.29
44.63
75.39
105.76
133.30
156.53
174.96
188.51
196.92
199.76
196.78
188.87
177.97
166.04
153.69
139.36
119.74
91.35
52.86
6.19
-43.64
-90.45
-129.11
-156.96
-173.56
-179.97
-177.55
-167.52
-151.51
-131.86
-111.61
-93.82
-80.90
-74.09
-73.81
-79.48
-89.48
-101.37
-112.34
-119.93
-122.86
-121.36
-116.57
-110.35
-103.46
-94.87
-82.38
-63.95
-38.68
-6.92
30.13
71.08
112.52
151.24
185.48
214.65
238.56
257.37
272.40
286.68
304.84
327.76
355.54
387.81
422.35
452.59
468.43
460.46
424.17
362.13
276.83
175.04
67.84
-32.64
-118.44
-187.68
-242.35
-285.90
-321.83
-361.41
-414.02
-481.56
-558.89
-639.26
-717.81
-791.44
-857.81
-865.91
-786.64
-634.28
-456.62
-295.92
-168.93
-72.58
4.67
74.24
142.90
203.09
243.80
259.62
253.27
232.36
206.85
187.08
180.60
190.09
207.76
222.94
231.03
233.19
232.07
229.90
227.43
223.78
217.64
204.68
179.55
148.35
118.51
93.27
69.16
40.81
4.58
-38.50
-84.04
-124.85
-152.61
-154.84
-133.91
-101.84
-72.62
-53.28
-41.07
-27.69
-5.73
27.77
67.96
105.56
134.41
150.60
155.09
153.06
150.40
150.20
152.41
152.02
142.31
119.31
80.05
25.76
-38.49
-105.80
-168.61
-221.00
-262.28
-294.61
-302.85
-281.44
-238.05
-185.70
-132.71
-88.68
-47.58
-7.29
31.35
67.17
97.27
118.01
129.20
133.51
134.30
134.90
135.00
132.73
125.78
110.10
84.04
50.50
15.13
-16.34
-39.08
-51.40
-52.31
-40.96
-18.57
12.13
47.14
80.92
107.42
122.96
126.82
122.17
114.05
105.93
98.50
90.14
77.60
57.60
28.52
-9.69
-55.46
-105.96
-157.57
-206.17
-247.49
-278.32
-296.92
-302.41
-294.42
-273.38
-240.79
-199.05
-151.40
-101.72
-54.30
-13.13
19.29
42.67
58.19
68.33
76.92
88.09
104.53
126.08
146.59
156.63
151.17
132.47
107.23
83.24
66.35
58.74
58.29
60.83
62.07
61.65
59.82
56.22
50.72
43.78
36.18
27.62
18.13
8.98
2.00
0.32
3.37
8.97
14.36
16.74
11.93
-2.91
-27.48
-58.09
-90.03
-119.67
-144.89
-165.83
-173.30
-164.17
-143.40
-119.42
-96.45
-73.89
-50.24
-25.58
-1.79
18.62
32.24
37.88
37.19
33.92
31.37
31.00
32.81
36.12
39.95
42.28
42.01
39.66
37.18
36.53
38.61
43.34
50.00
57.59
64.44
69.22
71.13
69.76
65.05
57.72
49.79
44.66
45.64
53.49
65.66
76.28
79.76
73.69
59.64
41.63
23.83
8.69
-3.68
-13.97
-23.44
-30.28
-30.07
-19.06
2.14
28.42
52.30
66.74
67.16
49.15
14.72
-29.20
-73.17
-109.64
-134.12
-145.71
-146.86
-142.36
-141.31
-149.51
-167.06
-190.08
-214.13
-234.87
-247.94
-249.17
-213.10
-135.90
-40.67
42.04
96.17
121.16
124.99
118.08
108.93
101.95
94.52
82.69
65.71
45.71
25.49
7.86
-4.80
-11.59
-13.38
-14.42
-15.31
-16.81
-19.07
-21.82
-23.79
-22.93
-17.62
-7.02
8.93
30.53
57.87
90.80
128.57
169.12
208.42
240.40
246.01
214.88
155.62
88.84
32.64
-3.35
-17.17
-12.62
1.25
15.96
26.07
28.78
23.54
12.49
0.55
-6.42
-2.55
15.13
45.47
83.90
121.71
147.73
152.48
132.59
92.11
40.54
-11.52
-56.08
-89.30
-112.28
-129.07
-143.17
-154.67
-159.98
-154.00
-132.99
-96.64
-48.62
3.65
50.38
82.20
93.33
83.11
56.02
19.74
-17.49
-49.34
-72.40
-86.03
-91.42
-90.28
-84.50
-76.13
-67.73
-61.87
-60.84
-64.59
-70.26
-73.36
-69.75
-57.35
-36.99
-12.24
11.97
30.19
39.93
42.51
41.63
40.98
42.59
46.14
48.96
46.85
34.23
8.61
-27.95
-70.36
-113.00
-151.08
-181.08
-200.89
-209.63
-209.51
-202.12
-188.08
-168.89
-147.49
-126.44
-105.48
-81.51
-37.77
25.98
93.32
145.58
174.22
180.40
170.55
153.06
134.85
119.36
104.74
88.52
70.23
50.91
31.48
12.85
-3.23
-14.70
-19.92
-19.19
-12.63
0.66
20.69
44.68
64.98
74.19
68.25
48.10
19.20
-10.51
-33.12
-44.35
-45.29
-40.57
-34.85
-30.62
-27.23
-21.11
-8.77
12.23
41.66
75.78
108.55
134.01
148.06
145.64
131.13
110.20
87.63
65.83
44.99
24.80
6.18
-8.59
-17.05
-17.38
-11.26
-2.49
4.73
7.20
4.16
-2.70
-10.36
-16.03
-17.77
-16.68
-15.50
-17.25
-23.65
-34.37
-46.91
-57.53
-62.76
-60.07
-49.10
-30.89
-7.60
17.47
39.63
53.93
56.50
46.09
25.51
0.34
-22.75
-38.83
-46.71
-48.55
-48.01
-47.57
-47.10
-44.34
-37.19
-25.41
-11.38
0.96
8.47
10.02
6.53
-0.08
-7.53
-13.98
-17.45
-16.07
-8.72
4.08
19.68
34.01
43.07
44.52
38.30
26.16
10.27
-7.60
-25.64
-41.73
-53.20
-57.67
-54.33
-44.76
-32.32
-20.77
-12.18
-6.08
-0.14
8.30
20.50
35.48
49.59
59.60
63.17
59.99
51.71
40.89
29.93
20.28
12.31
5.83
0.76
-2.74
-4.40
-4.16
-2.53
-0.46
1.01
1.22
0.11
-1.61
-3.03
-3.38
-2.39
-0.42
1.76
3.34
3.80
3.18
2.09
1.31
1.49
2.84
4.99
7.28
8.97
9.65
9.40
8.79
8.53
9.19
10.99
13.49
15.98
17.81
18.62
18.46
17.72
16.77
15.75
14.68
13.43
11.85
9.68
6.28
0.65
-8.20
-20.57
-35.49
-50.61
-62.95
-70.04
-70.91
-66.33
-58.23
-48.63
-38.91
-29.60
-20.77
-12.51
-5.24
0.48
4.22
6.06
6.50
6.14
5.51
4.87
4.17
3.28
2.08
0.67
-0.53
-0.87
0.17
2.74
6.56
10.83
14.57
17.04
18.05
18.04
17.84
18.16
19.14
20.25
20.07
16.78
9.06
-3.24
-18.76
-35.06
-49.63
-60.75
-67.77
-71.33
-72.68
-72.84
-72.08
-69.93
-65.60
-58.44
-48.19
-34.72
-18.58
-0.86
16.96
33.47
47.72
59.62
70.19
77.98
83.37
86.99
89.33
90.55
90.50
88.91
85.44
79.76
71.51
60.93
48.40
34.67
20.84
8.28
-1.89
-9.14
-13.76
-16.85
-19.44
-22.49
-26.37
-30.64
-34.29
-36.21
-35.74
-33.07
-29.34
-26.01
-24.67
-26.35
-31.05
-37.73
-44.59
-49.75
-51.79
-50.11
-44.75
-36.31
-25.55
-13.27
-0.15
13.23
26.31
38.61
49.68
59.26
67.13
73.15
77.06
78.63
77.83
74.70
69.31
61.59
51.37
38.55
23.37
6.38
-11.49
-29.02
-44.99
-58.53
-69.09
-76.35
-80.07
-80.13
-76.97
-71.34
-63.82
-54.59
-43.45
-30.05
-14.23
3.89
23.83
44.53
64.91
84.49
103.13
120.27
134.80
144.75
148.29
144.38
132.49
112.76
86.24
54.13
16.93
-25.17
-72.80
-124.47
-172.20
-206.46
-222.64
-222.27
-209.98
-190.62
-167.30
-142.99
-119.86
-99.20
-82.35
-70.35
-62.16
-54.46
-42.50
-20.95
13.13
58.82
111.52
163.69
207.14
236.62
250.84
244.31
223.70
196.58
168.38
142.01
118.41
97.48
80.05
67.19
59.14
55.73
53.76
48.86
37.29
17.09
-12.00
-47.51
-86.21
-124.35
-157.60
-183.41
-200.25
-207.30
-200.88
-184.23
-161.01
-134.93
-109.10
-85.16
-64.38
-47.33
-34.14
-24.46
-18.54
-15.58
-14.59
-14.57
-14.66
-14.80
-15.17
-15.58
-14.95
-12.13
-5.31
6.16
21.33
37.88
53.09
65.12
73.71
80.16
84.91
88.09
88.81
85.83
78.46
67.19
53.51
39.11
25.11
11.40
-2.42
-16.60
-30.68
-43.32
-52.88
-58.09
-58.76
-55.67
-50.44
-44.61
-39.13
-34.07
-28.98
-23.33
-16.83
-9.84
-2.81
3.55
8.80
12.95
16.47
20.17
24.86
31.08
38.76
47.55
56.43
64.29
70.34
74.60
77.90
81.81
88.25
96.45
106.45
117.56
128.47
137.45
142.85
143.31
138.05
126.99
110.65
90.53
68.39
46.02
25.08
6.78
-8.20
-19.71
-28.13
-34.23
-38.70
-42.39
-46.01
-49.88
-53.94
-57.89
-61.46
-64.72
-68.03
-71.68
-75.72
-79.79
-82.98
-84.31
-83.04
-79.00
-72.66
-64.98
-56.90
-49.18
-42.14
-35.65
-29.33
-22.86
-16.26
-9.85
-4.15
0.42
3.68
5.76
6.94
7.52
7.78
8.00
8.49
9.41
10.57
11.22
10.17
6.23
-1.16
-11.50
-23.19
-34.14
-42.42
-47.05
-48.09
-46.45
-43.41
-40.16
-37.54
-36.12
-36.28
-38.25
-41.94
-46.90
-52.35
-57.50
-61.89
-65.61
-69.02
-72.21
-74.42
-73.98
-68.81
-57.50
-40.18
-18.87
3.20
22.81
37.98
48.46
55.44
60.52
64.78
68.27
70.32
70.14
67.40
62.34
55.44
47.10
37.36
25.99
12.80
-2.03
-17.67
-32.74
-45.55
-54.49
-58.27
-56.13
-48.14
-35.27
-19.15
-1.86
14.51
27.98
36.78
39.99
37.61
30.27
18.79
4.09
-12.93
-31.33
-50.14
-68.69
-85.45
-98.32
-105.47
-106.29
-101.42
-92.50
-81.79
-71.69
-65.01
-62.79
-64.34
-68.32
-73.77
-80.10
-86.79
-93.22
-98.68
-103.24
-105.66
-103.68
-95.43
-80.23
-58.05
-28.78
7.79
57.00
113.44
164.38
198.98
214.45
214.06
203.54
188.39
172.61
158.21
144.51
131.14
118.93
109.07
101.92
97.72
96.44
97.71
100.51
102.15
100.18
93.16
80.67
63.08
42.30
20.92
1.52
-14.18
-25.86
-33.53
-37.30
-37.96
-38.63
-41.66
-49.73
-64.40
-85.07
-108.97
-131.40
-147.35
-151.07
-142.83
-124.93
-101.17
-75.48
-51.33
-31.43
-17.33
-9.30
-6.47
-7.44
-9.59
-10.90
-10.16
-7.60
-4.30
-1.50
-0.04
-0.20
-2.22
-5.25
-7.62
-6.48
1.50
18.59
44.24
74.50
102.81
122.63
130.73
128.36
120.12
111.15
104.06
97.81
88.98
74.52
53.99
30.07
6.80
-12.95
-28.95
-43.17
-57.96
-74.38
-91.07
-104.68
-111.22
-107.53
-92.53
-67.71
-36.69
-4.33
24.40
45.42
56.38
56.95
48.97
35.52
20.01
5.57
-5.47
-11.84
-13.36
-10.66
-4.92
2.89
11.99
21.83
32.06
42.34
52.36
61.76
70.21
75.10
74.05
64.65
45.19
15.60
-21.73
-62.01
-99.05
-126.96
-141.77
-142.01
-129.01
-105.97
-76.87
-45.60
-15.50
10.86
31.71
46.38
55.43
60.17
62.05
62.20
61.08
58.44
53.69
46.30
36.58
25.64
14.79
5.02
-3.04
-9.17
-13.52
-16.52
-18.85
-20.55
-21.35
-21.12
-20.27
-19.42
-19.26
-20.60
-24.33
-31.43
-41.56
-53.67
-66.55
-79.58
-91.94
-102.23
-108.51
-108.86
-101.85
-85.71
-59.61
-24.61
15.90
58.62
101.88
146.07
192.83
235.41
264.76
274.67
265.24
239.72
203.02
160.74
118.63
81.42
51.91
31.77
20.85
16.62
12.98
3.48
-16.84
-49.96
-94.09
-143.86
-190.85
-226.76
-239.78
-229.74
-203.12
-168.48
-132.77
-100.01
-71.89
-48.37
-29.09
-14.02
-4.35
0.08
0.75
-0.26
-1.20
-1.28
-0.23
1.81
4.52
6.52
7.24
6.77
5.46
3.76
1.94
0.39
-0.50
-0.17
1.25
4.02
8.38
14.08
20.17
24.95
26.95
26.12
24.66
26.15
34.50
51.59
75.78
102.06
123.31
132.85
126.50
103.48
66.43
20.80
-26.30
-67.53
-95.99
-108.49
-105.79
-91.74
-71.75
-50.77
-31.87
-16.12
-3.55
6.22
13.05
16.85
18.04
17.22
15.01
11.82
7.65
2.43
-3.40
-8.91
-12.69
-13.50
-11.05
-6.16
-0.40
4.51
7.57
9.03
9.84
11.05
13.22
16.14
19.20
21.76
22.95
22.30
20.01
16.86
13.90
12.25
12.69
15.64
20.90
26.62
30.99
33.25
33.87
33.85
34.22
35.30
36.92
38.55
38.07
34.23
27.62
19.90
11.98
4.92
-1.54
-8.21
-15.97
-27.36
-43.70
-63.73
-84.91
-105.43
-125.19
-145.57
-168.21
-180.77
-175.66
-154.25
-123.08
-87.18
-49.05
-10.94
23.93
52.38
72.98
84.46
89.99
95.46
106.80
127.18
155.80
188.63
220.55
247.54
266.68
272.06
263.07
242.36
213.96
182.46
152.47
127.67
109.58
95.45
79.97
58.36
27.81
-11.59
-56.94
-103.84
-148.34
-188.19
-223.45
-254.96
-282.53
-305.66
-324.43
-340.11
-354.77
-370.06
-385.54
-398.20
-402.62
-392.28
-362.22
-311.01
-241.55
-160.44
-76.66
0.35
62.53
104.86
126.65
131.57
126.69
120.59
120.62
130.33
148.35
169.00
184.65
189.01
179.60
158.50
131.19
104.14
82.26
67.58
59.31
54.96
51.89
48.25
43.19
36.50
28.32
19.16
10.13
2.92
-0.75
-0.05
4.32
10.07
14.22
14.43
9.96
2.12
-6.63
-13.84
-18.04
-19.09
-17.89
-15.80
-14.13
-13.88
-15.34
-18.24
-21.98
-25.65
-28.11
-28.24
-25.43
-19.93
-12.86
-5.16
2.35
8.96
14.03
17.28
18.86
19.06
18.16
16.26
14.43
13.80
14.85
17.12
19.75
22.01
23.39
23.50
22.14
20.64
20.54
22.68
27.01
33.70
44.00
60.06
83.90
107.75
122.71
123.78
112.53
93.22
69.83
45.83
23.90
5.43
-9.74
-21.34
-29.09
-33.05
-33.90
-32.63
-30.15
-27.42
-25.40
-24.95
-25.48
-25.89
-25.38
-23.83
-21.61
-19.06
-16.52
-14.38
-13.06
-12.23
-11.36
-10.18
-8.78
-7.37
-5.97
-4.45
-2.74
-0.95
0.93
2.80
4.43
5.53
5.92
5.71
5.11
4.30
3.38
2.59
2.24
2.41
2.69
1.94
-1.27
-7.96
-18.09
-29.99
-40.89
-47.94
-49.55
-45.97
-39.06
-31.14
-23.93
-17.91
-12.62
-7.50
-2.56
1.48
3.85
4.35
3.71
3.30
4.47
7.75
12.54
17.40
20.73
21.54
19.83
16.44
12.66
9.61
7.81
7.02
6.56
5.69
3.94
1.31
-2.06
-5.84
-9.74
-13.54
-17.07
-20.11
-22.55
-24.56
-26.86
-30.80
-37.53
-47.24
-58.65
-69.25
-76.05
-76.84
-70.91
-58.10
-40.52
-21.23
-3.31
10.82
19.56
22.16
18.62
9.84
-2.47
-16.25
-29.43
-40.47
-48.76
-54.58
-58.57
-61.32
-63.11
-63.81
-63.05
-59.88
-52.83
-40.07
-20.04
7.90
42.85
82.31
122.72
160.07
191.01
213.31
225.91
228.71
222.21
207.40
185.73
159.15
129.95
100.54
73.11
49.24
29.62
14.22
2.54
-6.03
-11.96
-15.61
-17.38
-17.87
-17.87
-18.22
-19.44
-21.58
-24.32
-27.15
-29.74
-32.01
-34.14
-36.34
-38.70
-41.15
-43.56
-45.89
-48.25
-50.88
-54.02
-57.76
-61.99
-66.43
-70.71
-74.38
-77.01
-78.13
-77.29
-74.11
-68.48
-60.71
-51.52
-41.91
-32.88
-25.09
-18.76
-13.63
-9.14
-4.63
0.37
6.08
12.30
18.54
24.15
28.45
31.01
31.70
30.69
28.31
24.97
21.08
16.98
13.06
9.71
7.29
5.97
5.73
6.29
7.18
7.92
8.08
7.39
5.79
3.38
0.31
-3.28
-7.27
-11.54
-15.86
-19.91
-23.28
-25.54
-26.35
-25.63
-23.49
-20.14
-15.79
-10.55
-4.54
2.04
8.83
15.30
20.80
24.71
26.67
26.64
24.96
22.20
19.08
16.43
14.95
15.06
16.82
20.18
25.10
31.50
39.18
47.68
56.25
63.77
68.82
70.17
67.57
61.98
55.23
49.19
45.19
43.68
44.02
44.56
43.40
39.57
33.55
26.85
21.25
18.20
18.56
22.15
27.27
30.96
29.90
21.22
2.79
-26.36
-65.45
-109.99
-150.21
-175.29
-180.29
-168.34
-146.79
-122.36
-98.95
-77.80
-58.71
-41.57
-27.54
-18.46
-15.27
-17.02
-21.28
-25.23
-26.64
-24.55
-19.50
-13.55
-9.30
-8.46
-11.29
-16.77
-23.09
-28.02
-29.15
-24.49
-13.33
3.28
23.01
42.87
60.04
72.72
80.49
84.13
84.96
84.66
82.98
79.54
74.09
66.64
57.60
47.89
38.73
31.26
25.67
22.01
19.39
16.65
13.13
9.10
5.33
2.55
0.81
-0.59
-2.77
-6.50
-11.90
-18.47
-25.48
-32.19
-37.86
-42.03
-44.10
-43.99
-42.19
-39.59
-37.02
-34.81
-32.61
-29.70
-25.51
-20.07
-13.98
-8.06
-2.91
1.21
4.35
6.54
7.73
7.88
7.08
5.76
4.44
3.49
2.90
2.37
1.48
-0.02
-2.06
-4.35
-6.45
-8.05
-9.00
-9.27
-8.76
-7.31
-4.79
-1.18
3.35
8.46
13.65
18.40
22.32
25.22
27.07
28.00
28.17
27.22
25.11
21.98
18.12
14.05
10.42
7.79
6.60
6.97
8.75
11.58
14.86
17.85
19.88
20.49
19.54
17.25
14.06
10.37
6.43
2.29
-2.07
-6.57
-10.86
-14.52
-17.25
-19.05
-20.22
-21.19
-22.29
-23.71
-25.51
-27.68
-30.16
-32.80
-35.33
-37.43
-38.79
-39.22
-38.73
-37.48
-35.62
-33.27
-30.53
-27.52
-24.45
-21.59
-19.12
-17.10
-15.40
-13.87
-12.42
-11.22
-10.55
-10.73
-11.84
-13.59
-15.24
-15.85
-14.53
-10.75
-4.55
3.55
12.73
22.12
30.99
38.78
45.08
49.61
52.14
52.60
51.19
48.38
44.84
41.23
37.97
35.09
32.27
29.07
25.21
20.74
16.01
11.51
7.62
4.47
1.96
-0.02
-1.54
-2.54
-2.96
-2.91
-2.70
-2.73
-3.33
-4.65
-6.66
-9.17
-11.96
-14.84
-17.62
-20.16
-22.38
-24.33
-26.14
-28.03
-30.18
-32.54
-34.87
-36.73
-37.61
-37.12
-35.03
-31.45
-26.72
-21.37
-15.95
-10.82
-6.14
-1.88
1.92
5.14
7.53
8.89
9.34
9.37
9.76
11.28
14.32
18.68
23.64
28.39
32.28
35.10
37.05
38.45
39.52
40.24
40.44
39.99
38.99
37.68
36.27
34.81
33.17
31.09
28.34
24.86
20.77
16.33
11.69
6.92
2.00
-2.98
-7.76
-12.20
-16.18
-19.61
-22.51
-25.01
-27.34
-29.65
-31.86
-33.60
-34.62
-34.61
-33.17
-29.89
-24.74
-18.23
-11.41
-5.55
-1.82
-1.34
-4.61
-11.27
-20.25
-30.28
-40.32
-49.48
-56.90
-59.26
-54.09
-41.55
-24.77
-7.75
6.60
16.90
22.89
24.98
23.89
20.23
14.85
9.10
4.61
2.57
3.31
6.22
10.32
14.75
19.09
23.06
26.57
29.56
31.85
33.19
33.42
32.51
30.45
27.10
22.29
16.04
8.68
0.76
-7.16
-14.58
-21.31
-27.31
-32.58
-36.42
-38.08
-37.14
-33.65
-28.18
-21.66
-15.25
-10.06
-6.78
-5.18
-4.36
-2.84
1.14
9.23
22.57
41.34
62.69
81.85
94.84
100.43
99.63
93.69
83.02
67.59
47.90
25.82
4.54
-11.86
-20.25
-19.82
-12.30
-0.97
10.77
20.25
25.78
26.01
20.46
8.30
-10.88
-36.37
-65.71
-95.00
-119.86
-134.36
-136.91
-128.76
-112.98
-93.24
-72.68
-53.57
-37.34
-24.90
-16.87
-13.71
-14.76
-18.38
-22.46
-25.06
-25.09
-22.71
-19.07
-16.00
-15.68
-19.45
-27.30
-37.34
-45.56
-46.99
-37.65
-16.85
11.74
40.93
63.24
74.15
73.77
66.40
57.79
52.24
51.10
53.32
57.06
61.17
65.87
70.72
74.88
77.00
76.10
72.45
67.38
62.15
56.78
49.54
38.06
21.42
1.47
-17.28
-29.84
-33.23
-28.14
-18.56
-9.79
-5.73
-7.13
-12.22
-17.14
-18.97
-17.08
-12.88
-8.48
-5.34
-3.55
-2.12
0.16
3.64
7.38
9.58
8.57
3.78
-3.79
-11.96
-18.22
-20.92
-19.72
-15.73
-10.73
-6.31
-3.46
-2.50
-3.32
-5.62
-9.04
-13.09
-17.22
-20.99
-24.01
-26.12
-27.42
-28.03
-27.94
-26.96
-24.79
-21.27
-16.62
-11.31
-6.03
-1.39
2.32
5.06
7.01
8.36
9.18
9.34
8.75
7.41
5.46
3.20
0.94
-1.04
-2.61
-3.68
-4.12
-3.77
-2.45
-0.17
2.88
6.31
9.65
12.45
14.39
15.19
14.72
12.97
10.05
6.33
2.24
-1.68
-5.05
-7.74
-9.82
-11.41
-12.62
-13.49
-13.99
-14.22
-14.26
-14.30
-14.52
-15.02
-15.86
-17.03
-18.46
-20.02
-21.81
-23.60
-25.09
-26.06
-26.58
-26.99
-27.73
-29.11
-31.07
-33.13
-34.54
-34.77
-33.67
-31.60
-29.14
-26.90
-25.30
-24.47
-24.27
-24.30
-24.04
-22.86
-20.18
-15.70
-9.58
-2.52
4.48
10.53
15.21
18.66
21.41
24.04
26.83
29.69
32.31
34.37
35.74
36.49
36.75
36.62
36.07
35.01
33.44
31.46
29.29
27.07
24.79
22.27
19.23
15.46
11.03
6.36
2.15
-0.77
-1.76
-0.63
2.26
6.00
9.46
11.64
12.09
11.05
9.45
8.44
8.94
11.18
14.60
18.09
20.48
21.08
19.96
17.96
16.25
15.90
17.42
20.68
24.99
29.46
33.30
36.11
38.03
39.60
41.67
44.95
49.55
54.41
57.13
54.42
43.34
22.82
-5.30
-36.31
-64.04
-82.96
-90.15
-86.20
-74.48
-59.50
-45.02
-32.86
-22.93
-14.08
-5.25
3.79
12.32
19.21
23.51
24.95
23.99
21.46
18.04
14.04
9.46
4.26
-1.15
-6.02
-9.40
-10.70
-10.00
-8.19
-6.60
-6.49
-8.54
-12.71
-18.39
-24.74
-31.03
-36.76
-41.65
-45.40
-47.52
-47.39
-44.45
-38.51
-29.93
-19.64
-8.86
1.25
9.84
16.52
21.22
24.05
25.09
24.47
22.40
19.33
15.95
13.01
11.05
10.18
10.00
9.79
8.82
6.67
3.37
-0.67
-4.93
-9.03
-12.82
-16.29
-19.34
-21.68
-22.76
-22.06
-19.34
-14.79
-8.99
-2.73
3.27
8.55
12.90
16.33
18.92
20.76
21.93
22.50
22.57
22.21
21.47
20.32
18.75
16.70
14.11
11.00
7.39
3.41
-0.73
-4.70
-8.07
-10.42
-11.31
-10.52
-8.00
-4.02
0.92
6.13
10.99
15.04
18.13
20.38
22.02
23.22
24.00
24.25
23.90
23.03
21.91
20.88
20.23
20.00
20.11
20.38
20.69
21.04
21.54
22.37
23.65
25.44
27.63
29.96
32.13
33.87
35.05
35.70
35.95
35.93
35.65
34.97
33.60
31.39
28.47
25.34
22.70
21.17
21.14
22.53
24.86
27.17
28.59
28.55
27.14
24.98
22.96
22.00
22.79
25.71
30.69
37.58
46.23
56.51
68.20
80.93
94.52
109.11
125.12
142.25
159.34
174.09
182.98
181.89
167.14
136.87
92.09
36.51
-25.38
-88.02
-145.22
-190.69
-219.01
-227.23
-215.92
-189.53
-156.02
-126.48
-110.14
-111.14
-127.54
-153.32
-181.63
-207.14
-227.14
-241.19
-252.08
-261.87
-270.49
-276.05
-276.61
-271.42
-260.54
-243.99
-208.58
-148.90
-71.06
8.95
75.72
122.05
148.77
160.87
163.70
160.75
151.41
134.97
112.86
89.35
69.60
56.97
51.91
52.41
55.35
56.49
53.60
47.29
40.19
34.93
32.56
32.49
33.38
34.03
32.88
29.44
24.47
19.51
15.92
14.08
13.52
13.50
13.40
12.54
10.78
8.53
6.51
5.16
4.43
3.88
3.12
2.04
0.71
-0.52
-1.26
-1.34
-0.92
-0.59
-0.95
-2.25
-4.20
-6.09
-7.07
-6.71
-5.22
-3.35
-2.17
-2.53
-4.52
-7.42
-9.91
-10.63
-8.91
-5.09
-0.20
4.51
8.06
10.00
10.09
8.09
3.93
-1.80
-7.18
-9.17
-5.04
5.92
21.27
36.00
44.87
45.01
37.33
25.79
15.02
7.70
3.56
0.42
-3.62
-8.35
-11.45
-10.16
-3.61
6.15
14.86
18.12
13.61
2.23
-12.51
-26.15
-35.31
-38.80
-37.59
-33.67
-28.98
-24.62
-20.79
-17.17
-13.44
-9.42
-5.12
-0.77
3.49
7.45
11.08
14.52
18.04
21.60
25.01
27.82
29.17
29.52
29.94
31.72
35.68
41.33
46.82
50.08
49.58
45.25
38.65
32.24
28.11
26.72
26.57
24.08
16.18
1.55
-18.45
-40.12
-59.06
-71.95
-77.50
-74.94
-66.62
-54.35
-39.57
-23.79
-9.15
1.87
7.51
7.71
4.40
0.25
-2.12
-1.67
1.09
4.71
7.90
10.27
12.27
14.94
18.88
24.61
31.70
38.91
44.41
46.89
46.10
43.00
39.36
36.70
35.90
36.70
38.18
39.01
38.57
37.22
35.91
35.53
36.49
38.82
42.46
47.66
54.25
62.00
70.41
78.51
85.01
88.97
90.16
89.39
88.07
86.63
84.99
82.52
78.38
71.79
62.26
49.13
30.62
10.67
-9.12
-27.07
-41.48
-50.77
-54.03
-51.14
-43.03
-31.66
-19.56
-10.45
-7.61
-13.08
-26.69
-45.47
-63.66
-74.34
-71.56
-52.33
-18.92
22.23
61.90
90.94
103.03
96.93
76.95
51.59
31.09
23.25
31.16
51.89
77.65
98.63
106.60
97.27
70.80
30.49
-19.86
-77.07
-138.93
-203.32
-267.57
-328.27
-382.34
-427.94
-464.70
-493.09
-512.98
-523.13
-521.57
-506.90
-479.32
-440.96
-395.13
-345.29
-294.20
-243.84
-195.55
-150.43
-108.92
-70.38
-33.08
4.97
44.80
85.32
122.96
152.60
169.28
170.03
155.09
128.02
94.54
60.84
31.69
9.40
-6.44
-17.77
-26.64
-33.65
-37.51
-35.57
-25.19
-5.24
23.35
57.67
93.91
128.33
158.18
181.60
197.44
205.04
204.28
195.95
181.95
165.11
148.52
134.83
125.48
120.35
118.05
116.54
113.99
109.62
103.87
98.18
94.07
92.31
92.41
92.80
91.38
86.47
77.47
65.08
51.13
37.87
27.29
20.53
17.51
17.01
17.01
15.50
10.99
2.99
-8.07
-21.09
-34.59
-46.93
-56.44
-61.70
-61.74
-56.60
-47.39
-36.18
-25.21
-16.20
-9.78
-5.53
-2.48
0.15
2.52
4.14
4.22
2.28
-1.70
-7.42
-14.45
-22.52
-31.36
-40.39
-48.46
-53.99
-55.39
-51.65
-42.90
-30.33
-15.82
-1.24
12.00
23.17
32.15
39.02
43.90
46.81
47.73
46.78
44.35
41.12
37.97
35.67
34.78
35.35
36.95
38.83
40.18
40.51
39.84
38.71
37.97
38.34
40.12
42.89
45.75
47.56
47.40
44.93
40.33
34.27
27.51
20.71
14.24
8.24
2.84
-1.82
-5.63
-8.65
-11.20
-13.77
-16.79
-20.41
-24.33
-28.18
-31.69
-35.01
-38.65
-43.02
-48.11
-53.13
-56.82
-57.87
-55.60
-50.21
-42.66
-34.20
-25.97
-18.86
-13.44
-10.11
-9.00
-9.85
-11.76
-13.36
-13.25
-10.50
-5.22
1.52
8.15
13.28
16.25
17.22
16.79
15.50
13.53
10.65
6.58
1.37
-4.35
-9.46
-12.71
-13.27
-11.06
-6.88
-2.20
1.39
2.56
0.82
-3.24
-8.16
-12.07
-13.57
-12.27
-9.02
-5.42
-3.03
-2.75
-4.43
-7.18
-9.72
-10.82
-9.37
-4.46
4.40
16.96
31.84
46.55
58.12
64.26
64.38
59.95
53.99
49.85
49.91
54.75
63.07
72.40
80.25
85.03
86.41
85.01
81.79
77.48
72.28
66.20
59.45
52.70
46.92
42.78
40.21
38.33
35.82
31.71
25.89
19.33
13.65
10.25
9.68
11.40
14.02
15.89
15.95
14.13
11.33
8.92
7.89
8.41
9.74
10.61
9.97
7.54
3.85
-0.07
-3.27
-5.25
-5.97
-5.61
-4.55
-3.31
-2.68
-3.68
-7.18
-13.36
-21.46
-29.72
-36.04
-38.75
-37.16
-31.73
-23.74
-14.78
-6.28
0.58
5.04
6.83
6.09
3.46
-0.16
-3.83
-6.87
-8.82
-9.54
-9.00
-7.15
-4.04
0.27
5.36
10.66
15.42
19.10
21.37
22.23
21.83
20.38
18.16
15.38
12.27
9.06
6.04
3.41
1.27
-0.39
-1.73
-2.88
-3.85
-4.71
-5.46
-6.20
-7.13
-8.55
-10.59
-13.28
-16.42
-19.76
-23.10
-26.34
-29.47
-32.48
-35.40
-38.10
-40.41
-42.00
-42.45
-41.28
-38.12
-32.79
-25.52
-16.94
-7.97
0.34
7.09
11.72
14.13
14.53
13.46
11.55
9.37
7.26
5.36
3.70
2.29
1.13
0.21
-0.49
-1.06
-1.43
-1.52
-1.26
-0.72
-0.18
-0.16
-1.07
-2.98
-5.40
-7.35
-7.59
-5.16
0.25
8.15
17.33
26.14
32.93
36.44
35.99
31.73
24.46
15.36
5.72
-3.43
-11.54
-18.46
-24.39
-29.71
-34.77
-39.89
-45.19
-50.64
-56.05
-61.10
-65.26
-67.81
-67.83
-64.42
-56.95
-45.46
-30.75
-14.26
2.33
17.50
30.17
39.71
45.80
48.31
47.27
43.19
37.18
30.86
25.91
23.57
24.19
27.33
32.12
37.69
43.41
48.78
53.16
55.73
55.69
52.69
47.20
40.50
34.30
30.06
28.33
28.49
29.04
28.30
25.17
19.65
12.91
6.54
1.91
-0.59
-1.65
-2.57
-4.58
-8.30
-13.58
-19.77
-26.31
-32.86
-39.26
-45.26
-50.22
-53.43
-54.43
-53.52
-51.70
-50.28
-50.08
-50.79
-51.08
-49.12
-43.60
-34.40
-22.73
-10.51
0.32
8.57
13.92
16.53
16.74
14.73
10.83
5.86
1.26
-1.14
0.05
5.19
13.05
21.28
27.22
28.90
25.84
19.09
10.88
3.63
-0.77
-1.66
0.32
3.60
6.30
7.03
5.32
1.75
-2.62
-6.77
-10.25
-13.17
-15.94
-18.74
-21.16
-22.37
-21.55
-18.54
-14.13
-9.88
-7.38
-7.50
-10.00
-13.73
-17.33
-19.96
-21.69
-23.27
-25.39
-28.16
-30.82
-32.15
-31.17
-27.61
-22.06
-15.72
-9.64
-4.35
0.20
4.38
8.43
12.10
14.79
15.90
15.16
12.99
10.28
8.05
7.06
7.51
9.07
11.06
12.89
14.11
14.65
14.68
14.35
13.82
13.18
12.53
11.98
11.58
11.11
10.07
7.81
3.96
-1.21
-6.66
-10.94
-12.82
-11.91
-8.96
-5.44
-3.04
-2.82
-4.89
-8.69
-13.33
-18.22
-23.07
-27.84
-32.28
-35.89
-37.91
-37.62
-34.86
-30.15
-24.81
-20.44
-18.31
-18.75
-20.86
-22.76
-22.21
-17.52
-8.24
4.70
19.27
33.01
43.70
49.93
51.14
47.61
40.25
30.32
19.34
8.89
0.35
-5.30
-7.57
-6.53
-2.68
2.97
9.22
14.69
18.20
18.87
16.55
11.75
5.61
-0.37
-4.91
-7.15
-7.01
-5.09
-2.60
-0.77
-0.54
-2.28
-5.65
-9.73
-13.45
-15.95
-16.84
-16.25
-14.50
-11.98
-8.93
-5.55
-2.17
0.58
1.77
0.60
-3.15
-8.91
-15.35
-20.99
-24.75
-26.46
-26.80
-26.84
-27.43
-28.73
-30.14
-30.54
-28.82
-24.32
-17.14
-8.09
1.48
10.22
17.08
21.68
24.22
25.39
25.82
25.83
25.36
24.03
21.62
18.23
14.41
10.97
8.71
8.09
9.11
11.36
14.12
16.66
18.42
19.19
19.03
18.14
16.65
14.54
11.72
8.23
4.42
0.84
-2.04
-4.07
-5.47
-6.74
-8.20
-9.79
-11.13
-11.83
-11.80
-11.54
-11.76
-13.10
-15.69
-19.11
-22.71
-26.00
-28.96
-31.88
-35.11
-38.68
-41.98
-43.86
-43.04
-38.61
-30.61
-20.08
-8.74
1.53
9.34
14.17
16.34
16.77
16.47
16.12
15.99
15.91
15.57
14.71
13.36
11.76
10.39
9.65
9.85
11.10
13.28
16.03
18.89
21.39
23.03
23.47
22.56
20.35
17.16
13.48
9.75
6.31
3.29
0.57
-2.01
-4.48
-6.70
-8.31
-9.09
-9.13
-8.91
-9.09
-10.20
-12.28
-14.94
-17.56
-19.69
-21.26
-22.48
-23.64
-24.89
-26.31
-27.90
-29.76
-31.95
-34.23
-35.92
-35.98
-33.41
-27.69
-19.21
-9.06
1.30
10.54
17.86
22.91
25.78
26.69
26.02
24.19
21.75
19.24
17.16
15.82
15.24
15.29
15.70
16.36
17.16
18.03
18.78
19.09
18.63
17.23
15.11
12.71
10.48
8.57
6.56
3.77
-0.42
-6.17
-13.06
-20.19
-26.62
-31.76
-35.53
-38.23
-40.30
-42.09
-43.77
-45.46
-47.20
-49.01
-50.90
-52.70
-54.20
-55.00
-54.57
-52.25
-47.55
-40.43
-31.54
-22.15
-13.69
-7.14
-2.46
1.46
6.18
12.93
21.79
31.65
40.83
47.96
52.58
55.21
56.74
57.78
58.26
57.56
55.08
50.62
44.61
37.93
31.57
26.27
22.39
19.88
18.37
17.43
16.67
15.91
15.25
14.95
15.16
15.86
16.79
17.78
19.00
21.00
24.32
28.95
33.95
37.43
37.42
32.78
23.93
12.76
1.83
-6.89
-12.78
-16.80
-20.76
-26.14
-33.28
-41.08
-47.54
-50.89
-50.35
-46.54
-41.30
-36.82
-34.80
-35.90
-39.71
-44.84
-49.53
-51.99
-50.83
-45.27
-35.30
-21.77
-6.42
8.44
20.61
28.58
32.12
32.25
30.69
29.09
28.20
27.79
26.99
25.20
22.56
19.95
18.29
17.85
17.99
17.56
15.77
13.00
10.73
10.73
13.90
19.49
25.17
28.18
26.65
20.62
12.05
3.76
-1.89
-4.14
-3.89
-3.05
-3.26
-5.12
-7.98
-10.51
-11.81
-11.84
-11.51
-11.98
-13.89
-16.95
-20.17
-22.54
-23.52
-23.46
-23.19
-23.50
-24.62
-26.05
-26.74
-25.61
-21.93
-15.56
-6.97
3.05
13.53
23.48
32.00
38.16
41.14
40.29
35.51
27.38
17.29
7.19
-1.08
-6.17
-7.67
-6.00
-2.10
3.22
9.31
15.72
21.88
26.88
29.70
29.63
26.65
21.60
15.91
10.90
7.27
4.78
2.53
-0.52
-4.98
-10.82
-17.43
-23.89
-29.38
-33.28
-35.29
-35.36
-33.74
-30.95
-27.80
-25.27
-24.29
-25.44
-28.65
-33.15
-37.80
-41.52
-43.69
-44.43
-44.31
-44.10
-44.28
-44.78
-45.04
-44.29
-41.78
-37.12
-30.36
-22.08
-13.18
-4.82
2.04
6.86
9.66
11.07
12.03
13.26
14.96
16.87
18.53
19.69
20.65
22.07
24.55
28.21
32.52
36.42
38.86
39.20
37.38
33.88
29.35
24.43
19.51
14.79
10.46
6.76
4.04
2.71
3.16
5.41
9.04
13.06
16.22
17.49
16.56
13.87
10.23
6.33
2.14
-2.88
-9.22
-16.72
-24.22
-29.92
-32.22
-30.45
-25.24
-18.29
-11.48
-6.04
-2.21
0.86
4.58
10.30
18.85
30.09
42.89
55.25
64.83
69.50
67.98
60.29
47.76
32.77
18.02
5.75
-2.73
-7.34
-9.08
-9.48
-10.09
-11.95
-15.15
-19.03
-22.39
-24.03
-23.16
-19.64
-13.89
-6.81
0.53
7.13
12.10
14.81
15.00
12.74
8.65
3.82
-0.49
-3.25
-3.99
-3.13
-1.77
-1.10
-1.87
-4.00
-6.49
-8.17
-8.28
-7.02
-5.53
-5.32
-7.44
-11.89
-17.56
-22.79
-26.34
-28.03
-28.69
-29.69
-32.00
-35.55
-39.21
-41.38
-40.66
-36.58
-29.52
-20.29
-9.79
1.24
12.20
22.26
30.36
35.51
37.17
35.81
32.82
30.06
29.03
30.27
33.12
36.23
38.28
38.64
37.54
35.71
33.73
31.61
28.98
25.27
20.51
15.42
11.11
8.49
7.63
7.65
7.13
4.99
0.97
-4.04
-8.39
-10.55
-9.89
-7.09
-3.89
-2.36
-3.93
-8.73
-15.56
-22.31
-26.91
-28.12
-26.05
-22.09
-18.30
-16.64
-18.11
-22.33
-27.73
-32.18
-33.83
-31.88
-26.65
-19.35
-11.34
-3.66
3.19
9.02
13.56
16.43
17.33
16.36
14.27
12.36
11.87
13.48
17.04
21.54
25.77
28.86
30.60
31.42
32.05
33.08
34.74
36.84
38.95
40.52
41.07
40.23
37.76
33.69
28.39
22.43
16.51
11.04
6.00
0.87
-5.35
-13.76
-25.10
-39.33
-55.36
-71.30
-84.96
-94.58
-99.39
-99.88
-97.37
-93.33
-88.66
-83.34
-76.89
-69.08
-60.39
-52.08
-45.50
-41.35
-39.12
-37.55
-35.22
-31.20
-25.40
-18.28
-10.42
-2.26
5.81
13.21
19.05
22.46
23.19
21.90
19.97
18.89
19.57
22.10
25.96
30.62
36.08
42.74
51.13
61.28
72.51
83.53
92.87
99.25
101.89
100.57
95.47
87.10
76.33
64.24
52.10
41.06
31.81
24.28
17.71
10.91
2.76
-7.21
-18.59
-30.12
-40.18
-47.22
-50.40
-49.66
-45.76
-40.05
-34.07
-29.28
-26.71
-26.86
-29.59
-34.33
-40.11
-45.79
-50.12
-51.98
-50.53
-45.48
-37.15
-26.49
-14.87
-3.73
5.69
12.53
16.35
17.18
15.30
11.44
6.49
1.49
-2.60
-5.08
-5.67
-4.42
-1.80
1.50
4.76
7.29
8.65
8.79
8.03
6.99
6.46
7.04
8.94
11.89
15.10
17.69
18.97
18.80
17.57
15.99
14.68
13.77
13.04
12.04
10.47
8.44
6.29
4.42
2.94
1.62
0.06
-2.00
-4.48
-7.10
-9.48
-11.51
-13.32
-15.12
-16.98
-18.60
-19.38
-18.67
-16.06
-11.48
-5.47
1.05
7.06
11.69
14.51
15.66
15.66
15.11
14.48
13.77
12.62
10.58
7.33
2.96
-2.03
-6.85
-10.75
-13.14
-13.71
-12.47
-9.66
-5.83
-1.68
1.99
4.59
5.79
5.68
4.68
3.36
2.41
2.27
3.10
4.61
6.18
7.03
6.46
4.20
0.57
-3.56
-7.25
-9.93
-11.71
-13.25
-15.34
-18.42
-22.41
-26.75
-30.71
-33.79
-35.80
-36.74
-36.64
-35.44
-32.99
-29.26
-24.47
-18.98
-13.20
-7.35
-1.40
4.75
11.09
17.27
22.64
26.43
28.15
27.80
25.96
23.56
21.54
20.66
21.25
23.29
26.44
30.22
34.04
37.33
39.51
40.15
39.04
36.29
32.46
28.31
24.75
22.38
21.37
21.24
21.15
20.08
17.21
12.33
5.80
-1.39
-7.96
-12.71
-14.95
-14.71
-12.82
-10.59
-9.23
-9.48
-11.29
-14.06
-17.07
-19.94
-22.83
-26.26
-30.58
-35.45
-39.95
-42.79
-42.88
-39.85
-34.08
-26.58
-18.59
-11.23
-5.16
-0.72
2.13
3.64
4.13
3.94
3.34
2.44
1.28
-0.11
-1.61
-2.91
-3.59
-3.33
-2.02
0.26
3.15
6.31
9.41
12.27
14.78
16.85
18.33
19.14
19.46
19.64
20.36
22.22
25.50
30.05
35.23
40.26
44.52
47.77
50.11
51.96
53.74
55.62
57.47
58.84
59.04
57.32
53.07
45.95
36.02
23.71
9.59
-5.64
-21.39
-37.09
-52.28
-66.49
-79.13
-89.50
-96.82
-100.38
-99.63
-94.55
-85.70
-74.08
-60.88
-47.08
-33.26
-19.66
-6.38
6.34
18.05
28.15
36.20
42.08
46.01
48.39
49.55
49.71
48.99
47.56
45.69
43.73
41.96
40.42
38.87
36.98
34.48
31.28
27.56
23.62
19.83
16.51
13.93
12.23
11.31
10.88
10.34
9.06
6.56
2.73
-2.07
-7.23
-12.02
-16.02
-19.11
-21.52
-23.65
-25.77
-27.97
-30.04
-31.60
-32.23
-31.63
-29.70
-26.56
-22.43
-17.56
-12.26
-6.77
-1.36
3.70
8.10
11.61
14.05
15.44
15.92
15.56
14.44
12.49
9.52
5.34
-0.09
-6.59
-13.89
-21.73
-30.25
-39.87
-51.28
-65.05
-81.27
-99.27
-117.69
-134.73
-148.63
-158.21
-163.06
-163.62
-160.90
-155.89
-149.16
-140.37
-128.13
-110.29
-84.77
-50.39
-7.92
39.56
87.08
128.81
159.58
176.14
177.85
166.26
144.30
115.22
82.02
47.48
14.40
-14.18
-35.39
-47.19
-49.13
-42.52
-30.00
-14.53
1.57
16.98
31.19
44.04
55.26
64.48
71.44
76.14
78.98
80.47
80.81
79.86
77.22
72.46
65.49
56.60
46.39
35.64
25.19
15.96
8.73
4.00
1.78
1.61
2.64
4.13
5.50
6.56
7.33
8.04
8.88
10.01
11.60
13.74
16.41
19.30
21.86
23.36
23.23
21.25
17.61
12.71
7.04
0.95
-5.30
-11.49
-17.50
-23.29
-28.86
-34.16
-39.00
-42.88
-45.08
-44.70
-41.04
-33.89
-23.61
-11.06
2.69
16.59
29.86
42.11
53.24
63.43
72.93
81.91
90.19
97.28
102.45
105.06
104.69
101.46
95.94
88.99
81.46
73.88
66.31
58.44
50.00
40.97
31.78
23.22
15.96
10.25
5.72
1.55
-3.00
-8.23
-13.87
-19.32
-24.08
-28.23
-32.34
-37.18
-43.29
-50.60
-58.48
-66.03
-72.44
-77.25
-80.49
-82.43
-83.43
-83.84
-83.84
-83.54
-83.01
-82.08
-80.52
-77.96
-74.08
-68.66
-61.72
-53.43
-44.20
-34.57
-25.07
-16.24
-8.45
-1.88
3.53
7.91
11.46
14.23
16.07
16.86
16.48
15.06
12.89
10.41
8.02
6.11
5.00
4.88
5.76
7.36
9.17
10.63
11.25
10.83
9.38
7.07
4.17
1.01
-2.02
-4.46
-5.91
-6.26
-5.73
-4.88
-4.36
-4.60
-5.65
-7.23
-8.95
-10.48
-11.73
-12.73
-13.62
-14.62
-15.96
-17.77
-20.14
-22.96
-25.97
-28.69
-30.57
-30.97
-29.42
-25.69
-19.87
-12.41
-4.05
4.28
11.72
17.57
21.56
23.69
24.28
23.72
22.45
20.86
19.39
18.36
18.05
18.54
19.67
21.14
22.54
23.51
23.82
23.44
22.42
20.91
19.06
16.94
14.58
12.00
9.26
6.41
3.65
1.17
-0.89
-2.50
-3.83
-5.07
-6.35
-7.68
-8.90
-9.87
-10.61
-11.44
-12.79
-15.13
-18.58
-22.97
-27.88
-32.86
-37.63
-42.17
-46.55
-50.67
-54.18
-56.38
-56.56
-54.12
-48.85
-41.06
-31.44
-20.96
-10.58
-1.20
6.56
12.38
16.29
18.59
19.71
20.08
20.03
19.81
19.59
19.60
20.03
21.05
22.65
24.49
26.12
27.03
26.96
26.00
24.61
23.33
22.57
22.43
22.63
22.72
22.22
20.85
18.54
15.50
11.98
8.24
4.47
0.77
-2.84
-6.36
-9.71
-12.76
-15.35
-17.39
-18.91
-19.99
-20.84
-21.65
-22.64
-24.02
-25.93
-28.34
-31.10
-33.76
-35.72
-36.28
-34.83
-31.06
-25.09
-17.47
-9.02
-0.75
6.56
12.43
16.77
19.80
21.80
22.99
23.42
23.10
22.10
20.72
19.46
18.81
19.06
20.19
21.82
23.32
24.18
24.05
22.91
20.98
18.53
15.92
13.36
11.05
9.07
7.56
6.48
5.78
5.27
4.76
4.09
3.18
1.98
0.49
-1.25
-3.23
-5.42
-7.79
-10.31
-12.94
-15.63
-18.30
-20.80
-22.92
-24.53
-25.71
-26.72
-27.96
-29.73
-31.92
-33.96
-34.91
-33.88
-30.40
-24.68
-17.44
-9.59
-1.96
4.89
10.65
15.09
18.01
19.24
18.93
17.43
15.30
13.14
11.36
10.17
9.63
9.68
10.23
11.18
12.36
13.50
14.28
14.47
13.91
12.65
10.92
9.03
7.27
5.79
4.54
3.46
2.51
1.70
1.09
0.76
0.61
0.49
0.20
-0.34
-1.03
-1.83
-2.74
-3.83
-5.22
-7.00
-9.03
-11.17
-13.26
-15.29
-17.39
-19.76
-22.51
-25.50
-28.44
-30.71
-31.71
-30.88
-27.91
-22.88
-16.15
-8.46
-0.64
6.49
12.37
16.69
19.44
20.75
20.82
19.91
18.27
16.24
14.29
13.02
12.89
14.15
16.65
19.74
22.68
24.75
25.64
25.45
24.59
23.48
22.39
21.30
20.00
18.31
16.16
13.62
10.95
8.36
5.97
3.76
1.61
-0.62
-2.99
-5.46
-7.94
-10.35
-12.79
-15.45
-18.55
-22.13
-26.01
-29.80
-33.03
-35.36
-36.66
-37.10
-36.88
-36.16
-34.83
-32.57
-28.98
-23.78
-17.00
-9.00
-0.43
7.93
15.40
21.43
25.73
28.23
29.03
28.41
26.80
24.77
22.90
21.67
21.29
21.66
22.44
23.16
23.42
23.02
21.91
20.17
17.89
15.12
11.90
8.38
4.84
1.58
-1.08
-3.03
-4.26
-4.87
-5.03
-4.89
-4.53
-4.10
-3.74
-3.61
-3.90
-4.71
-6.06
-7.92
-10.25
-13.01
-16.14
-19.58
-23.18
-26.83
-30.46
-33.99
-37.29
-40.04
-41.78
-42.02
-40.38
-36.75
-31.35
-24.66
-17.15
-9.41
-1.91
4.86
10.55
14.92
18.09
20.36
22.18
23.95
25.79
27.59
29.07
29.94
30.08
29.61
28.79
27.91
27.16
26.48
25.58
24.14
21.92
19.01
15.80
12.77
10.28
8.45
7.08
5.93
4.89
4.01
3.48
3.44
3.83
4.37
4.78
4.80
4.35
3.45
2.07
0.11
-2.48
-5.68
-9.27
-12.85
-16.09
-18.74
-20.89
-22.81
-24.88
-27.30
-29.95
-32.35
-33.80
-33.58
-31.19
-26.59
-20.18
-12.72
-5.21
1.52
6.88
10.79
13.49
15.49
17.20
18.89
20.61
22.27
23.79
25.10
26.22
27.09
27.65
27.76
27.26
26.08
24.26
22.00
19.44
16.80
14.12
11.38
8.48
5.24
1.60
-2.38
-6.30
-9.63
-11.75
-12.28
-11.20
-8.97
-6.38
-4.19
-3.01
-2.90
-3.59
-4.65
-5.71
-6.64
-7.43
-8.25
-9.12
-10.09
-11.12
-12.22
-13.44
-14.94
-16.87
-19.20
-21.77
-24.20
-26.00
-26.66
-25.76
-23.10
-18.69
-12.85
-6.05
1.13
8.06
14.12
18.78
21.79
23.10
22.95
21.76
19.93
17.86
15.84
14.14
12.93
12.47
12.77
13.74
15.08
16.34
17.12
17.17
16.48
15.09
13.14
10.71
7.94
4.94
1.96
-0.67
-2.59
-3.63
-3.85
-3.59
-3.22
-3.06
-3.22
-3.73
-4.51
-5.56
-7.00
-8.97
-11.58
-14.78
-18.34
-21.87
-25.10
-27.85
-30.25
-32.62
-35.22
-38.13
-41.02
-43.11
-43.38
-40.92
-35.32
-26.93
-16.73
-6.06
3.73
11.72
17.42
20.86
22.37
22.41
21.45
19.92
18.25
16.70
15.51
14.83
14.68
15.01
15.62
16.33
16.99
17.67
18.43
19.50
20.94
22.58
24.10
25.13
25.45
25.10
24.35
23.48
22.67
21.87
20.84
19.36
17.29
14.61
11.33
7.40
2.75
-2.70
-8.86
-15.48
-22.12
-28.36
-33.91
-38.75
-43.03
-47.07
-51.09
-55.10
-58.78
-61.59
-62.84
-61.97
-58.62
-52.73
-44.51
-34.41
-22.99
-10.90
1.17
12.49
22.32
30.12
35.66
39.09
40.84
41.55
41.87
42.24
42.89
43.68
44.38
44.75
44.70
44.40
44.17
44.18
44.30
44.03
42.58
39.13
33.11
24.34
13.03
-0.30
-15.02
-30.35
-45.35
-59.20
-71.42
-82.21
-92.26
-102.28
-112.19
-120.50
-124.49
-120.99
-107.78
-84.60
-53.59
-18.64
15.80
45.89
69.13
84.39
91.52
90.93
83.52
70.69
54.44
37.14
21.16
8.38
-0.26
-4.70
-5.55
-3.69
0.07
5.09
10.79
16.65
22.14
26.71
29.99
31.80
32.06
30.94
28.72
25.83
22.81
20.27
18.63
17.99
18.13
18.52
18.69
18.36
17.51
16.29
14.88
13.28
11.31
8.79
5.60
1.87
-2.09
-5.88
-9.15
-11.66
-13.42
-14.61
-15.49
-16.36
-17.42
-18.71
-20.17
-21.64
-22.95
-24.02
-24.84
-25.52
-26.18
-26.98
-27.98
-29.25
-30.71
-32.22
-33.51
-34.21
-33.86
-31.98
-28.26
-22.65
-15.57
-7.72
-0.01
6.71
11.90
15.33
17.05
17.26
16.19
14.05
11.07
7.62
4.19
1.37
-0.28
-0.48
0.81
3.29
6.46
9.72
12.59
14.78
16.17
16.81
16.74
16.01
14.57
12.41
9.61
6.43
3.40
1.01
-0.32
-0.60
-0.11
0.56
0.85
0.49
-0.59
-2.18
-4.03
-5.92
-7.88
-9.99
-12.39
-15.14
-18.24
-21.65
-25.17
-28.44
-30.87
-31.78
-30.57
-26.98
-21.23
-14.04
-6.41
0.68
6.51
10.78
13.54
15.09
15.76
15.82
15.47
14.79
13.96
13.10
12.38
11.96
11.95
12.30
12.83
13.40
13.87
14.28
14.77
15.48
16.43
17.46
18.25
18.44
17.91
16.72
15.16
13.60
12.38
11.59
11.05
10.45
9.43
7.79
5.43
2.44
-1.07
-5.03
-9.44
-14.21
-19.16
-23.96
-28.12
-31.35
-33.53
-34.86
-35.66
-36.18
-36.40
-36.04
-34.66
-31.91
-27.73
-22.32
-16.11
-9.64
-3.35
2.46
7.59
11.86
15.16
17.37
18.48
18.68
18.25
17.61
17.19
17.32
18.12
19.55
21.34
23.24
25.10
26.81
28.34
29.64
30.54
30.79
30.24
28.83
26.77
24.41
22.13
20.18
18.59
17.20
15.73
13.92
11.58
8.61
4.98
0.70
-4.10
-9.17
-14.20
-18.87
-22.89
-26.26
-29.07
-31.47
-33.57
-35.29
-36.47
-37.00
-36.90
-36.30
-35.32
-33.85
-31.60
-28.17
-23.36
-17.29
-10.48
-3.66
2.56
7.78
11.93
15.15
17.60
19.42
20.67
21.25
21.09
20.15
18.59
16.79
15.28
14.52
14.79
16.07
17.99
20.00
21.55
22.27
21.97
20.63
18.27
15.06
11.23
7.09
3.02
-0.65
-3.68
-5.94
-7.29
-7.68
-6.98
-5.27
-2.81
-0.13
2.00
2.78
1.70
-1.21
-5.46
-10.18
-14.49
-17.71
-19.46
-19.74
-18.74
-16.68
-13.74
-10.02
-5.56
-0.25
6.18
14.12
23.83
35.11
47.10
58.35
67.02
71.30
69.87
62.16
48.60
30.42
9.57
-11.56
-30.64
-45.71
-55.64
-60.17
-59.83
-55.55
-48.50
-39.82
-30.58
-21.75
-14.12
-8.18
-4.08
-1.64
-0.36
0.26
0.72
1.30
2.14
3.34
5.02
7.30
10.39
14.43
19.51
25.58
32.44
39.72
47.00
53.85
59.76
64.21
66.58
66.35
62.99
56.12
45.50
31.17
13.52
-6.57
-27.68
-47.97
-65.45
-78.35
-85.62
-87.08
-83.37
-75.77
-65.70
-54.46
-43.16
-32.65
-23.57
-16.43
-11.49
-8.70
-7.77
-8.03
-8.70
-8.99
-8.32
-6.28
-2.92
1.42
6.17
10.70
14.57
17.63
19.96
21.81
23.42
24.84
26.12
27.21
28.13
28.93
29.65
30.17
30.37
30.03
28.91
26.89
23.83
19.62
14.22
7.70
0.09
-8.40
-17.49
-26.84
-36.02
-44.76
-52.90
-60.47
-67.53
-74.11
-80.01
-84.71
-87.59
-87.98
-85.46
-79.93
-71.59
-60.87
-48.40
-35.02
-21.68
-9.39
1.05
9.11
14.73
18.33
20.50
21.85
22.78
23.42
23.79
23.92
23.93
24.05
24.59
25.68
27.29
29.17
30.92
32.13
32.47
31.80
30.13
27.63
24.64
21.56
18.78
16.51
14.73
13.12
11.24
8.58
4.91
0.35
-4.61
-9.37
-13.49
-16.83
-19.59
-22.11
-24.73
-27.67
-31.07
-34.96
-39.38
-44.29
-49.44
-54.46
-58.98
-62.84
-66.15
-68.93
-70.91
-71.13
-68.18
-60.67
-48.01
-30.73
-10.52
10.31
29.56
45.57
57.65
65.79
70.47
72.23
71.67
69.43
66.13
62.50
59.10
56.45
54.61
53.34
52.03
50.02
46.90
42.67
37.86
33.26
29.64
27.42
26.42
26.10
25.83
25.19
24.14
22.95
22.00
21.52
21.46
21.48
21.17
20.24
18.60
16.40
13.84
11.03
7.92
4.40
0.41
-3.88
-8.24
-12.33
-15.91
-18.88
-21.24
-23.08
-24.54
-25.85
-27.25
-28.97
-31.00
-32.95
-34.12
-33.71
-31.16
-26.45
-20.11
-12.96
-5.91
0.39
5.60
9.59
12.42
14.19
15.03
15.14
14.83
14.39
14.10
14.13
14.53
15.30
16.38
17.71
19.13
20.42
21.29
21.44
20.70
19.06
16.72
14.04
11.41
9.11
7.30
5.94
4.86
3.88
2.87
1.78
0.69
-0.33
-1.17
-1.84
-2.48
-3.31
-4.50
-6.14
-8.17
-10.36
-12.45
-14.21
-15.61
-16.79
-18.04
-19.65
-21.78
-24.51
-27.62
-30.68
-33.09
-34.14
-33.32
-30.41
-25.57
-19.27
-12.18
-4.95
1.87
7.81
12.52
15.77
17.49
17.85
17.24
16.11
14.88
13.80
12.89
12.09
11.32
10.57
9.85
9.24
8.83
8.65
8.61
8.53
8.25
7.63
6.61
5.27
3.72
2.03
0.28
-1.56
-3.44
-5.06
-6.08
-6.30
-5.71
-4.72
-3.97
-4.04
-5.25
-7.59
-10.70
-14.09
-17.36
-20.25
-22.76
-25.09
-27.56
-30.55
-34.43
-39.42
-45.42
-51.87
-57.79
-61.94
-63.16
-60.74
-54.59
-45.36
-34.13
-22.21
-10.74
-0.60
7.66
13.83
17.95
20.28
21.15
20.99
20.14
18.85
17.35
15.84
14.53
13.63
13.27
13.40
13.93
14.70
15.64
16.70
17.87
19.05
20.04
20.72
20.93
20.70
20.11
19.16
17.87
16.20
14.13
11.72
9.12
6.48
4.02
1.81
-0.16
-1.95
-3.66
-5.33
-7.00
-8.61
-10.10
-11.38
-12.38
-13.20
-14.00
-15.12
-16.90
-19.68
-23.51
-28.19
-33.06
-37.05
-39.06
-38.08
-33.71
-26.29
-16.75
-6.40
3.43
11.86
18.61
23.88
28.17
31.85
35.07
37.70
39.49
40.14
39.43
37.42
34.34
30.67
26.95
23.61
20.91
18.90
17.49
16.58
16.13
16.09
16.36
16.73
16.85
16.44
15.33
13.64
11.62
9.58
7.74
6.16
4.84
3.70
2.65
1.55
0.31
-1.17
-2.95
-5.05
-7.41
-9.88
-12.39
-14.80
-17.06
-19.13
-21.05
-22.89
-24.84
-27.12
-29.84
-32.89
-35.83
-37.87
-38.15
-36.07
-31.44
-24.59
-16.30
-7.47
1.14
8.89
15.51
20.83
24.72
27.13
28.10
27.82
26.62
24.91
22.94
20.94
18.93
16.89
14.80
12.77
10.95
9.56
8.76
8.48
8.60
8.89
9.13
9.16
8.86
8.13
6.88
5.14
2.98
0.61
-1.77
-4.02
-6.05
-7.95
-9.86
-11.90
-14.09
-16.34
-18.40
-20.05
-21.09
-21.40
-21.06
-20.27
-19.30
-18.35
-17.65
-17.39
-17.87
-19.37
-21.97
-25.41
-28.98
-31.65
-32.31
-30.21
-25.24
-18.05
-9.82
-1.89
4.68
9.42
12.36
13.94
14.58
14.55
13.86
12.46
10.45
8.16
6.21
5.21
5.58
7.30
9.94
12.73
14.97
16.09
15.95
14.81
13.13
11.32
9.66
8.12
6.61
5.05
3.40
1.79
0.37
-0.67
-1.25
-1.43
-1.40
-1.42
-1.77
-2.72
-4.27
-6.31
-8.55
-10.86
-13.19
-15.62
-18.22
-21.00
-23.88
-26.71
-29.34
-31.78
-33.95
-35.65
-36.54
-36.17
-34.09
-30.08
-24.17
-16.75
-8.53
-0.30
7.09
13.04
17.20
19.60
20.50
20.27
19.28
17.81
16.18
14.59
13.31
12.54
12.49
13.24
14.73
16.69
18.72
20.46
21.54
21.84
21.45
20.55
19.30
17.79
16.02
13.98
11.89
9.99
8.51
7.52
6.85
6.19
5.27
3.97
2.32
0.46
-1.53
-3.65
-5.86
-8.08
-10.14
-11.97
-13.71
-15.67
-18.28
-21.83
-26.30
-31.41
-36.71
-41.56
-45.32
-47.37
-47.10
-44.08
-38.40
-30.61
-21.79
-13.14
-5.55
0.54
5.15
8.56
11.02
12.63
13.45
13.52
13.09
12.54
12.33
12.80
14.13
16.18
18.61
21.04
23.09
24.56
25.45
25.92
26.08
25.95
25.31
23.93
21.77
19.01
15.99
13.10
10.53
8.35
6.40
4.55
2.74
1.00
-0.71
-2.46
-4.41
-6.72
-9.34
-12.13
-14.86
-17.36
-19.55
-21.46
-23.16
-24.70
-26.20
-27.75
-29.36
-30.84
-31.82
-31.76
-30.17
-26.74
-21.54
-14.97
-7.67
-0.34
6.34
11.83
15.86
18.41
19.72
20.23
20.43
20.62
20.96
21.35
21.73
22.10
22.65
23.49
24.68
26.10
27.52
28.73
29.53
29.91
29.89
29.58
29.04
28.26
27.20
25.72
23.74
21.23
18.28
15.11
12.01
9.23
6.93
5.12
3.71
2.58
1.57
0.52
-0.69
-2.16
-3.85
-5.65
-7.44
-9.19
-10.92
-12.80
-14.99
-17.57
-20.54
-23.78
-27.03
-29.90
-31.89
-32.37
-30.84
-27.09
-21.37
-14.31
-6.85
0.16
6.04
10.48
13.48
15.25
16.03
16.11
15.78
15.32
15.05
15.15
15.72
16.67
17.77
18.69
19.15
19.00
18.26
17.20
16.05
15.02
14.14
13.34
12.51
11.60
10.64
9.73
9.00
8.47
8.10
7.81
7.48
6.98
6.19
4.99
3.39
1.46
-0.66
-2.80
-4.89
-7.04
-9.44
-12.34
-15.84
-19.83
-23.97
-27.89
-31.24
-33.81
-35.53
-36.26
-35.74
-33.63
-29.73
-24.00
-16.82
-8.86
-0.94
6.22
12.15
16.68
19.84
21.72
22.50
22.41
21.72
20.79
20.03
19.74
20.00
20.70
21.52
22.12
22.24
21.79
20.93
19.90
19.06
18.58
18.48
18.52
18.30
17.47
15.77
13.36
10.53
7.74
5.35
3.48
1.98
0.54
-1.15
-3.26
-5.79
-8.63
-11.61
-14.62
-17.48
-20.16
-22.48
-24.33
-25.65
-26.50
-27.16
-27.99
-29.34
-31.32
-33.62
-35.55
-36.18
-34.70
-30.63
-24.04
-15.63
-6.46
2.22
9.43
14.56
17.51
18.47
17.87
16.19
13.87
11.30
8.86
6.93
5.77
5.50
6.00
7.05
8.34
9.65
10.90
12.12
13.38
14.59
15.67
16.47
16.93
17.12
17.08
16.84
16.29
15.31
13.82
11.99
10.16
8.64
7.59
6.82
6.02
4.82
2.97
0.46
-2.50
-5.68
-8.83
-11.82
-14.51
-16.85
-18.85
-20.74
-22.87
-25.59
-29.09
-33.19
-37.29
-40.48
-41.85
-40.68
-36.77
-30.39
-22.25
-13.35
-4.71
2.83
8.74
12.85
15.33
16.53
16.94
16.99
16.94
17.05
17.42
18.16
19.31
20.79
22.35
23.70
24.57
24.81
24.56
23.99
23.26
22.42
21.37
19.92
17.98
15.66
13.21
11.00
9.27
8.08
7.35
6.85
6.33
5.56
4.36
2.62
0.37
-2.29
-5.12
-7.79
-10.01
-11.63
-12.72
-13.56
-14.47
-15.61
-17.04
-18.67
-20.37
-22.18
-24.18
-26.39
-28.68
-30.59
-31.44
-30.54
-27.55
-22.55
-16.18
-9.34
-2.97
2.20
5.87
8.15
9.41
10.00
10.18
10.02
9.53
8.75
7.90
7.35
7.56
8.73
10.77
13.25
15.53
17.08
17.58
17.16
16.19
15.19
14.47
14.14
14.05
13.91
13.46
12.59
11.36
9.96
8.61
7.43
6.41
5.40
4.20
2.70
0.95
-0.95
-2.83
-4.63
-6.34
-8.09
-9.99
-12.10
-14.38
-16.71
-19.02
-21.34
-23.79
-26.36
-28.92
-31.11
-32.47
-32.56
-31.11
-28.11
-23.80
-18.57
-12.91
-7.24
-1.93
2.82
6.85
10.08
12.34
13.54
13.60
12.71
11.22
9.63
8.43
7.90
8.10
8.79
9.68
10.48
10.94
10.93
10.37
9.31
7.92
6.48
5.23
4.29
3.61
3.07
2.55
2.03
1.58
1.22
0.86
0.28
-0.73
-2.32
-4.36
-6.56
-8.61
-10.21
-11.34
-12.20
-13.05
-14.26
-16.08
-18.61
-21.86
-25.64
-29.57
-33.07
-35.49
-36.14
-34.56
-30.69
-25.00
-18.33
-11.71
-5.97
-1.47
1.81
4.24
6.24
7.97
9.43
10.52
11.25
11.91
12.96
14.86
17.74
21.37
25.13
28.39
30.60
31.60
31.47
30.43
28.72
26.46
23.82
20.99
18.35
16.23
14.90
14.43
14.58
15.04
15.41
15.38
14.67
13.22
10.95
7.97
4.45
0.63
-3.24
-7.00
-10.50
-13.74
-16.69
-19.33
-21.68
-23.79
-25.86
-27.97
-30.15
-32.05
-33.14
-32.75
-30.37
-25.98
-20.02
-13.35
-6.84
-1.17
3.46
7.15
10.18
12.80
15.11
17.00
18.36
19.14
19.41
19.36
19.27
19.23
19.18
18.85
18.02
16.64
14.93
13.24
11.88
10.93
10.20
9.40
8.29
6.90
5.39
3.92
2.50
1.02
-0.71
-2.67
-4.68
-6.40
-7.58
-8.22
-8.55
-8.93
-9.53
-10.36
-11.21
-11.84
-12.18
-12.34
-12.63
-13.46
-15.11
-17.65
-20.90
-24.41
-27.52
-29.51
-29.71
-27.77
-23.65
-17.76
-10.81
-3.61
3.04
8.63
12.78
15.52
16.96
17.26
16.63
15.24
13.43
11.64
10.40
10.12
11.00
12.90
15.39
17.92
19.97
21.25
21.64
21.17
20.01
18.38
16.52
14.63
12.77
10.81
8.61
6.00
3.06
0.04
-2.73
-4.97
-6.62
-7.82
-8.81
-9.72
-10.58
-11.30
-11.74
-11.93
-11.99
-12.14
-12.57
-13.43
-14.69
-16.40
-18.45
-20.72
-23.00
-24.92
-25.96
-25.65
-23.70
-20.03
-14.98
-8.98
-2.60
3.57
8.98
13.22
15.94
17.06
16.77
15.47
13.68
11.89
10.41
9.42
8.99
9.18
9.98
11.36
13.07
14.73
15.85
15.94
14.74
12.21
8.60
4.33
-0.12
-4.31
-7.83
-10.36
-11.63
-11.56
-10.36
-8.60
-7.08
-6.47
-7.25
-9.24
-11.93
-14.66
-16.98
-18.81
-20.38
-21.93
-23.60
-25.44
-27.40
-29.47
-31.71
-34.06
-36.22
-37.51
-37.10
-34.30
-28.94
-21.41
-12.71
-3.96
3.86
10.19
14.93
18.25
20.43
21.76
22.45
22.62
22.37
21.87
21.17
20.29
19.16
17.71
16.00
14.15
12.33
10.74
9.58
9.05
9.20
9.95
11.08
12.24
13.11
13.41
13.10
12.33
11.41
10.64
10.20
10.00
9.79
9.22
8.00
6.02
3.32
0.10
-3.34
-6.76
-9.98
-12.89
-15.56
-18.13
-20.87
-24.11
-27.98
-32.30
-36.42
-39.31
-39.95
-37.67
-32.48
-25.17
-16.98
-9.15
-2.53
2.58
6.31
8.95
10.81
12.11
13.08
13.91
14.86
16.13
17.79
19.73
21.75
23.57
24.98
25.82
26.03
25.74
25.11
24.39
23.73
23.13
22.47
21.64
20.58
19.38
18.18
16.99
15.71
14.10
11.88
8.91
5.28
1.17
-3.14
-7.49
-11.87
-16.24
-20.58
-24.82
-28.85
-32.60
-36.08
-39.47
-42.91
-46.49
-50.00
-52.94
-54.62
-54.30
-51.46
-46.00
-38.43
-29.60
-20.55
-12.13
-4.86
1.02
5.49
8.60
10.42
11.11
11.01
10.55
10.27
10.62
12.00
14.57
18.31
22.94
27.90
32.53
36.01
37.62
36.93
33.88
28.80
22.29
15.02
7.51
0.18
-6.80
-13.33
-19.22
-24.13
-27.55
-28.93
-27.93
-24.73
-19.89
-14.32
-8.83
-4.01
-0.04
3.18
5.77
7.74
8.85
8.89
7.66
5.24
1.89
-2.04
-6.12
-9.82
-12.57
-13.68
-12.55
-8.91
-2.99
4.49
12.38
19.54
25.14
28.86
30.85
31.50
31.16
29.98
28.06
25.38
22.07
18.45
14.99
12.12
10.07
8.79
8.12
7.89
7.99
8.41
9.10
9.88
10.46
10.48
9.71
8.19
6.13
3.93
1.96
0.46
-0.59
-1.27
-1.86
-2.66
-3.94
-5.90
-8.50
-11.54
-14.64
-17.51
-19.96
-22.15
-24.48
-27.35
-31.03
-35.29
-39.47
-42.65
-43.87
-42.51
-38.48
-32.21
-24.44
-16.17
-8.21
-1.22
4.44
8.63
11.31
12.55
12.53
11.64
10.29
9.09
8.56
9.07
10.67
13.16
16.17
19.31
22.25
24.68
26.35
27.07
26.74
25.46
23.46
20.96
18.12
14.93
11.32
7.30
3.11
-0.88
-4.15
-6.44
-7.77
-8.54
-9.24
-10.31
-11.88
-13.87
-16.04
-17.97
-19.40
-20.16
-20.41
-20.51
-20.99
-22.24
-24.26
-26.59
-28.31
-28.47
-26.36
-21.86
-15.44
-8.08
-0.79
5.50
10.29
13.45
15.21
15.96
16.15
16.09
16.01
16.03
16.22
16.68
17.46
18.52
19.71
20.86
21.68
22.07
21.95
21.44
20.66
19.71
18.54
17.11
15.47
13.70
11.98
10.46
9.15
7.92
6.53
4.78
2.66
0.31
-2.01
-4.08
-5.84
-7.38
-8.91
-10.58
-12.41
-14.25
-15.91
-17.29
-18.40
-19.43
-20.73
-22.53
-24.93
-27.66
-30.16
-31.73
-31.68
-29.60
-25.41
-19.45
-12.35
-4.81
2.42
8.76
13.80
17.38
19.60
20.71
21.06
20.96
20.61
20.14
19.72
19.56
19.89
20.83
22.25
23.80
25.04
25.62
25.41
24.48
23.03
21.18
18.91
16.14
12.84
9.20
5.61
2.46
0.04
-1.58
-2.54
-3.04
-3.35
-3.63
-4.03
-4.57
-5.28
-6.11
-7.01
-7.91
-8.83
-9.84
-11.08
-12.75
-14.93
-17.75
-21.17
-25.15
-29.57
-34.11
-38.25
-41.34
-42.73
-41.87
-38.65
-33.33
-26.53
-19.09
-11.69
-4.88
1.01
5.72
9.14
11.20
11.99
11.75
10.88
9.89
9.20
9.20
9.98
11.52
13.57
15.88
18.14
20.14
21.79
22.99
23.80
24.19
24.17
23.75
23.06
22.26
21.46
20.65
19.67
18.36
16.62
14.49
12.21
10.08
8.33
7.03
6.08
5.27
4.43
3.37
2.05
0.48
-1.28
-3.15
-5.13
-7.26
-9.72
-12.63
-16.02
-19.64
-22.89
-25.03
-25.27
-23.15
-18.75
-12.74
-6.13
-0.06
4.60
7.50
8.66
8.44
7.32
5.68
3.73
1.71
-0.22
-1.78
-2.73
-2.91
-2.36
-1.24
0.22
1.77
3.25
4.46
5.31
5.70
5.62
5.09
4.22
3.11
1.87
0.65
-0.42
-1.22
-1.72
-2.07
-2.54
-3.45
-4.98
-7.14
-9.72
-12.53
-15.36
-18.08
-20.52
-22.56
-24.08
-25.14
-26.04
-27.12
-28.67
-30.60
-32.37
-33.17
-32.17
-28.90
-23.31
-15.98
-7.75
0.34
7.41
12.87
16.53
18.54
19.32
19.32
18.86
18.16
17.30
16.32
15.40
14.75
14.66
15.29
16.63
18.46
20.44
22.16
23.27
23.53
22.92
21.57
19.68
17.47
15.07
12.61
10.11
7.60
5.16
2.91
0.99
-0.53
-1.77
-3.00
-4.55
-6.62
-9.26
-12.24
-15.21
-17.81
-19.84
-21.36
-22.62
-23.97
-25.56
-27.45
-29.49
-31.56
-33.43
-34.85
-35.41
-34.54
-31.78
-26.86
-20.08
-12.25
-4.50
2.12
7.03
10.27
12.28
13.61
14.62
15.41
15.94
16.20
16.36
16.69
17.50
18.86
20.63
22.43
23.82
24.47
24.27
23.32
21.90
20.30
18.75
17.33
16.01
14.63
13.08
11.29
9.35
7.46
5.80
4.53
3.71
3.29
3.04
2.70
1.98
0.64
-1.34
-3.80
-6.46
-9.05
-11.39
-13.56
-15.69
-18.05
-20.82
-24.08
-27.71
-31.39
-34.74
-37.17
-38.14
-37.09
-33.82
-28.52
-21.90
-14.95
-8.64
-3.56
0.16
2.83
4.93
6.73
8.25
9.30
9.72
9.62
9.45
9.66
10.60
12.29
14.33
16.19
17.48
18.06
18.13
18.17
18.56
19.46
20.84
22.36
23.64
24.38
24.38
23.57
22.04
19.96
17.44
14.67
11.72
8.70
5.63
2.50
-0.70
-3.97
-7.23
-10.35
-13.12
-15.42
-17.22
-18.63
-20.00
-21.66
-23.91
-26.83
-30.25
-33.67
-36.40
-37.62
-36.56
-32.82
-26.40
-17.86
-8.15
1.64
10.50
17.69
22.88
26.15
27.69
27.85
26.96
25.34
23.35
21.33
19.58
18.33
17.71
17.66
17.98
18.32
18.39
18.05
17.36
16.50
15.75
15.21
14.84
14.40
13.71
12.82
12.00
11.45
11.17
11.09
10.94
10.53
9.63
8.26
6.70
5.46
4.63
3.98
3.27
2.15
0.39
-2.12
-5.22
-8.25
-10.20
-10.82
-10.43
-9.54
-8.96
-9.55
-11.93
-16.19
-21.66
-27.02
-31.70
-35.64
-38.70
-41.48
-45.56
-53.45
-68.13
-92.09
-119.71
-142.52
-152.98
-147.75
-128.87
-100.87
-68.90
-37.86
-12.13
5.95
15.53
18.35
19.93
26.81
44.59
75.55
117.45
163.36
204.67
233.53
238.44
220.28
186.99
148.50
112.85
84.18
61.69
42.85
21.99
-5.22
-39.67
-80.04
-122.36
-160.80
-184.37
-188.57
-175.47
-151.77
-125.15
-100.05
-78.21
-59.50
-43.46
-30.29
-21.85
-19.15
-21.27
-26.12
-30.73
-33.18
-33.21
-31.22
-27.07
-20.01
-7.98
11.41
38.35
70.46
102.82
129.65
146.59
151.96
146.41
129.74
107.51
83.39
59.84
38.52
20.74
7.45
-1.07
-5.70
-7.92
-8.85
-10.10
-12.32
-15.21
-17.99
-19.75
-20.01
-19.04
-17.50
-15.95
-15.35
-16.12
-18.08
-20.66
-23.20
-25.32
-27.00
-28.56
-30.21
-32.36
-34.95
-37.48
-39.13
-39.11
-36.99
-32.76
-26.80
-19.69
-12.21
-4.88
2.06
8.64
14.94
20.91
26.33
30.84
34.09
35.80
36.03
35.10
33.49
31.69
30.10
29.05
28.76
29.09
29.45
28.79
25.86
19.90
10.92
-0.02
-11.25
-21.03
-28.26
-32.80
-35.23
-36.47
-37.13
-37.46
-37.47
-37.18
-36.78
-36.66
-37.22
-38.67
-40.97
-43.80
-46.81
-49.81
-52.76
-55.73
-58.78
-61.74
-64.11
-66.24
-67.71
-68.13
-67.32
-65.44
-62.87
-60.03
-57.05
-53.61
-49.01
-42.27
-32.77
-20.48
-6.03
9.45
24.67
38.38
49.62
57.72
62.49
64.13
63.17
60.45
56.84
53.09
49.60
46.51
43.87
41.98
41.25
42.10
44.64
48.44
52.60
56.12
58.23
58.67
57.72
55.83
53.32
50.26
46.46
41.78
36.24
30.14
23.92
17.96
12.46
7.44
2.83
-1.42
-5.22
-8.40
-10.88
-12.67
-14.01
-15.27
-16.77
-18.67
-20.89
-23.10
-24.86
-25.79
-25.56
-24.06
-21.25
-17.17
-11.98
-5.89
0.70
7.27
13.23
18.08
21.49
23.42
24.20
24.34
24.38
24.77
25.76
27.36
29.40
31.59
33.60
35.17
36.12
36.32
35.76
34.60
33.15
31.75
30.67
29.93
29.46
28.97
28.08
26.58
24.51
22.17
19.88
17.83
15.94
14.31
12.80
11.01
8.54
5.12
0.75
-4.43
-10.15
-15.99
-20.54
-22.55
-21.27
-16.52
-8.37
2.88
16.64
31.96
47.75
64.04
80.43
95.81
108.62
117.78
122.96
124.49
123.13
119.79
116.78
115.29
114.70
113.14
108.97
101.56
91.40
79.46
57.12
21.77
-22.63
-68.42
-109.63
-143.44
-168.60
-184.27
-190.31
-187.88
-178.02
-163.31
-147.27
-133.14
-122.31
-114.16
-106.92
-98.84
-88.83
-75.69
-59.79
-42.97
-28.17
-17.62
-13.02
-15.09
-22.77
-32.88
-39.64
-37.44
-22.76
2.64
32.62
59.40
77.02
83.34
80.18
71.54
60.44
47.54
31.66
12.04
-10.11
-31.84
-49.62
-60.32
-62.23
-55.26
-40.37
-19.72
3.66
25.80
42.35
49.33
45.12
31.02
10.70
-10.95
-30.09
-45.24
-57.02
-67.03
-77.14
-87.85
-98.77
-109.24
-118.17
-125.10
-130.33
-134.61
-134.46
-128.54
-116.14
-97.43
-73.33
-44.27
-11.35
23.24
56.75
87.06
113.18
136.62
160.34
180.60
193.95
198.41
193.99
181.77
163.55
141.65
119.46
99.84
84.29
73.31
65.59
58.66
50.04
38.31
23.34
6.43
-10.94
-27.12
-40.21
-49.19
-54.17
-56.11
-56.34
-56.87
-58.22
-61.01
-65.18
-69.77
-73.54
-75.55
-75.51
-73.95
-72.03
-69.36
-67.62
-67.17
-66.87
-65.17
-61.18
-55.35
-49.20
-44.40
-41.72
-41.18
-41.23
-40.10
-36.86
-31.87
-26.67
-23.01
-22.10
-24.25
-29.55
-36.66
-42.99
-45.02
-38.66
-20.88
8.43
45.59
84.01
115.41
133.87
137.75
129.66
115.25
100.36
88.37
78.32
68.89
55.35
34.33
7.29
-21.84
-47.68
-65.29
-71.52
-65.29
-47.83
-20.96
12.94
50.65
87.55
118.32
138.15
142.73
133.89
116.03
94.83
75.65
61.86
53.68
48.84
44.02
36.44
25.28
10.98
-5.24
-22.01
-37.96
-52.01
-62.86
-69.25
-70.72
-68.03
-63.89
-61.71
-64.63
-72.79
-84.64
-97.31
-107.89
-114.33
-115.45
-111.02
-100.44
-85.46
-67.71
-49.24
-32.06
-17.58
-6.40
1.99
8.46
14.19
19.98
26.50
33.52
40.17
44.96
46.12
42.73
35.04
24.91
15.15
8.54
6.16
6.75
7.39
4.52
-3.88
-17.46
-33.59
-48.82
-60.45
-67.53
-70.87
-71.23
-70.32
-68.61
-66.09
-62.82
-59.09
-54.63
-47.78
-35.74
-15.72
13.12
48.33
84.08
113.13
129.73
131.88
121.60
102.10
79.38
57.08
37.05
20.09
7.48
0.12
-0.98
4.05
13.26
23.76
31.67
34.76
32.50
25.98
17.15
7.90
-0.79
-9.17
-17.82
-27.29
-37.49
-46.94
-53.35
-54.56
-49.32
-37.66
-20.79
-0.56
20.51
39.41
53.00
58.82
56.39
48.01
38.80
32.82
32.75
38.16
45.71
51.07
51.18
45.57
36.07
25.43
15.40
6.36
-2.43
-11.67
-21.19
-29.79
-36.23
-40.04
-41.88
-43.34
-45.97
-50.66
-57.07
-63.80
-68.55
-68.99
-63.33
-50.60
-30.66
-4.47
25.86
57.27
84.59
104.11
114.01
114.09
105.22
88.88
66.80
41.16
14.59
-10.12
-30.57
-45.95
-57.21
-66.87
-76.80
-87.65
-98.48
-107.11
-111.10
-108.32
-97.81
-79.74
-55.47
-27.65
-0.28
22.00
35.08
36.85
28.40
13.63
-1.83
-12.82
-16.37
-12.50
-3.56
7.32
17.59
26.22
31.90
34.36
34.11
32.25
30.16
29.01
29.13
29.81
29.62
27.25
22.55
16.51
10.77
6.75
5.12
5.77
8.37
12.93
19.83
29.34
40.76
51.79
58.94
58.82
49.64
32.22
9.94
-12.33
-29.91
-39.89
-42.13
-39.05
-34.53
-32.37
-34.97
-42.75
-54.17
-66.50
-76.72
-82.48
-82.47
-76.45
-64.95
-49.02
-30.01
-9.58
10.31
27.66
40.77
48.80
52.08
51.91
50.04
47.99
46.58
45.89
45.60
45.34
44.97
44.50
43.92
43.16
42.20
41.33
41.14
42.32
45.20
49.25
53.11
54.94
53.23
47.57
38.93
29.35
21.16
16.02
14.36
15.33
17.20
18.00
16.04
10.29
0.62
-12.11
-26.17
-39.37
-49.77
-56.46
-60.04
-62.37
-65.55
-70.55
-76.24
-79.47
-76.30
-63.67
-40.73
-9.18
27.44
64.91
99.37
127.69
147.54
157.31
156.40
145.69
127.80
106.76
87.00
71.96
63.08
59.52
58.75
57.71
54.03
46.67
36.09
23.58
10.46
-2.58
-15.55
-28.82
-42.56
-56.35
-69.26
-80.29
-88.90
-95.13
-99.43
-102.21
-103.62
-103.66
-102.43
-100.37
-98.21
-96.69
-96.40
-97.88
-101.78
-108.92
-119.98
-134.96
-152.69
-170.81
-186.26
-196.09
-198.20
-191.76
-177.14
-155.71
-129.54
-101.12
-72.98
-47.23
-24.82
-5.35
12.83
31.63
52.02
73.22
92.68
107.09
113.83
112.31
104.36
93.53
83.51
76.75
73.85
74.06
76.26
79.61
83.69
88.15
92.35
95.38
96.49
95.74
93.93
92.15
90.61
88.62
85.12
79.33
70.91
59.60
44.91
26.26
3.72
-21.91
-48.09
-70.64
-84.97
-88.06
-79.95
-63.42
-42.63
-21.44
-3.60
8.54
14.54
15.87
14.77
13.11
11.91
11.48
11.80
11.08
7.24
-1.09
-14.20
-32.16
-55.86
-86.75
-125.73
-161.74
-182.29
-180.06
-157.79
-124.21
-87.66
-53.79
-25.58
-3.60
13.38
25.96
34.30
38.65
39.87
39.14
37.35
35.09
32.99
31.93
31.56
31.14
30.12
28.59
26.94
25.18
23.06
20.48
17.82
15.08
12.31
9.80
8.14
7.93
9.28
11.63
13.99
15.34
14.73
12.43
10.45
12.13
21.20
39.52
65.48
93.78
116.71
126.26
117.36
89.79
48.51
2.12
-40.08
-71.01
-87.34
-89.84
-82.27
-69.30
-55.22
-43.46
-36.57
-36.12
-42.12
-52.12
-60.41
-61.52
-51.47
-30.23
-2.11
25.86
47.00
57.67
58.36
52.41
43.76
35.46
28.84
24.11
21.23
20.45
21.96
25.23
28.43
28.80
24.04
13.44
-1.23
-16.24
-27.33
-31.53
-28.34
-19.75
-9.19
0.24
6.81
10.49
12.22
13.10
13.70
14.03
13.84
13.04
11.91
10.93
10.60
11.11
12.23
13.44
14.14
14.09
13.45
12.83
12.79
13.70
15.48
17.59
19.39
20.43
20.55
20.16
19.78
19.83
20.64
22.22
24.31
26.26
27.05
25.10
19.12
8.43
-6.28
-22.86
-38.43
-50.36
-57.16
-58.86
-56.60
-51.78
-45.48
-38.18
-30.17
-22.00
-14.66
-9.18
-6.27
-5.79
-6.70
-7.60
-7.31
-5.22
-1.65
2.54
6.36
9.03
10.33
10.56
10.29
9.96
9.81
9.63
9.14
8.17
6.84
5.56
4.84
4.94
5.81
7.06
8.09
8.42
7.81
6.36
4.36
2.12
-0.18
-2.42
-4.46
-6.21
-7.51
-8.18
-8.17
-7.62
-6.88
-6.47
-6.77
-7.99
-10.04
-12.57
-15.11
-17.13
-18.17
-17.92
-16.31
-13.54
-10.05
-6.42
-3.34
-1.35
-0.63
-0.96
-1.84
-2.81
-3.56
-4.11
-4.59
-5.12
-5.59
-5.76
-5.33
-4.15
-2.32
-0.15
2.02
3.93
5.50
6.89
8.35
10.13
12.48
15.58
19.56
24.46
30.09
36.04
41.69
46.29
49.16
49.86
48.37
45.09
40.75
36.10
31.53
26.93
21.74
15.22
6.92
-3.07
-14.08
-25.23
-35.74
-45.16
-53.23
-59.68
-64.12
-66.18
-65.84
-63.67
-60.74
-58.10
-56.16
-54.36
-51.33
-45.57
-36.34
-24.03
-10.07
3.70
15.81
25.50
32.66
37.51
40.21
40.81
39.39
36.31
32.30
28.25
24.81
22.11
19.72
16.95
13.27
8.59
3.29
-2.01
-6.71
-10.33
-12.58
-13.22
-12.06
-9.06
-4.44
1.21
7.07
12.29
16.20
18.47
19.04
18.09
15.77
12.24
7.60
1.99
-4.46
-11.59
-19.28
-27.46
-36.01
-44.65
-52.85
-59.75
-64.30
-65.49
-62.60
-55.48
-44.65
-31.20
-16.53
-2.08
10.93
21.61
29.41
34.14
35.92
35.16
32.56
29.01
25.40
22.52
20.87
20.61
21.59
23.46
25.77
28.07
29.99
31.25
31.67
31.13
29.63
27.17
23.87
19.88
15.43
10.77
6.16
1.77
-2.33
-6.15
-9.74
-13.10
-16.17
-18.87
-21.17
-23.13
-24.91
-26.67
-28.52
-30.49
-32.54
-34.66
-36.80
-38.82
-40.43
-41.16
-40.52
-38.13
-33.90
-28.06
-21.12
-13.69
-6.31
0.62
6.86
12.27
16.74
20.12
22.31
23.25
23.05
22.00
20.59
19.32
18.51
18.23
18.20
18.00
17.17
15.34
12.35
8.28
3.39
-1.85
-6.84
-10.88
-13.21
-13.23
-10.61
-5.50
1.49
9.39
17.09
23.59
28.22
30.74
31.32
30.41
28.57
26.26
23.78
21.14
18.17
14.60
10.29
5.35
0.27
-4.21
-7.31
-8.39
-7.20
-3.94
0.73
5.90
10.58
14.02
15.70
15.40
13.24
9.57
5.01
0.32
-3.70
-6.40
-7.39
-6.63
-4.31
-0.68
4.04
9.73
16.30
23.58
31.27
38.89
45.92
51.85
56.31
58.96
59.54
57.81
53.52
46.53
36.83
24.65
10.49
-4.93
-20.76
-36.02
-49.68
-60.88
-69.05
-74.13
-76.63
-77.50
-77.93
-78.94
-81.08
-84.28
-87.87
-90.81
-91.95
-90.29
-85.09
-75.98
-62.99
-46.63
-27.84
-8.00
11.29
28.41
42.10
51.71
57.28
59.51
59.46
58.26
56.83
55.77
55.34
55.69
56.87
58.95
61.89
65.49
69.27
72.59
74.65
74.70
72.05
66.21
56.88
44.13
28.48
10.97
-6.88
-23.31
-36.61
-45.48
-49.28
-48.07
-42.46
-33.53
-22.62
-11.17
-0.70
7.33
11.72
11.73
7.45
-0.18
-9.48
-18.46
-25.38
-29.18
-29.70
-27.53
-23.72
-19.28
-15.03
-11.46
-8.73
-6.81
-5.52
-4.57
-3.56
-2.15
-0.10
2.61
5.71
8.76
11.23
12.68
12.97
12.26
10.98
9.70
8.90
8.89
9.70
11.17
12.96
14.68
15.92
16.34
15.71
13.92
10.97
7.04
2.40
-2.54
-7.28
-11.33
-14.39
-16.41
-17.69
-18.82
-20.49
-23.32
-27.67
-33.55
-40.55
-47.90
-54.48
-59.03
-60.37
-57.73
-50.97
-40.73
-28.25
-15.00
-2.33
8.85
18.16
25.58
31.26
35.26
37.61
38.36
37.66
35.82
33.23
30.21
27.02
23.81
20.75
17.99
15.70
13.91
12.43
10.90
8.84
5.86
1.92
-2.66
-7.25
-11.15
-13.85
-15.13
-15.04
-13.83
-11.86
-9.46
-6.95
-4.65
-2.89
-2.03
-2.32
-3.86
-6.56
-10.13
-14.18
-18.27
-21.93
-24.65
-25.95
-25.40
-22.74
-18.00
-11.52
-3.88
4.22
12.13
19.41
25.74
30.91
34.79
37.29
38.40
38.15
36.62
33.88
30.07
25.23
19.55
13.39
7.30
1.84
-2.60
-6.05
-8.92
-11.84
-15.39
-19.81
-24.81
-29.69
-33.53
-35.44
-34.84
-31.60
-26.05
-18.98
-11.50
-4.75
0.28
3.12
3.92
3.23
1.76
0.09
-1.49
-2.93
-4.17
-5.06
-5.26
-4.43
-2.50
0.20
3.17
5.88
8.15
10.15
12.19
14.50
16.97
19.23
20.86
21.71
21.92
21.78
21.50
20.96
19.79
17.58
14.08
9.48
4.32
-0.66
-4.77
-7.60
-9.17
-9.83
-10.09
-10.32
-10.44
-9.85
-7.63
-3.03
4.11
12.94
21.76
28.41
30.94
28.21
20.20
8.03
-6.35
-20.63
-32.70
-41.07
-45.14
-45.13
-41.97
-36.89
-31.12
-25.65
-21.15
-17.86
-15.74
-14.45
-13.45
-12.24
-10.39
-7.76
-4.45
-0.72
3.15
6.96
10.66
14.23
17.68
20.93
23.84
26.25
28.05
29.17
29.56
29.27
28.36
26.96
25.33
23.83
22.90
23.07
24.77
28.28
33.56
40.18
47.29
53.73
58.19
59.52
57.12
51.05
42.03
31.22
19.73
8.25
-3.07
-14.57
-26.60
-39.27
-52.07
-63.94
-73.42
-78.99
-79.44
-74.22
-63.72
-49.32
-33.29
-18.34
-7.05
-1.27
-1.64
-7.53
-17.22
-28.38
-38.51
-45.42
-47.39
-43.42
-33.39
-18.17
0.31
19.24
35.41
45.84
48.57
43.20
31.05
14.87
-1.80
-15.43
-23.26
-23.81
-17.15
-4.88
10.28
25.02
36.13
41.22
39.15
30.36
16.73
1.13
-13.23
-23.60
-28.28
-26.99
-20.80
-11.75
-2.28
5.42
9.78
10.21
7.03
1.36
-5.23
-11.04
-14.80
-15.96
-14.84
-12.52
-10.40
-9.74
-11.21
-14.75
-19.53
-24.30
-27.74
-28.78
-26.89
-22.11
-15.04
-6.63
1.98
9.74
15.86
19.91
21.88
22.13
21.33
20.21
19.39
19.24
19.73
20.54
21.20
21.34
20.72
19.35
17.33
14.79
11.81
8.44
4.75
0.85
-3.12
-7.07
-11.02
-15.14
-19.61
-24.48
-29.63
-34.68
-39.12
-42.39
-44.01
-43.61
-41.00
-36.25
-29.70
-22.08
-14.41
-7.82
-3.37
-1.72
-3.07
-7.09
-13.10
-20.15
-27.24
-33.39
-37.73
-39.58
-38.58
-34.75
-28.48
-20.44
-11.46
-2.34
6.18
13.50
19.14
22.71
24.01
23.08
20.30
16.23
11.50
6.72
2.34
-1.29
-3.86
-5.10
-4.68
-2.39
1.73
7.34
13.82
20.40
26.36
31.22
34.88
37.51
39.46
41.05
42.39
43.39
43.75
43.24
41.86
39.89
37.85
36.19
35.08
34.29
33.25
31.26
27.74
22.45
15.53
7.49
-0.97
-9.05
-16.08
-21.50
-24.96
-26.28
-25.40
-22.32
-17.10
-9.97
-1.39
7.78
16.50
23.77
28.91
31.77
32.62
31.95
30.08
27.01
22.50
16.28
8.33
-0.97
-10.86
-20.46
-28.92
-35.54
-39.89
-41.71
-40.99
-37.95
-33.15
-27.32
-21.35
-16.11
-12.24
-10.06
-9.48
-10.19
-11.62
-13.31
-14.90
-16.22
-17.30
-18.17
-18.91
-19.62
-20.48
-21.66
-23.31
-25.29
-27.05
-27.73
-26.36
-22.29
-15.45
-6.45
3.73
14.04
23.65
32.08
39.06
44.42
47.97
49.55
49.14
46.92
43.29
38.72
33.62
28.25
22.74
17.22
11.96
7.38
3.95
1.96
1.35
1.59
1.81
1.15
-0.96
-4.61
-9.43
-14.75
-19.89
-24.31
-27.70
-29.89
-30.72
-30.06
-27.83
-24.05
-18.95
-12.96
-6.59
-0.48
4.66
8.15
9.47
8.53
5.86
2.66
0.50
0.87
4.54
11.25
19.73
28.06
34.35
37.27
36.31
31.70
24.10
14.24
2.75
-9.82
-22.86
-35.46
-46.32
-53.94
-56.89
-54.15
-45.48
-31.50
-13.65
5.97
24.98
41.12
52.58
58.27
57.81
51.39
39.51
22.87
2.39
-20.53
-43.84
-64.81
-80.45
-88.20
-86.70
-76.21
-58.60
-36.81
-14.09
6.72
23.60
35.36
41.47
41.90
37.00
27.70
15.57
2.82
-8.04
-14.75
-15.93
-11.53
-2.76
8.25
19.19
28.26
34.55
38.03
39.21
38.78
37.27
35.02
32.24
29.12
25.88
22.73
19.76
16.94
14.23
11.59
9.17
7.16
5.74
5.01
4.96
5.46
6.26
7.01
7.19
6.31
3.99
0.16
-4.88
-10.61
-16.39
-21.68
-26.05
-29.16
-30.74
-30.59
-28.73
-25.52
-21.65
-17.91
-14.93
-12.97
-11.93
-11.48
-11.30
-11.22
-10.99
-10.35
-8.83
-5.91
-1.27
4.97
12.24
19.66
26.23
31.20
34.07
34.64
32.87
28.90
23.05
15.91
8.30
1.19
-4.52
-8.21
-9.66
-9.15
-7.36
-5.23
-3.76
-3.80
-5.87
-10.07
-16.03
-22.98
-29.93
-35.93
-40.21
-42.32
-42.06
-39.37
-34.26
-26.84
-17.40
-6.55
4.72
15.21
23.75
29.45
31.90
31.07
27.27
20.92
12.47
2.51
-8.23
-18.89
-28.46
-35.92
-40.40
-41.21
-38.09
-31.20
-21.12
-8.73
4.86
18.58
31.46
42.68
51.67
57.92
61.07
61.01
57.89
52.18
44.66
36.21
27.63
19.54
12.30
6.04
0.84
-3.26
-6.20
-7.91
-8.40
-7.86
-6.61
-5.13
-3.94
-3.50
-4.10
-5.83
-8.59
-12.09
-15.96
-19.72
-22.89
-24.96
-25.51
-24.30
-21.35
-17.01
-11.90
-6.84
-2.57
0.34
1.64
1.45
0.16
-1.67
-3.45
-4.66
-4.87
-3.67
-0.72
4.27
11.46
20.69
31.48
43.00
54.23
64.19
72.28
78.41
82.99
86.73
90.29
94.05
97.88
101.30
103.59
104.12
102.59
99.15
94.48
89.64
85.87
84.20
85.08
88.01
91.45
93.08
90.30
81.02
64.21
40.27
10.87
-21.59
-54.65
-86.35
-115.41
-141.07
-162.66
-179.23
-189.55
-192.45
-187.29
-174.48
-155.64
-133.38
-110.79
-90.91
-76.14
-67.93
-66.63
-71.47
-80.82
-92.44
-103.85
-112.70
-117.14
-115.99
-108.82
-95.88
-77.95
-56.18
-31.95
-6.75
17.88
40.48
59.72
74.54
84.18
88.18
86.38
79.01
66.75
50.88
33.17
15.72
0.51
-10.94
-17.88
-20.30
-18.74
-14.11
-7.48
-0.03
6.99
12.45
15.54
15.95
13.96
10.31
5.83
1.29
-2.90
-6.64
-10.04
-13.20
-16.17
-18.86
-21.09
-22.71
-23.67
-24.06
-24.10
-24.04
-24.09
-24.31
-24.58
-24.60
-23.93
-22.17
-19.11
-14.87
-10.01
-5.34
-1.80
-0.07
-0.32
-2.16
-4.75
-7.07
-8.40
-8.54
-7.90
-7.26
-7.42
-8.67
-10.60
-11.89
-10.54
-4.41
8.10
27.30
51.70
77.89
101.21
116.87
121.34
113.42
94.53
68.15
38.62
9.88
-15.41
-35.98
-51.71
-62.93
-70.04
-73.36
-73.23
-70.14
-64.80
-57.95
-50.17
-41.77
-32.88
-23.65
-14.53
-6.26
0.26
4.34
5.82
5.24
3.77
2.72
3.15
5.45
9.30
13.83
18.06
21.22
22.90
23.20
22.60
21.80
21.53
22.37
24.56
27.98
32.18
36.40
39.92
42.13
42.75
41.74
39.27
35.52
30.63
24.75
18.05
10.92
3.89
-2.37
-7.28
-10.52
-12.17
-12.64
-12.53
-12.43
-12.73
-13.57
-14.85
-16.34
-17.75
-18.85
-19.47
-19.57
-19.17
-18.39
-17.32
-15.98
-14.25
-11.91
-8.80
-4.88
-0.32
4.47
8.99
12.68
15.07
15.89
15.10
12.92
9.71
5.92
2.00
-1.72
-5.06
-7.95
-10.35
-12.29
-13.77
-14.86
-15.65
-16.31
-16.97
-17.68
-18.39
-18.98
-19.27
-19.11
-18.39
-17.07
-15.13
-12.62
-9.60
-6.34
-3.16
-0.41
1.66
3.03
3.82
4.36
4.98
6.00
7.66
10.10
13.22
16.73
20.18
23.05
25.12
26.58
28.11
30.61
34.98
41.63
50.39
60.49
70.72
79.81
86.75
91.12
93.15
93.77
94.30
95.95
99.28
103.82
108.12
110.26
108.60
102.32
91.76
78.28
63.68
49.42
36.17
23.84
12.08
0.93
-9.06
-16.73
-20.86
-20.76
-16.82
-10.59
-4.19
0.15
0.62
-4.76
-17.43
-37.65
-63.88
-92.86
-120.46
-142.96
-158.63
-168.45
-176.97
-188.94
-206.24
-226.13
-242.03
-246.33
-233.17
-200.84
-152.19
-95.67
-40.64
5.92
40.72
63.25
73.80
72.93
61.24
39.94
8.54
-31.86
-77.56
-123.15
-163.93
-198.17
-226.93
-253.13
-263.47
-250.00
-214.29
-166.98
-119.16
-76.34
-39.82
-8.94
16.87
38.39
54.79
67.56
81.28
101.06
131.29
170.68
213.82
252.50
278.46
283.86
266.36
230.51
185.76
141.78
104.20
75.35
51.88
29.57
2.48
-32.33
-72.49
-111.01
-139.60
-151.86
-142.06
-107.45
-49.07
27.31
113.95
202.90
286.59
357.88
396.52
388.84
338.43
265.03
190.07
126.36
77.08
39.47
8.65
-19.50
-44.55
-64.07
-76.70
-84.04
-89.38
-95.63
-104.05
-114.16
-125.76
-134.95
-138.51
-136.18
-130.59
-124.91
-120.48
-116.39
-110.38
-97.47
-76.77
-49.94
-21.02
4.71
23.02
32.45
34.43
32.01
28.20
24.90
22.55
20.04
15.70
8.64
-0.67
-10.81
-20.14
-27.11
-30.19
-27.63
-18.36
-3.09
15.09
31.24
40.35
39.54
29.49
13.95
-1.83
-13.60
-19.80
-21.58
-21.34
-21.17
-22.02
-23.87
-26.31
-28.63
-29.68
-27.70
-20.86
-8.09
9.83
29.96
47.88
59.21
61.40
54.50
40.96
24.50
8.83
-3.27
-10.07
-10.76
-5.25
5.86
20.74
36.36
48.80
54.47
51.16
39.41
22.15
3.61
-11.97
-21.48
-23.40
-17.79
-6.12
8.72
22.80
31.88
32.77
24.84
10.48
-5.88
-19.62
-27.96
-31.03
-30.93
-30.02
-29.72
-29.76
-28.86
-26.07
-21.29
-15.15
-8.56
-2.07
4.52
11.35
18.28
24.83
30.23
34.05
36.47
38.45
41.30
46.11
52.80
60.07
65.99
68.73
67.98
64.78
61.67
61.70
66.71
76.12
87.32
96.93
102.38
103.57
101.85
99.48
98.47
99.83
103.37
108.59
115.24
123.04
131.97
140.80
147.95
151.87
151.56
146.73
137.72
124.81
107.07
88.86
71.44
54.93
38.65
21.28
1.35
-22.18
-49.53
-79.97
-111.81
-143.95
-175.44
-205.83
-235.37
-265.04
-296.14
-330.07
-367.61
-407.92
-448.44
-484.08
-508.04
-513.85
-497.62
-459.39
-403.22
-335.78
-264.22
-194.82
-131.66
-76.74
-30.86
5.77
33.30
52.44
64.67
72.16
77.06
81.06
84.95
88.42
90.53
90.42
87.83
83.29
77.83
72.29
66.98
61.77
56.51
51.75
48.96
50.03
56.30
67.58
81.82
95.76
106.22
111.16
110.30
104.75
96.24
86.34
76.15
66.51
58.27
52.29
49.19
48.88
50.33
51.89
51.87
49.29
44.29
38.05
32.28
28.58
27.84
30.09
34.59
40.20
45.90
51.09
55.71
59.98
64.02
67.66
70.36
71.48
70.55
67.56
62.89
57.04
50.38
43.04
35.00
26.34
17.42
8.79
0.94
-5.89
-11.87
-17.35
-22.60
-27.69
-32.41
-36.45
-39.56
-41.62
-42.80
-43.50
-44.21
-45.44
-47.52
-50.47
-54.04
-57.73
-61.04
-63.64
-65.56
-67.09
-68.74
-70.97
-73.99
-77.50
-80.61
-81.93
-79.93
-73.44
-62.11
-46.68
-28.75
-10.35
6.64
20.93
31.87
39.25
43.06
43.37
40.28
34.17
25.75
16.06
6.35
-2.20
-8.63
-12.33
-13.08
-11.22
-7.60
-3.54
-0.63
-0.14
-2.52
-7.08
-12.11
-15.48
-15.55
-11.80
-5.11
2.64
9.42
13.81
15.45
14.95
13.35
11.49
9.61
7.29
3.69
-1.96
-9.99
-20.18
-31.72
-43.43
-53.80
-61.20
-64.04
-61.26
-52.75
-39.87
-25.47
-13.13
-5.78
-4.30
-6.89
-9.67
-8.42
-0.62
13.30
30.18
45.63
56.06
60.12
58.93
55.02
51.00
48.34
47.19
46.79
46.27
45.13
43.27
40.80
37.68
33.84
29.35
24.77
21.22
19.99
21.89
26.64
32.63
37.29
38.03
33.17
22.65
8.17
-7.48
-21.31
-31.11
-36.17
-37.30
-36.48
-36.08
-38.02
-43.06
-50.59
-58.86
-65.62
-68.79
-66.90
-59.24
-45.80
-27.22
-4.69
19.87
43.87
64.33
78.58
85.06
84.04
77.81
70.03
64.70
64.82
71.51
83.80
99.12
114.31
126.49
133.67
134.77
129.49
118.08
101.31
80.56
57.67
34.78
13.86
-3.73
-17.41
-27.17
-33.37
-36.48
-36.97
-35.41
-32.57
-29.34
-26.51
-24.68
-24.03
-24.41
-25.50
-26.93
-28.55
-30.43
-32.86
-36.18
-40.49
-45.43
-50.02
-52.89
-52.60
-48.19
-39.52
-27.32
-12.90
2.18
16.59
29.35
39.86
47.79
53.03
55.66
56.01
54.61
52.11
49.16
46.26
43.63
41.35
39.31
37.39
35.56
33.88
32.44
31.34
30.50
29.58
28.07
25.39
21.15
15.29
8.18
0.41
-7.26
-14.27
-20.36
-25.61
-30.30
-34.74
-39.03
-43.12
-46.88
-50.11
-52.73
-54.80
-56.46
-57.98
-59.68
-61.91
-64.84
-68.27
-71.47
-73.23
-72.17
-67.16
-57.80
-44.56
-28.67
-11.74
4.69
19.38
31.48
40.43
45.93
47.83
46.21
41.46
34.34
25.91
17.47
10.36
5.75
4.36
6.19
10.53
16.13
21.60
25.87
28.51
29.80
30.49
31.40
33.04
35.21
36.92
36.44
31.77
21.32
4.64
-17.19
-41.72
-65.72
-86.25
-101.33
-110.26
-113.40
-111.70
-106.21
-98.07
-88.38
-78.30
-68.83
-60.50
-53.20
-46.16
-38.32
-28.69
-16.79
-2.85
12.21
26.99
40.03
50.18
56.94
60.49
61.52
60.82
58.98
56.23
52.60
48.16
43.21
38.30
34.04
30.98
29.28
28.74
28.83
28.80
27.90
25.55
21.60
16.29
10.27
4.38
-0.80
-5.06
-8.79
-12.68
-17.56
-23.86
-31.39
-39.20
-45.81
-49.53
-49.00
-43.65
-33.91
-21.21
-7.65
4.52
13.39
17.88
17.98
14.76
9.84
4.82
0.58
-3.02
-6.82
-11.53
-16.80
-20.69
-19.88
-10.89
8.53
38.05
74.38
111.72
143.26
162.93
167.08
155.43
130.98
98.85
64.50
32.13
3.71
-20.86
-42.67
-62.43
-79.48
-91.51
-95.21
-87.60
-67.42
-36.17
1.76
39.86
71.02
89.28
91.26
76.80
48.68
11.54
-29.38
-69.25
-104.32
-132.17
-151.70
-162.90
-166.53
-163.71
-155.31
-141.80
-123.17
-99.39
-71.11
-40.15
-9.50
17.16
36.45
46.41
46.95
39.80
27.74
13.71
0.06
-11.79
-21.12
-27.68
-31.37
-32.10
-29.90
-25.05
-18.18
-10.19
-2.22
4.69
9.68
12.33
12.61
10.87
7.67
3.68
-0.29
-3.46
-5.13
-4.90
-2.81
0.58
4.33
7.49
9.30
9.50
8.17
5.66
2.33
-1.50
-5.51
-9.40
-12.88
-15.81
-18.27
-20.41
-22.30
-23.62
-23.55
-21.04
-15.24
-6.02
5.79
18.58
30.43
39.74
45.60
47.96
47.36
44.63
40.56
35.78
30.80
26.09
22.10
19.30
18.06
18.54
20.56
23.67
27.12
30.13
31.98
32.24
30.81
27.96
24.21
20.24
16.70
13.92
11.76
9.55
6.31
1.27
-5.64
-13.47
-20.38
-24.23
-23.41
-17.49
-7.54
4.21
14.92
22.03
23.82
19.90
11.24
-0.01
-11.07
-19.30
-22.98
-22.04
-18.12
-14.06
-12.77
-15.96
-23.25
-32.17
-38.90
-39.69
-32.28
-16.75
4.46
27.19
46.98
60.37
65.86
64.10
57.41
48.63
40.07
32.63
25.81
18.16
8.34
-4.21
-18.85
-33.79
-46.44
-53.80
-53.04
-42.12
-20.81
8.68
41.43
70.63
89.33
92.44
78.43
49.64
11.51
-29.33
-66.88
-97.00
-117.68
-128.47
-129.57
-121.18
-103.46
-77.03
-43.84
-7.55
26.79
53.99
70.23
74.32
67.97
54.92
39.41
24.74
12.66
3.67
-2.13
-4.49
-2.92
2.74
11.77
22.23
31.52
37.24
38.17
34.62
28.25
21.09
14.73
9.80
5.99
2.64
-0.84
-4.60
-8.40
-11.87
-14.93
-17.76
-20.78
-24.36
-28.58
-33.24
-37.91
-42.04
-45.18
-46.99
-47.41
-46.69
-45.51
-44.72
-45.07
-46.78
-49.12
-50.61
-49.33
-43.65
-32.87
-17.62
0.44
19.08
36.13
50.09
60.21
66.47
69.34
69.46
67.44
63.84
59.17
54.03
49.24
45.64
43.88
44.15
45.97
48.36
50.19
50.63
49.47
47.09
44.16
41.22
38.43
35.56
32.30
28.55
24.58
20.90
18.05
16.27
15.30
14.52
13.21
10.91
7.72
4.31
1.69
0.78
1.49
3.34
5.83
8.36
10.36
11.58
12.56
14.63
19.65
28.91
43.28
63.02
87.28
114.07
140.82
165.46
186.90
205.18
219.88
231.81
243.15
256.14
271.39
287.40
301.07
308.51
306.53
289.93
258.04
215.97
171.15
128.96
91.66
59.54
32.11
9.01
-17.77
-52.12
-90.77
-128.09
-161.85
-192.93
-222.69
-251.39
-278.40
-315.41
-367.99
-430.26
-491.81
-546.86
-594.16
-633.30
-662.92
-681.29
-703.66
-738.31
-779.51
-816.15
-843.71
-864.59
-883.74
-905.73
-831.22
-632.05
-368.70
-123.26
69.94
215.08
324.93
407.99
468.64
510.64
522.74
503.39
465.73
427.14
396.31
373.73
357.40
346.52
341.67
331.16
309.20
280.50
253.28
229.91
207.40
181.99
152.72
122.32
88.28
54.50
28.52
16.54
18.02
27.54
39.81
52.12
64.16
72.37
74.26
69.52
58.80
42.51
21.75
-0.35
-18.90
-28.92
-28.59
-18.29
-0.36
21.51
42.93
59.52
68.71
71.13
69.08
64.93
60.01
54.42
47.77
39.92
31.40
23.46
17.48
14.23
13.50
14.23
15.05
14.91
13.47
10.94
7.90
4.71
1.22
-2.95
-7.95
-13.38
-18.47
-22.54
-25.44
-27.67
-30.06
-33.30
-37.51
-41.90
-45.34
-46.98
-46.68
-45.05
-42.99
-40.99
-39.06
-36.84
-33.97
-30.72
-28.13
-27.60
-30.29
-36.40
-44.70
-53.18
-59.69
-62.59
-60.99
-54.81
-44.55
-31.25
-16.49
-1.89
10.63
19.40
23.51
23.06
19.08
13.05
6.25
-0.59
-6.74
-12.01
-16.34
-19.73
-22.39
-24.75
-27.20
-29.42
-33.18
-37.15
-38.61
-34.51
-22.91
-4.16
18.73
40.81
56.81
62.73
57.43
42.03
19.31
-7.36
-34.70
-59.93
-80.84
-95.79
-103.97
-105.29
-100.94
-93.01
-83.98
-75.98
-70.50
-68.20
-69.19
-73.12
-79.02
-85.58
-91.02
-93.44
-91.09
-83.02
-69.42
-51.66
-31.86
-12.20
5.55
20.43
32.19
41.12
47.65
52.17
54.98
56.44
57.09
57.53
58.28
59.57
61.42
63.63
66.06
68.73
71.84
75.57
79.88
84.36
88.18
90.35
90.03
86.82
80.95
73.27
64.92
57.07
50.55
45.63
42.09
39.29
36.51
33.14
28.88
23.80
18.24
12.66
7.47
2.83
-1.37
-5.47
-9.92
-15.03
-20.74
-26.53
-31.37
-34.03
-33.41
-28.94
-20.76
-9.67
3.10
16.35
28.97
40.16
49.29
55.92
59.77
60.92
59.85
57.39
54.60
52.37
51.27
51.39
52.45
53.94
55.39
56.44
57.00
57.08
56.74
56.00
54.78
52.99
50.58
47.64
44.35
40.97
37.73
34.75
32.03
29.50
26.97
24.18
20.85
16.76
11.91
6.62
1.49
-2.83
-5.92
-7.82
-9.16
-10.88
-13.91
-18.79
-25.39
-32.88
-39.89
-44.79
-46.12
-42.96
-35.22
-23.72
-10.05
3.93
16.55
26.74
34.10
38.82
41.34
42.17
41.79
40.64
39.20
37.89
37.05
36.90
37.42
38.46
39.82
41.20
42.34
43.04
43.21
42.91
42.30
41.50
40.55
39.32
37.58
35.17
32.11
28.65
25.11
21.78
18.75
15.95
13.16
10.15
6.80
3.16
-0.65
-4.43
-8.06
-11.46
-14.71
-17.95
-21.34
-25.03
-29.08
-33.44
-37.88
-41.88
-44.67
-45.37
-43.18
-37.81
-29.56
-19.35
-8.49
1.75
10.43
17.08
21.62
24.25
25.23
24.87
23.53
21.61
19.56
17.76
16.49
15.83
15.68
15.84
16.02
15.99
15.61
14.85
13.78
12.49
11.04
9.45
7.70
5.79
3.76
1.70
-0.30
-2.14
-3.78
-5.26
-6.69
-8.23
-10.04
-12.21
-14.68
-17.21
-19.43
-20.98
-21.67
-21.62
-21.25
-21.14
-21.83
-23.66
-26.56
-30.06
-33.37
-35.53
-35.67
-33.19
-28.02
-20.60
-11.82
-2.75
5.66
12.77
18.32
22.35
25.05
26.59
27.16
26.95
26.25
25.47
24.96
24.96
25.45
26.18
26.76
26.81
26.05
24.35
21.69
18.11
13.73
8.70
3.18
-2.53
-8.08
-13.04
-17.08
-19.99
-21.86
-22.99
-23.90
-25.17
-27.19
-30.13
-33.82
-37.88
-41.71
-44.81
-46.79
-47.60
-47.59
-47.40
-47.81
-49.37
-52.10
-55.30
-57.65
-57.59
-53.83
-45.89
-34.30
-20.49
-6.31
6.51
16.78
24.08
28.67
31.14
32.20
32.40
32.12
31.61
31.09
30.70
30.58
30.73
31.04
31.26
31.15
30.57
29.48
28.01
26.28
24.34
22.09
19.36
16.05
12.25
8.22
4.35
0.93
-1.95
-4.48
-6.95
-9.70
-12.91
-16.56
-20.49
-24.38
-27.94
-30.98
-33.43
-35.38
-37.10
-38.96
-41.28
-44.17
-47.50
-50.98
-54.15
-56.42
-57.09
-55.55
-51.50
-45.11
-37.02
-28.26
-20.09
-13.65
-9.70
-8.49
-9.96
-13.80
-19.45
-25.89
-31.86
-36.23
-38.34
-38.23
-36.57
-34.52
-33.38
-33.75
-34.86
-35.16
-33.39
-29.34
-23.92
-18.74
-15.62
-16.31
-20.94
-27.17
-31.23
-29.94
-21.97
-8.03
9.93
28.85
44.88
55.84
62.93
70.05
81.63
101.15
130.22
167.62
207.69
239.44
250.53
232.38
182.88
106.21
11.57
-89.32
-180.77
-240.68
-256.96
-237.19
-199.34
-157.71
-118.65
-83.56
-52.65
-26.62
-7.09
3.36
4.14
-1.63
-8.50
-12.05
-10.48
-4.41
4.10
12.25
16.75
15.92
11.20
5.91
2.94
3.46
7.05
12.38
17.66
20.80
20.74
18.43
16.04
15.47
17.48
21.77
27.41
33.11
37.42
39.43
39.27
37.75
35.67
33.22
30.11
25.83
19.94
12.30
3.29
-6.07
-14.40
-20.57
-24.17
-25.57
-25.74
-25.77
-26.43
-28.02
-30.24
-32.24
-33.12
-32.36
-29.97
-26.65
-23.52
-21.94
-23.17
-27.47
-33.36
-37.54
-35.72
-24.22
-1.85
29.06
62.76
91.58
108.69
110.58
98.01
75.26
47.95
20.30
-5.44
-28.12
-48.63
-68.85
-90.14
-112.14
-132.45
-147.33
-153.17
-148.05
-132.81
-110.99
-87.18
-65.13
-46.40
-29.96
-12.93
8.31
36.91
74.49
119.99
169.29
215.20
248.83
262.48
253.07
224.60
187.21
152.88
129.88
119.25
114.92
107.47
89.25
57.84
17.20
-25.17
-62.68
-92.31
-114.51
-131.36
-144.90
-156.28
-166.55
-175.69
-183.33
-189.67
-194.96
-198.34
-197.68
-190.50
-175.02
-151.67
-120.51
-81.42
-36.18
10.65
52.57
82.30
93.46
82.57
49.75
2.41
-46.89
-85.91
-106.50
-105.39
-83.63
-45.43
10.47
70.22
114.96
137.23
142.01
136.82
126.25
111.94
94.54
75.41
55.98
40.11
31.89
32.05
37.39
43.16
45.30
42.19
34.63
24.31
14.82
10.07
11.47
17.21
23.72
26.99
23.77
12.16
-8.16
-34.35
-60.94
-82.27
-94.58
-96.93
-91.29
-81.52
-72.26
-65.37
-60.33
-54.61
-45.64
-32.56
-16.60
-0.44
13.09
22.04
26.04
25.95
23.10
18.54
12.65
5.55
-2.58
-11.15
-19.26
-25.78
-30.16
-32.49
-33.31
-33.41
-33.46
-33.85
-34.74
-36.16
-37.81
-39.68
-41.81
-44.11
-46.37
-48.18
-49.11
-48.47
-47.84
-47.50
-47.37
-47.08
-46.03
-43.84
-40.50
-36.49
-32.58
-29.45
-27.07
-25.09
-22.93
-20.12
-16.61
-12.77
-9.16
-6.18
-3.75
-0.91
3.58
10.69
20.69
32.71
45.02
55.61
62.88
66.07
65.43
61.51
54.74
45.42
33.86
20.75
7.16
-5.80
-17.54
-28.09
-38.05
-47.93
-57.60
-66.14
-72.20
-74.61
-72.76
-66.80
-57.42
-45.67
-32.74
-19.77
-7.63
3.17
12.56
20.80
28.23
35.20
41.99
48.86
56.12
63.99
72.34
80.51
87.46
92.02
93.47
91.79
87.61
81.94
75.63
69.15
62.56
55.78
48.85
42.20
36.50
32.43
30.42
30.43
31.91
34.03
35.89
36.73
36.03
33.59
29.42
23.80
17.07
9.62
1.79
-6.23
-14.39
-22.61
-30.61
-37.79
-43.18
-45.70
-44.42
-38.99
-29.86
-18.28
-6.00
5.17
13.88
19.54
22.44
23.65
24.59
26.57
30.27
35.45
41.12
46.00
49.07
50.09
49.63
48.76
48.44
49.08
50.34
51.49
51.89
51.35
50.16
48.78
47.50
46.15
44.19
41.01
36.27
30.16
23.24
16.25
9.67
3.62
-2.12
-7.94
-14.15
-20.84
-27.90
-34.93
-41.28
-46.12
-48.55
-47.81
-43.57
-36.08
-26.17
-15.14
-4.34
5.11
12.56
17.77
20.84
22.01
21.56
19.84
17.28
14.45
11.97
10.46
10.29
11.60
14.14
17.44
20.80
23.59
25.25
25.51
24.38
22.16
19.35
16.45
13.80
11.47
9.26
6.83
3.90
0.37
-3.57
-7.59
-11.41
-14.97
-18.43
-22.08
-26.15
-30.67
-35.46
-40.18
-44.51
-48.15
-50.78
-51.89
-50.90
-47.28
-40.77
-31.62
-20.39
-7.76
5.88
20.40
35.62
50.79
64.41
74.43
79.01
77.31
69.99
58.94
46.60
34.98
25.14
17.16
10.71
5.43
1.32
-1.41
-2.67
-2.66
-1.93
-1.05
-0.46
-0.24
-0.24
-0.26
-0.21
-0.19
-0.37
-0.97
-2.05
-3.63
-5.63
-7.93
-10.32
-12.57
-14.48
-16.10
-17.76
-19.91
-22.88
-26.45
-29.75
-31.49
-30.45
-26.05
-18.62
-9.34
0.29
8.89
15.64
20.29
23.02
24.13
23.91
22.60
20.47
17.99
15.72
14.22
13.84
14.60
16.16
17.97
19.48
20.35
20.44
19.80
18.50
16.58
14.05
11.02
7.69
4.40
1.49
-0.83
-2.56
-3.91
-5.18
-6.63
-8.35
-10.27
-12.22
-13.97
-15.42
-16.61
-17.69
-18.95
-20.65
-22.96
-25.86
-29.08
-32.10
-34.15
-34.40
-32.15
-27.15
-19.72
-10.80
-1.63
6.57
12.98
17.32
19.78
20.79
20.80
20.14
19.08
17.91
16.97
16.59
16.98
18.06
19.56
21.08
22.27
22.93
23.01
22.54
21.55
20.05
18.03
15.54
12.68
9.63
6.56
3.66
1.00
-1.41
-3.61
-5.69
-7.70
-9.62
-11.42
-13.07
-14.61
-16.20
-17.94
-19.93
-22.10
-24.39
-26.73
-29.13
-31.58
-33.92
-35.66
-36.00
-34.13
-29.54
-22.41
-13.61
-4.45
3.78
10.19
14.44
16.68
17.33
16.78
15.37
13.30
10.82
8.26
6.05
4.62
4.25
4.94
6.37
8.00
9.25
9.75
9.41
8.44
7.15
5.79
4.40
2.87
1.08
-1.02
-3.32
-5.65
-7.86
-9.89
-11.77
-13.57
-15.31
-16.97
-18.54
-20.04
-21.60
-23.39
-25.61
-28.38
-31.55
-34.65
-36.96
-37.64
-35.98
-31.69
-24.96
-16.52
-7.35
1.51
9.26
15.37
19.62
22.00
22.64
21.84
20.04
17.80
15.71
14.22
13.51
13.54
14.03
14.68
15.30
15.77
15.99
15.86
15.22
13.94
11.96
9.38
6.42
3.34
0.38
-2.32
-4.71
-6.82
-8.79
-10.77
-12.90
-15.27
-17.85
-20.53
-23.18
-25.68
-27.98
-30.07
-32.02
-33.93
-35.93
-38.08
-40.18
-41.71
-41.86
-39.75
-34.81
-27.09
-17.34
-6.81
3.20
11.66
18.05
22.30
24.63
25.33
24.77
23.31
21.38
19.48
17.98
17.15
17.03
17.51
18.30
19.09
19.53
19.36
18.46
16.92
15.01
13.06
11.34
9.90
8.61
7.26
5.71
4.03
2.43
1.16
0.29
-0.39
-1.24
-2.67
-4.81
-7.58
-10.65
-13.62
-16.22
-18.40
-20.25
-21.94
-23.64
-25.46
-27.49
-29.79
-32.24
-34.47
-35.82
-35.45
-32.65
-27.10
-19.12
-9.60
0.21
9.11
16.27
21.34
24.46
26.00
26.35
25.82
24.64
22.97
21.05
19.21
17.80
17.05
16.82
16.73
16.18
14.62
11.76
7.72
2.93
-2.06
-6.89
-11.38
-15.46
-18.87
-21.02
-21.01
-18.05
-11.80
-2.70
8.15
19.33
29.51
37.72
43.37
46.19
46.05
42.98
37.22
29.32
20.13
10.57
1.42
-6.85
-14.06
-20.28
-25.58
-29.85
-32.68
-33.44
-31.52
-26.70
-19.44
-10.87
-2.53
4.09
7.99
8.98
7.49
4.33
0.28
-4.07
-8.35
-12.32
-15.66
-18.08
-19.31
-19.26
-17.89
-15.07
-10.42
-3.35
6.55
19.07
33.00
46.26
56.50
61.89
61.80
56.86
48.50
38.23
27.11
15.68
4.23
-6.73
-16.40
-23.89
-28.68
-30.87
-31.23
-30.77
-30.38
-30.52
-31.26
-32.50
-34.14
-36.24
-38.83
-41.76
-44.57
-46.50
-46.67
-44.35
-39.26
-31.64
-22.24
-12.10
-2.38
5.94
12.23
16.24
18.07
18.07
16.69
14.45
11.86
9.41
7.48
6.34
6.06
6.52
7.45
8.47
9.24
9.49
9.10
8.19
6.98
5.72
4.60
3.63
2.67
1.51
-0.02
-1.96
-4.16
-6.43
-8.63
-10.80
-13.06
-15.56
-18.31
-21.15
-23.79
-25.96
-27.54
-28.64
-29.55
-30.59
-31.96
-33.72
-35.74
-37.72
-39.25
-39.80
-38.80
-35.81
-30.67
-23.60
-15.23
-6.42
1.96
9.20
14.88
18.88
21.28
22.33
22.27
21.40
20.06
18.62
17.51
17.04
17.38
18.40
19.71
20.79
21.18
20.69
19.47
17.84
16.14
14.50
12.76
10.64
7.92
4.69
1.28
-1.72
-3.86
-4.97
-5.31
-5.52
-6.32
-8.18
-11.11
-14.67
-18.19
-21.10
-23.28
-25.12
-27.48
-31.38
-37.67
-46.84
-59.03
-74.08
-91.36
-109.62
-126.88
-140.65
-148.60
-149.13
-141.73
-126.78
-104.89
-76.28
-40.73
1.86
50.39
101.91
151.84
194.96
226.92
245.38
250.33
243.55
227.78
205.83
180.24
153.11
126.24
101.08
78.75
59.72
43.89
30.67
19.31
9.11
-0.33
-9.05
-16.84
-23.29
-28.17
-31.56
-33.90
-35.83
-37.94
-40.49
-43.37
-46.18
-48.50
-50.12
-51.13
-51.81
-52.46
-53.29
-54.31
-55.49
-56.70
-57.88
-58.98
-59.98
-60.87
-61.54
-61.71
-60.82
-58.12
-52.92
-44.96
-34.64
-23.01
-11.46
-1.28
6.75
12.41
15.93
17.66
17.92
16.98
15.18
12.96
10.88
9.39
8.69
8.71
9.18
9.92
10.82
11.91
13.18
14.50
15.54
16.02
15.75
14.84
13.56
12.23
10.99
9.81
8.54
7.03
5.28
3.44
1.68
0.11
-1.28
-2.63
-4.10
-5.77
-7.66
-9.73
-11.88
-14.02
-16.05
-17.92
-19.63
-21.28
-23.02
-25.03
-27.43
-30.10
-32.65
-34.42
-34.64
-32.64
-28.10
-21.21
-12.68
-3.57
4.98
12.06
17.19
20.37
21.91
22.25
21.72
20.48
18.63
16.36
14.06
12.26
11.49
11.93
13.38
15.27
16.93
17.83
17.78
16.92
15.56
14.04
12.56
11.16
9.79
8.35
6.81
5.21
3.68
2.35
1.34
0.68
0.28
-0.03
-0.47
-1.27
-2.57
-4.39
-6.55
-8.70
-10.50
-11.69
-12.29
-12.68
-13.38
-14.91
-17.42
-20.61
-23.70
-25.70
-25.72
-23.30
-18.55
-12.09
-4.83
2.34
8.73
13.97
17.93
20.60
21.97
22.04
20.89
18.79
16.25
13.94
12.50
12.35
13.50
15.59
17.97
19.96
21.11
21.22
20.44
19.07
17.35
15.45
13.41
11.22
8.94
6.73
4.78
3.22
2.05
1.15
0.35
-0.56
-1.69
-3.13
-4.92
-7.04
-9.35
-11.62
-13.56
-14.97
-15.88
-16.56
-17.50
-19.23
-22.05
-25.85
-30.06
-33.67
-35.59
-34.86
-31.03
-24.28
-15.46
-5.77
3.54
11.51
17.68
22.04
24.88
26.50
27.06
26.55
24.99
22.54
19.66
16.99
15.14
14.38
14.53
15.01
15.08
14.22
12.26
9.43
6.26
3.25
0.75
-1.05
-2.14
-2.57
-2.40
-1.76
-0.81
0.26
1.24
2.01
2.51
2.74
2.65
2.10
0.90
-1.09
-3.84
-7.13
-10.60
-13.85
-16.68
-19.15
-21.55
-24.30
-27.67
-31.60
-35.61
-38.86
-40.31
-39.14
-34.97
-28.03
-19.16
-9.50
-0.18
7.93
14.32
18.86
21.57
22.60
22.12
20.43
17.98
15.31
13.00
11.46
10.85
11.09
11.90
12.91
13.78
14.24
14.15
13.54
12.54
11.38
10.23
9.14
8.06
6.81
5.28
3.49
1.59
-0.24
-1.84
-3.22
-4.51
-5.91
-7.57
-9.51
-11.65
-13.78
-15.73
-17.42
-18.85
-20.14
-21.46
-23.07
-25.16
-27.87
-31.16
-34.77
-38.14
-40.51
-41.07
-39.13
-34.42
-27.14
-18.06
-8.27
1.08
9.03
15.04
19.03
21.24
22.08
22.00
21.42
20.69
20.13
20.02
20.53
21.67
23.24
24.91
26.31
27.12
27.21
26.60
25.41
23.84
22.02
20.00
17.85
15.67
13.53
11.57
9.84
8.34
7.04
5.90
4.87
3.92
2.94
1.75
0.14
-1.94
-4.39
-6.82
-8.80
-9.98
-10.31
-10.07
-9.79
-10.04
-11.29
-13.77
-17.41
-21.80
-26.29
-29.99
-31.99
-31.56
-28.32
-22.42
-14.53
-5.68
2.98
10.45
16.08
19.63
21.28
21.43
20.55
19.04
17.20
15.26
13.48
12.15
11.53
11.75
12.74
14.16
15.56
16.48
16.67
16.14
15.11
13.91
12.82
11.96
11.22
10.36
9.14
7.53
5.72
4.08
2.91
2.28
1.95
1.47
0.47
-1.18
-3.34
-5.69
-7.94
-9.94
-11.69
-13.29
-14.88
-16.54
-18.35
-20.40
-22.70
-25.11
-27.27
-28.60
-28.47
-26.37
-22.05
-15.70
-7.93
0.37
8.21
14.75
19.49
22.32
23.45
23.27
22.13
20.31
18.08
15.77
13.78
12.57
12.44
13.44
15.24
17.22
18.73
19.30
18.84
17.59
16.04
14.60
13.47
12.50
11.38
9.86
7.88
5.65
3.51
1.74
0.41
-0.59
-1.52
-2.63
-4.09
-5.96
-8.21
-10.78
-13.47
-16.06
-18.33
-20.21
-21.75
-23.19
-24.83
-26.91
-29.51
-32.44
-35.21
-37.12
-37.36
-35.21
-30.38
-23.10
-14.18
-4.79
3.90
11.04
16.28
19.70
21.65
22.40
22.13
20.96
19.08
16.84
14.76
13.46
13.48
15.10
18.18
22.18
26.30
29.61
31.43
31.46
29.81
26.94
23.40
19.64
15.95
12.42
9.07
5.97
3.19
0.76
-1.37
-3.29
-5.14
-6.96
-8.80
-10.68
-12.67
-14.83
-17.12
-19.44
-21.56
-23.27
-24.50
-25.29
-25.87
-26.47
-27.29
-28.37
-29.64
-30.84
-31.58
-31.32
-29.45
-25.50
-19.30
-11.17
-1.87
7.57
16.06
22.78
27.29
29.63
30.13
29.34
27.75
25.77
23.64
21.52
19.51
17.71
16.22
15.00
14.01
13.12
12.22
11.28
10.37
9.61
9.08
8.79
8.60
8.37
7.91
7.12
6.01
4.64
3.15
1.60
0.04
-1.59
-3.33
-5.19
-7.14
-9.05
-10.84
-12.50
-14.11
-15.79
-17.60
-19.48
-21.26
-22.75
-23.89
-24.81
-25.79
-27.20
-29.21
-31.66
-33.93
-35.14
-34.37
-31.03
-25.09
-17.09
-8.07
0.82
8.60
14.67
18.86
21.29
22.24
22.02
20.89
19.17
17.20
15.39
14.10
13.60
13.94
14.92
16.18
17.36
18.16
18.45
18.23
17.59
16.59
15.26
13.58
11.56
9.29
6.94
4.69
2.67
0.93
-0.57
-1.91
-3.21
-4.56
-6.00
-7.53
-9.11
-10.68
-12.19
-13.60
-14.92
-16.21
-17.52
-18.96
-20.62
-22.53
-24.66
-26.91
-29.18
-31.40
-33.64
-35.91
-38.05
-39.65
-39.90
-37.94
-33.17
-25.71
-16.46
-6.97
1.12
6.57
8.70
7.38
2.81
-4.51
-13.54
-22.45
-28.74
-29.92
-24.57
-13.23
1.68
16.74
28.97
37.00
41.35
43.69
45.66
48.05
50.58
52.42
52.79
51.42
48.45
44.13
38.63
31.99
24.42
16.40
8.77
2.46
-1.80
-3.72
-3.54
-1.97
0.07
1.74
2.56
2.51
1.98
1.48
1.41
1.81
2.35
2.47
1.61
-0.56
-3.95
-8.08
-12.13
-15.10
-16.06
-14.44
-10.19
-3.89
3.35
10.23
15.63
18.87
19.87
18.96
16.76
13.85
10.65
7.42
4.41
1.83
-0.03
-0.91
-0.71
0.43
2.17
3.96
5.34
6.02
5.93
5.20
3.98
2.37
0.40
-1.91
-4.50
-7.16
-9.64
-11.70
-13.22
-14.20
-14.75
-15.05
-15.27
-15.52
-15.87
-16.39
-17.06
-17.80
-18.46
-18.94
-19.19
-19.32
-19.55
-20.13
-21.19
-22.77
-24.79
-27.13
-29.61
-31.92
-33.59
-33.94
-32.34
-28.45
-22.40
-14.83
-6.71
1.02
7.62
12.68
15.99
17.51
17.36
15.83
13.45
10.94
9.01
8.19
8.65
10.22
12.46
14.84
16.92
18.38
19.07
19.01
18.31
17.11
15.62
14.01
12.38
10.84
9.35
7.90
6.49
5.13
3.82
2.54
1.22
-0.21
-1.81
-3.60
-5.52
-7.54
-9.61
-11.67
-13.62
-15.40
-16.93
-18.27
-19.67
-21.39
-23.56
-26.04
-28.28
-29.48
-28.86
-25.95
-20.76
-13.81
-5.92
1.97
9.06
14.77
18.77
20.96
21.48
20.68
19.02
17.09
15.36
14.14
13.53
13.48
13.86
14.51
15.27
15.93
16.30
16.18
15.51
14.42
13.14
11.93
10.94
10.14
9.37
8.43
7.28
6.04
4.94
4.14
3.67
3.31
2.69
1.51
-0.42
-3.00
-6.01
-9.13
-12.15
-14.98
-17.66
-20.29
-22.93
-25.61
-28.29
-30.86
-33.16
-34.88
-35.55
-34.59
-31.41
-25.73
-17.71
-8.12
1.88
10.97
18.06
22.67
24.90
25.37
24.81
23.79
22.56
21.15
19.56
17.95
16.69
16.20
16.70
18.03
19.67
21.00
21.55
21.19
20.13
18.73
17.26
15.78
14.19
12.33
10.18
7.87
5.64
3.70
2.14
0.88
-0.20
-1.23
-2.26
-3.34
-4.53
-5.99
-7.89
-10.30
-13.14
-16.12
-18.92
-21.34
-23.38
-25.27
-27.30
-29.71
-32.45
-35.25
-37.55
-38.68
-37.95
-34.86
-29.24
-21.42
-12.23
-2.82
5.66
12.40
17.11
19.96
21.40
21.89
21.75
21.18
20.32
19.40
18.69
18.38
18.53
19.00
19.53
19.84
19.73
19.14
18.17
17.01
15.87
14.90
14.10
13.33
12.38
11.13
9.58
7.91
6.36
5.14
4.25
3.58
2.92
2.08
0.95
-0.53
-2.33
-4.41
-6.65
-8.93
-11.10
-13.09
-14.89
-16.58
-18.33
-20.36
-22.82
-25.76
-29.00
-32.03
-34.09
-34.28
-31.88
-26.70
-19.12
-10.09
-0.81
7.59
14.36
19.18
22.13
23.50
23.63
22.87
21.47
19.73
17.95
16.44
15.51
15.34
15.92
17.03
18.31
19.37
19.94
19.97
19.54
18.81
17.90
16.89
15.75
14.52
13.23
11.93
10.68
9.45
8.17
6.76
5.19
3.50
1.79
0.15
-1.37
-2.82
-4.29
-5.84
-7.51
-9.28
-11.07
-12.79
-14.40
-15.87
-17.25
-18.60
-20.04
-21.71
-23.77
-26.19
-28.71
-30.74
-31.44
-30.02
-26.01
-19.53
-11.30
-2.51
5.58
11.95
16.07
17.97
18.04
16.87
15.03
13.00
11.10
9.53
8.47
8.00
8.23
9.11
10.48
12.05
13.42
14.28
14.44
13.97
13.16
12.36
11.79
11.42
11.00
10.18
8.83
7.04
5.18
3.66
2.70
2.21
1.91
1.43
0.54
-0.72
-2.22
-3.76
-5.26
-6.67
-8.03
-9.32
-10.54
-11.68
-12.77
-13.93
-15.23
-16.76
-18.57
-20.66
-22.93
-25.09
-26.61
-26.80
-24.98
-20.82
-14.51
-6.78
1.27
8.55
14.26
18.07
20.06
20.57
19.94
18.46
16.41
14.16
12.15
10.84
10.56
11.39
13.10
15.23
17.23
18.61
19.07
18.55
17.19
15.29
13.19
11.17
9.42
7.96
6.68
5.40
4.05
2.66
1.34
0.22
-0.70
-1.57
-2.61
-3.99
-5.76
-7.81
-9.92
-11.90
-13.59
-14.93
-15.91
-16.58
-17.03
-17.48
-18.21
-19.51
-21.50
-24.02
-26.51
-28.18
-28.16
-25.85
-21.13
-14.38
-6.49
1.51
8.62
14.15
17.83
19.69
19.98
19.00
17.10
14.62
11.93
9.49
7.64
6.58
6.29
6.57
7.16
7.82
8.37
8.71
8.79
8.56
8.01
7.16
6.06
4.80
3.47
2.19
1.09
0.25
-0.36
-0.84
-1.35
-2.02
-2.82
-3.64
-4.28
-4.69
-4.97
-5.39
-6.24
-7.66
-9.61
-11.80
-13.93
-15.74
-17.13
-18.15
-19.00
-19.96
-21.32
-23.29
-25.80
-28.43
-30.40
-30.75
-28.66
-23.79
-16.51
-7.83
0.92
8.52
14.19
17.74
19.50
20.02
19.84
19.31
18.58
17.64
16.53
15.32
14.17
13.24
12.65
12.42
12.44
12.57
12.62
12.48
12.07
11.34
10.32
9.05
7.65
6.27
5.11
4.27
3.77
3.53
3.43
3.36
3.20
2.83
2.15
1.08
-0.33
-1.89
-3.37
-4.60
-5.66
-6.83
-8.43
-10.58
-13.07
-15.49
-17.43
-18.75
-19.62
-20.48
-21.72
-23.62
-26.17
-29.15
-32.07
-34.24
-34.80
-32.91
-28.10
-20.58
-11.27
-1.61
6.92
13.33
17.27
19.04
19.30
18.65
17.48
15.99
14.24
12.44
10.89
9.98
9.94
10.74
12.03
13.37
14.37
14.88
15.01
14.96
14.85
14.63
14.12
13.15
11.76
10.11
8.46
7.03
5.87
4.87
3.88
2.81
1.65
0.48
-0.63
-1.62
-2.51
-3.35
-4.24
-5.21
-6.29
-7.44
-8.62
-9.83
-11.08
-12.43
-13.97
-15.72
-17.64
-19.64
-21.68
-23.71
-25.79
-27.80
-29.45
-30.22
-29.49
-26.81
-22.11
-15.81
-8.68
-1.60
4.70
9.81
13.57
16.01
17.20
17.20
16.14
14.30
12.11
10.10
8.74
8.33
8.92
10.31
12.19
14.19
16.01
17.40
18.20
18.31
17.68
16.36
14.46
12.18
9.79
7.52
5.52
3.86
2.50
1.35
0.38
-0.46
-1.18
-1.84
-2.53
-3.35
-4.31
-5.35
-6.33
-7.15
-7.84
-8.55
-9.52
-10.93
-12.88
-15.27
-17.85
-20.26
-22.04
-22.71
-21.79
-18.97
-14.31
-8.27
-1.60
4.84
10.38
14.68
17.63
19.33
19.85
19.22
17.53
15.01
12.18
9.60
7.81
7.08
7.32
8.23
9.49
10.83
12.10
13.16
13.84
13.94
13.36
12.14
10.51
8.72
6.96
5.24
3.50
1.69
-0.13
-1.81
-3.26
-4.47
-5.56
-6.74
-8.19
-9.97
-12.05
-14.37
-16.86
-19.46
-22.05
-24.51
-26.75
-28.74
-30.63
-32.65
-35.02
-37.79
-40.67
-43.04
-44.06
-42.91
-39.03
-32.42
-23.65
-13.74
-3.94
4.65
11.32
15.83
18.43
19.65
19.99
19.85
19.43
18.81
18.06
17.31
16.76
16.53
16.64
16.88
17.02
16.88
16.40
15.74
15.07
14.51
14.06
13.63
13.12
12.49
11.70
10.72
9.46
7.86
5.94
3.80
1.64
-0.39
-2.22
-3.91
-5.62
-7.52
-9.72
-12.19
-14.79
-17.32
-19.57
-21.44
-22.96
-24.41
-26.18
-28.66
-31.99
-35.89
-39.59
-42.03
-42.12
-39.12
-32.93
-24.13
-13.88
-3.54
5.63
12.82
17.67
20.32
21.20
20.86
19.91
18.84
18.00
17.56
17.53
17.81
18.28
18.82
19.34
19.76
20.04
20.19
20.28
20.37
20.44
20.38
19.99
19.11
17.68
15.83
13.76
11.65
9.59
7.59
5.66
3.88
2.34
1.08
-0.02
-1.18
-2.65
-4.59
-6.97
-9.62
-12.30
-14.80
-17.01
-18.95
-20.69
-22.37
-24.18
-26.30
-28.89
-31.93
-35.08
-37.74
-39.02
-38.13
-34.56
-28.41
-20.33
-11.35
-2.57
5.15
11.36
15.96
19.03
20.69
21.11
20.44
18.94
17.00
15.09
13.65
13.00
13.17
14.01
15.18
16.28
17.05
17.38
17.36
17.12
16.84
16.58
16.31
15.98
15.47
14.71
13.65
12.34
10.86
9.38
8.02
6.81
5.64
4.25
2.34
-0.29
-3.56
-7.18
-10.67
-13.62
-15.88
-17.55
-18.97
-20.51
-22.45
-24.89
-27.78
-30.81
-33.56
-35.43
-35.79
-34.11
-30.07
-23.79
-15.75
-6.80
2.17
10.28
16.91
21.72
24.70
26.01
25.94
24.81
22.96
20.73
18.50
16.67
15.56
15.34
15.97
17.14
18.45
19.48
19.98
19.91
19.44
18.81
18.15
17.47
16.63
15.47
13.89
11.99
10.06
8.39
7.16
6.31
5.62
4.78
3.54
1.79
-0.48
-3.20
-6.21
-9.33
-12.33
-14.99
-17.20
-19.01
-20.69
-22.63
-25.21
-28.63
-32.83
-37.33
-41.35
-43.88
-43.95
-40.86
-34.45
-25.26
-14.43
-3.39
6.51
14.33
19.75
22.97
24.52
24.97
24.75
24.11
23.19
22.10
21.03
20.16
19.69
19.71
20.21
21.07
22.06
22.95
23.52
23.66
23.33
22.55
21.38
19.84
17.98
15.85
13.58
11.31
9.18
7.28
5.56
3.93
2.26
0.47
-1.44
-3.40
-5.34
-7.25
-9.16
-11.17
-13.35
-15.73
-18.27
-20.89
-23.55
-26.28
-29.18
-32.35
-35.65
-38.69
-40.74
-41.00
-38.73
-33.61
-25.86
-16.19
-5.68
4.49
13.31
20.10
24.59
26.85
27.19
26.09
24.07
21.64
19.26
17.26
15.87
15.23
15.33
16.02
17.03
18.02
18.67
18.77
18.31
17.40
16.35
15.41
14.75
14.30
13.81
12.92
11.38
9.19
6.62
4.16
2.27
1.19
0.79
0.68
0.34
-0.59
-2.18
-4.27
-6.60
-8.96
-11.28
-13.56
-15.79
-17.94
-20.03
-22.18
-24.73
-27.97
-31.98
-36.31
-39.97
-41.75
-40.58
-36.05
-28.54
-19.09
-9.09
0.17
7.79
13.34
16.78
18.36
18.45
17.48
15.85
13.90
11.93
10.19
8.94
8.38
8.61
9.59
11.10
12.82
14.45
15.77
16.67
17.13
17.14
16.68
15.74
14.37
12.69
10.81
8.87
6.98
5.30
3.91
2.93
2.35
2.03
1.67
0.95
-0.39
-2.38
-4.80
-7.25
-9.34
-10.84
-11.81
-12.56
-13.50
-14.96
-17.09
-19.72
-22.51
-24.93
-26.43
-26.49
-24.75
-21.07
-15.62
-8.94
-1.72
5.25
11.33
16.15
19.61
21.77
22.72
22.54
21.28
19.10
16.36
13.59
11.41
10.28
10.41
11.64
13.49
15.43
16.94
17.74
17.79
17.26
16.32
15.18
13.95
12.69
11.44
10.23
9.04
7.79
6.36
4.69
2.77
0.71
-1.30
-3.11
-4.69
-6.14
-7.64
-9.36
-11.34
-13.51
-15.71
-17.73
-19.42
-20.75
-21.80
-22.79
-24.04
-25.84
-28.34
-31.42
-34.62
-37.20
-38.24
-36.90
-32.72
-25.79
-16.82
-6.99
2.35
10.10
15.70
19.15
20.89
21.45
21.24
20.41
19.04
17.27
15.43
13.96
13.30
13.64
14.79
16.27
17.55
18.26
18.34
17.97
17.45
16.93
16.33
15.44
14.06
12.18
10.05
8.03
6.44
5.34
4.54
3.72
2.60
1.10
-0.62
-2.36
-3.91
-5.25
-6.50
-7.83
-9.37
-11.16
-13.12
-15.15
-17.16
-19.13
-21.05
-22.93
-24.80
-26.77
-29.04
-31.85
-35.22
-38.77
-41.63
-42.63
-40.66
-35.23
-26.66
-16.11
-5.09
4.98
13.21
19.30
23.38
25.75
26.66
26.28
24.79
22.49
19.81
17.24
15.23
14.07
13.92
14.66
16.04
17.65
19.11
20.10
20.46
20.22
19.49
18.39
16.95
15.17
13.09
10.92
9.00
7.63
6.96
6.80
6.77
6.37
5.31
3.58
1.46
-0.65
-2.44
-3.85
-5.04
-6.26
-7.68
-9.34
-11.17
-13.01
-14.73
-16.32
-17.84
-19.45
-21.37
-23.83
-26.96
-30.71
-34.71
-38.26
-40.39
-40.11
-36.78
-30.32
-21.36
-11.11
-1.00
7.66
14.04
17.92
19.62
19.65
18.59
16.81
14.55
12.09
9.81
8.21
7.70
8.44
10.18
12.38
14.39
15.77
16.43
16.53
16.35
16.07
15.65
14.92
13.72
12.00
9.94
7.87
6.13
4.97
4.37
4.13
3.89
3.38
2.46
1.22
-0.12
-1.32
-2.26
-2.97
-3.59
-4.35
-5.41
-6.83
-8.57
-10.49
-12.42
-14.21
-15.80
-17.29
-18.91
-20.96
-23.64
-26.87
-30.21
-32.90
-34.02
-32.76
-28.73
-22.13
-13.72
-4.59
4.12
11.58
17.34
21.39
23.93
25.25
25.61
25.29
24.57
23.85
23.57
24.09
25.58
27.96
30.92
34.04
37.01
39.68
42.13
44.53
47.04
49.70
52.39
54.88
57.01
58.74
60.22
61.75
63.62
65.96
68.70
71.51
73.97
75.72
76.61
76.77
76.58
76.46
76.64
77.12
77.55
77.48
76.44
74.18
70.58
65.73
59.58
52.05
42.96
32.13
19.52
5.29
-10.15
-26.18
-41.90
-56.26
-68.07
-76.22
-80.02
-79.50
-75.57
-69.81
-64.05
-59.65
-57.19
-56.33
-56.17
-55.78
-54.66
-52.86
-50.78
-48.80
-46.97
-45.00
-42.46
-39.12
-35.19
-31.24
-27.98
-25.88
-24.98
-24.89
-25.10
-25.29
-25.47
-26.00
-27.18
-29.10
-31.45
-33.68
-35.26
-35.97
-36.01
-35.89
-36.24
-37.46
-39.66
-42.60
-45.87
-49.09
-52.02
-54.59
-56.90
-59.04
-61.03
-62.74
-63.95
-64.54
-64.54
-64.21
-63.98
-64.34
-65.70
-68.30
-72.09
-76.55
-80.67
-82.95
-81.71
-75.57
-63.97
-47.56
-28.17
-8.31
9.57
23.75
33.58
39.42
42.14
42.67
41.66
39.47
36.31
32.60
28.96
26.18
24.88
25.15
26.53
28.14
29.05
28.64
26.89
24.36
21.83
20.04
19.22
19.18
19.37
19.24
18.41
16.78
14.43
11.44
8.07
4.97
3.40
5.16
11.80
23.77
39.80
56.96
71.69
81.08
83.89
80.70
73.25
63.36
52.20
40.13
27.22
13.86
0.97
-10.29
-19.11
-25.42
-29.90
-33.41
-36.43
-38.64
-38.97
-36.14
-29.32
-18.70
-5.52
8.33
20.98
31.17
38.39
42.86
45.09
45.61
44.85
43.12
40.74
38.11
35.75
34.11
33.48
33.83
34.77
35.71
36.02
35.17
32.95
29.46
25.03
20.20
15.51
11.44
8.32
6.26
5.17
4.72
4.39
3.58
1.85
-0.96
-4.59
-8.51
-12.17
-15.20
-17.63
-19.79
-22.17
-25.11
-28.66
-32.53
-36.19
-39.10
-40.94
-41.76
-41.87
-41.81
-42.09
-42.99
-44.54
-46.47
-48.38
-49.81
-50.30
-49.39
-46.74
-42.18
-35.97
-28.66
-21.09
-14.12
-8.27
-3.75
-0.48
1.69
2.89
3.17
2.66
1.62
0.42
-0.60
-1.33
-1.94
-2.94
-4.90
-8.30
-13.26
-19.25
-25.11
-29.27
-30.29
-27.45
-21.17
-12.93
-4.63
2.13
6.74
9.46
11.07
12.11
12.60
12.14
10.30
7.16
3.27
-0.53
-3.66
-6.08
-8.30
-11.00
-14.66
-19.33
-24.58
-29.80
-34.51
-38.53
-42.05
-45.49
-49.27
-53.66
-58.62
-63.78
-68.44
-71.68
-72.58
-70.51
-65.35
-57.62
-48.31
-38.54
-29.16
-20.57
-12.80
-5.73
0.54
5.66
9.09
10.52
10.14
8.77
7.52
7.40
8.85
11.59
14.89
17.93
20.25
21.84
23.00
23.97
24.69
24.75
23.65
21.17
17.53
13.41
9.62
6.82
5.25
4.77
4.93
5.26
5.44
5.37
5.14
4.87
4.54
3.97
2.83
0.83
-2.19
-6.06
-10.40
-14.74
-18.72
-22.27
-25.54
-28.90
-32.77
-37.49
-43.17
-49.52
-55.78
-60.78
-63.16
-61.84
-56.35
-47.11
-35.30
-22.50
-10.29
0.23
8.42
14.23
17.88
19.78
20.41
20.34
20.13
20.36
21.51
23.91
27.61
32.41
37.91
43.58
48.94
53.58
57.32
60.13
62.12
63.42
64.17
64.41
64.10
63.13
61.37
58.74
55.37
51.49
47.43
43.58
40.16
37.26
34.73
32.32
29.69
26.66
23.22
19.51
15.75
12.09
8.50
4.75
0.47
-4.66
-10.77
-17.68
-24.92
-31.65
-36.80
-39.17
-37.79
-32.25
-22.96
-11.14
1.43
12.92
21.98
27.99
31.10
31.92
31.13
29.34
26.90
24.12
21.39
19.26
18.21
18.58
20.30
22.89
25.68
27.91
29.09
29.05
27.93
26.05
23.77
21.37
18.96
16.50
13.81
10.76
7.39
3.93
0.76
-1.82
-3.79
-5.51
-7.50
-10.20
-13.69
-17.64
-21.49
-24.76
-27.29
-29.27
-31.09
-33.18
-35.86
-39.29
-43.56
-48.67
-54.45
-60.39
-65.51
-68.48
-67.85
-62.60
-52.51
-38.39
-21.98
-5.44
9.27
20.90
29.08
34.22
37.09
38.38
38.51
37.64
35.89
33.54
31.09
29.09
27.94
27.68
28.04
28.54
28.81
28.65
28.07
27.14
25.87
24.18
21.93
19.05
15.63
11.87
8.06
4.40
1.01
-2.10
-4.95
-7.61
-10.09
-12.43
-14.77
-17.29
-20.19
-23.53
-27.20
-30.87
-34.10
-36.55
-38.14
-39.13
-40.03
-41.41
-43.71
-47.05
-51.23
-55.67
-59.50
-61.64
-61.06
-56.93
-48.95
-37.51
-23.58
-8.64
5.78
18.37
28.31
35.36
39.75
42.02
42.81
42.70
42.10
41.31
40.57
40.17
40.35
41.28
42.82
44.57
45.98
46.55
46.07
44.65
42.64
40.42
38.20
35.99
33.67
31.17
28.54
25.94
23.58
21.53
19.79
18.25
16.75
15.14
13.26
10.99
8.27
5.20
1.98
-1.07
-3.72
-5.94
-7.99
-10.30
-13.33
-17.37
-22.50
-28.48
-34.85
-40.85
-45.45
-47.53
-46.13
-40.86
-32.18
-21.38
-10.19
-0.26
7.43
12.75
16.24
18.67
20.60
22.16
23.07
23.02
21.91
19.98
17.76
15.79
14.35
13.35
12.50
11.44
10.04
8.35
6.51
4.63
2.79
1.14
0.11
0.45
3.00
8.35
16.39
26.23
36.37
45.15
51.29
54.19
53.94
50.98
45.80
38.79
30.26
20.65
10.70
1.33
-6.61
-12.63
-16.86
-19.99
-22.99
-26.77
-31.84
-38.11
-44.95
-51.26
-55.68
-57.04
-54.53
-47.99
-38.03
-25.70
-12.39
0.62
12.25
21.73
28.67
33.02
35.02
35.17
34.13
32.57
31.08
30.05
29.66
29.90
30.55
31.31
31.78
31.65
30.67
28.83
26.25
23.18
19.92
16.76
13.86
11.26
8.91
6.62
4.25
1.75
-0.84
-3.31
-5.48
-7.22
-8.51
-9.46
-10.22
-10.96
-11.83
-12.98
-14.54
-16.60
-19.11
-21.96
-24.90
-27.65
-30.04
-32.11
-34.12
-36.50
-39.66
-43.65
-47.96
-51.44
-52.52
-49.72
-42.18
-30.10
-14.78
1.77
17.47
30.75
40.93
48.09
52.78
55.66
57.23
57.93
58.05
57.90
57.80
57.95
58.37
58.97
59.60
60.09
60.24
59.72
58.08
54.80
49.59
42.52
34.11
25.16
16.49
8.69
2.03
-3.45
-7.82
-11.21
-13.77
-15.77
-17.56
-19.50
-21.77
-24.27
-26.71
-28.73
-30.14
-31.03
-31.67
-32.34
-33.24
-34.35
-35.64
-37.10
-38.78
-40.73
-42.95
-45.36
-47.88
-50.38
-52.70
-54.55
-55.40
-54.57
-51.41
-45.58
-37.32
-27.43
-17.02
-7.22
1.14
7.57
11.96
14.41
15.12
14.42
12.76
10.65
8.61
7.05
6.22
6.14
6.64
7.45
8.24
8.72
8.64
7.85
6.32
4.15
1.58
-1.11
-3.72
-6.15
-8.39
-10.44
-12.24
-13.62
-14.41
-14.53
-14.17
-13.72
-13.62
-14.12
-15.14
-16.40
-17.56
-18.53
-19.49
-20.79
-22.59
-24.69
-26.57
-27.66
-27.69
-26.84
-25.72
-25.09
-25.55
-27.28
-30.05
-33.26
-36.06
-37.50
-36.66
-32.93
-26.24
-17.21
-6.98
3.05
11.67
18.08
21.95
23.38
22.73
20.50
17.32
13.87
10.79
8.52
7.21
6.73
6.74
6.89
6.95
6.83
6.51
5.95
5.05
3.66
1.64
-1.09
-4.46
-8.25
-12.12
-15.83
-19.25
-22.46
-25.68
-29.14
-32.94
-36.99
-41.09
-44.98
-48.55
-51.88
-55.19
-58.74
-62.64
-66.79
-70.74
-73.87
-75.40
-74.69
-71.35
-65.51
-57.76
-49.25
-41.28
-35.04
-31.18
-29.51
-28.98
-27.89
-24.48
-17.47
-6.56
7.49
23.09
38.39
51.78
62.22
69.29
72.97
73.45
71.10
66.48
60.43
54.05
48.43
44.45
42.50
42.46
43.77
45.71
47.54
48.76
49.08
48.47
47.06
45.09
42.77
40.23
37.47
34.47
31.21
27.86
24.64
21.80
19.53
17.83
16.55
15.45
14.21
12.64
10.69
8.51
6.42
4.79
3.86
3.65
3.88
4.07
3.65
2.23
-0.41
-4.14
-8.50
-12.71
-15.70
-16.31
-13.53
-6.86
3.44
16.29
29.99
42.66
52.72
59.21
61.80
60.73
56.48
49.64
40.96
31.38
22.06
14.28
9.07
6.93
7.61
10.26
13.66
16.72
18.76
19.53
19.17
17.95
16.05
13.53
10.33
6.43
1.93
-2.89
-7.63
-11.86
-15.20
-17.43
-18.59
-18.93
-18.88
-18.90
-19.31
-20.24
-21.61
-23.20
-24.79
-26.23
-27.46
-28.46
-29.27
-29.93
-30.58
-31.47
-32.86
-34.88
-37.30
-39.46
-40.41
-39.24
-35.34
-28.78
-20.23
-10.80
-1.70
6.01
11.73
15.30
16.97
17.20
16.53
15.38
14.00
12.60
11.39
10.64
10.65
11.54
13.19
15.10
16.64
17.30
16.92
15.71
14.10
12.46
10.95
9.52
8.01
6.34
4.57
2.85
1.31
-0.00
-1.14
-2.21
-3.26
-4.28
-5.25
-6.23
-7.34
-8.75
-10.52
-12.59
-14.73
-16.70
-18.30
-19.47
-20.31
-21.04
-21.95
-23.30
-25.32
-27.98
-30.88
-33.18
-33.79
-31.70
-26.44
-18.32
-8.42
1.78
10.93
18.21
23.42
26.79
28.66
29.29
28.81
27.36
25.22
22.80
20.64
19.18
18.67
19.08
20.17
21.53
22.69
23.26
23.00
21.92
20.24
18.32
16.51
15.09
14.08
13.37
12.80
12.22
11.59
10.94
10.31
9.73
9.10
8.32
7.27
5.91
4.35
2.76
1.35
0.30
-0.35
-0.62
-0.62
-0.46
-0.24
-0.13
-0.34
-1.14
-2.67
-4.89
-7.47
-9.87
-11.48
-11.94
-11.29
-9.97
-8.63
-7.84
-7.89
-8.70
-9.91
-11.05
-11.71
-11.66
-10.92
-9.66
-8.17
-6.68
-5.33
-4.15
-3.05
-1.95
-0.82
0.24
1.09
1.58
1.68
1.48
1.16
0.79
0.42
-0.02
-0.58
-1.24
-1.93
-2.63
-3.37
-4.30
-5.54
-7.06
-8.68
-10.15
-11.30
-12.18
-13.06
-14.25
-15.95
-18.10
-20.43
-22.63
-24.51
-26.03
-27.27
-28.38
-29.46
-30.65
-32.11
-33.86
-35.70
-37.07
-37.12
-35.03
-30.32
-23.19
-14.46
-5.39
2.77
9.16
13.48
15.93
16.99
17.11
16.63
15.71
14.45
13.00
11.70
10.91
11.00
12.01
13.63
15.25
16.20
16.07
14.84
12.93
10.84
9.01
7.58
6.44
5.41
4.32
3.08
1.67
0.08
-1.73
-3.73
-5.84
-7.94
-9.95
-11.81
-13.45
-14.82
-15.86
-16.64
-17.32
-18.20
-19.51
-21.23
-23.06
-24.53
-25.38
-25.73
-26.12
-27.09
-28.81
-30.82
-32.01
-31.18
-27.42
-20.66
-11.63
-1.63
8.00
16.11
22.07
25.68
27.14
26.84
25.30
23.04
20.52
18.13
16.17
14.89
14.44
14.82
15.85
17.20
18.45
19.22
19.32
18.66
17.41
15.73
13.82
11.84
9.86
7.98
6.23
4.56
2.92
1.29
-0.30
-1.78
-3.10
-4.33
-5.62
-7.12
-8.87
-10.77
-12.62
-14.29
-15.75
-17.13
-18.59
-20.19
-21.85
-23.39
-24.65
-25.63
-26.54
-27.62
-29.01
-30.57
-31.83
-32.01
-30.29
-26.12
-19.53
-11.21
-2.31
5.93
12.65
17.59
20.98
23.19
24.42
24.58
23.49
21.21
18.18
15.16
12.98
12.06
12.30
13.19
14.09
14.55
14.42
13.72
12.48
10.71
8.41
5.70
2.86
0.28
-1.73
-3.10
-4.00
-4.73
-5.51
-6.37
-7.09
-7.44
-7.29
-6.79
-6.24
-5.94
-6.09
-6.75
-7.89
-9.41
-11.24
-13.33
-15.51
-17.52
-19.09
-20.08
-20.65
-21.23
-22.33
-24.17
-26.49
-28.38
-28.63
-26.21
-20.71
-12.58
-3.08
6.27
14.12
19.76
23.11
24.46
24.24
22.78
20.36
17.30
14.14
11.51
10.00
9.92
11.11
13.06
15.12
16.76
17.67
17.91
17.65
17.06
16.21
15.04
13.46
11.46
9.23
7.12
5.48
4.50
4.11
4.01
3.78
3.09
1.71
-0.34
-2.98
-6.01
-9.25
-12.48
-15.47
-18.05
-20.11
-21.73
-23.20
-24.85
-26.93
-29.36
-31.70
-33.21
-33.04
-30.55
-25.47
-18.08
-9.13
0.35
9.24
16.60
21.88
24.91
25.88
25.09
22.90
19.62
15.62
11.43
7.67
5.04
4.00
4.62
6.50
8.88
11.00
12.30
12.66
12.33
11.70
11.09
10.54
9.82
8.63
6.80
4.50
2.14
0.22
-1.01
-1.63
-2.01
-2.56
-3.54
-4.99
-6.77
-8.68
-10.63
-12.64
-14.72
-16.91
-19.17
-21.50
-23.99
-26.77
-29.92
-33.16
-35.91
-37.24
-36.17
-32.02
-24.74
-15.01
-4.04
6.69
15.95
22.88
27.24
29.18
29.18
27.83
25.67
23.25
21.03
19.40
18.60
18.75
19.76
21.37
23.22
24.86
25.91
26.11
25.44
24.07
22.28
20.28
18.16
15.85
13.28
10.48
7.64
5.13
3.23
2.06
1.46
1.07
0.51
-0.59
-2.42
-5.10
-8.55
-12.54
-16.64
-20.36
-23.34
-25.54
-27.31
-29.25
-31.81
-35.06
-38.51
-41.19
-42.00
-39.99
-34.75
-26.49
-16.06
-4.72
6.19
15.51
22.61
27.33
29.93
30.81
30.35
28.86
26.62
24.07
21.70
20.02
19.33
19.58
20.46
21.52
22.36
22.77
22.68
22.10
21.05
19.59
17.79
15.74
13.51
11.05
8.31
5.20
1.86
-1.44
-4.31
-6.56
-8.28
-9.89
-11.89
-14.65
-18.15
-22.03
-25.79
-29.07
-31.86
-34.41
-37.09
-40.18
-43.83
-47.99
-52.47
-56.86
-60.51
-62.58
-62.14
-58.57
-51.89
-42.88
-32.88
-23.32
-15.21
-8.89
-4.09
-0.36
2.61
4.73
5.65
5.11
3.16
0.29
-2.78
-5.38
-7.11
-7.93
-8.05
-7.81
-7.57
-7.67
-8.46
-10.25
-13.23
-17.37
-22.34
-27.62
-32.56
-36.52
-39.01
-39.66
-38.36
-35.22
-30.62
-25.25
-19.89
-15.25
-11.79
-9.60
-8.46
-8.03
-7.99
-8.09
-8.19
-8.20
-8.18
-8.39
-9.30
-11.48
-15.27
-20.44
-26.00
-30.29
-31.43
-27.99
-19.59
-6.98
8.08
23.51
37.45
48.78
57.07
62.42
65.07
65.19
62.96
58.75
53.24
47.43
42.37
38.83
37.12
37.05
38.07
39.51
40.74
41.29
40.89
39.50
37.28
34.51
31.49
28.42
25.33
22.17
18.94
15.74
12.83
10.43
8.65
7.32
6.07
4.51
2.41
-0.15
-2.87
-5.36
-7.44
-9.22
-11.10
-13.64
-17.24
-22.00
-27.54
-33.03
-37.32
-39.15
-37.46
-31.64
-21.81
-8.77
6.09
21.18
35.01
46.45
54.88
60.08
62.21
61.66
59.14
55.58
52.06
49.61
48.92
50.17
52.92
56.33
59.38
61.25
61.52
60.26
57.95
55.15
52.34
49.70
47.11
44.26
40.90
36.90
32.45
27.91
23.65
19.88
16.47
13.06
9.26
4.81
-0.21
-5.47
-10.44
-14.77
-18.39
-21.57
-24.83
-28.72
-33.60
-39.57
-46.29
-53.03
-58.64
-61.77
-61.16
-56.00
-46.35
-33.16
-18.13
-3.23
9.91
20.41
28.14
33.51
36.94
38.67
38.71
37.12
34.25
30.91
28.08
26.70
27.28
29.77
33.67
38.25
42.74
46.54
49.21
50.47
50.23
48.54
45.56
41.49
36.55
31.04
25.34
19.91
15.15
11.34
8.47
6.19
3.94
1.16
-2.54
-7.19
-12.48
-17.88
-22.85
-27.04
-30.46
-33.47
-36.70
-40.84
-46.40
-53.50
-61.73
-70.04
-76.96
-80.82
-80.31
-74.96
-65.38
-53.09
-40.04
-27.86
-17.58
-9.53
-3.67
-0.03
1.16
-0.38
-4.66
-11.10
-18.61
-25.90
-31.95
-36.36
-39.38
-41.66
-43.93
-46.57
-49.48
-52.11
-53.69
-53.52
-51.32
-47.35
-42.32
-37.18
-32.63
-28.75
-24.84
-19.46
-10.95
1.95
19.35
39.84
60.43
77.09
85.58
82.31
65.27
34.33
-8.60
-59.90
-114.79
-168.14
-215.36
-253.20
-280.21
-296.55
-303.11
-300.93
-290.60
-272.05
-244.76
-208.45
-163.83
-112.85
-58.43
-3.52
49.10
96.93
137.61
168.90
188.68
195.27
188.00
167.75
137.82
102.62
66.54
32.94
4.05
-18.86
-35.07
-44.03
-45.07
-35.44
-13.49
19.90
61.20
105.69
148.95
187.58
219.44
243.65
264.62
286.08
308.74
330.36
348.09
360.39
366.97
368.18
364.44
362.70
