1536256663.00
64.000000
-0.00
-0.00
-0.00
-0.00
-0.00
-0.00
-0.00
-0.00
-0.00
-0.00
0.00
0.01
0.01
-0.00
-0.03
-0.05
-0.05
0.00
0.13
0.36
0.66
1.01
1.37
1.72
2.06
2.40
2.79
3.24
3.81
4.44
5.10
5.73
6.32
6.88
7.47
8.19
9.08
10.24
11.56
12.91
14.14
15.20
16.14
17.15
18.50
20.33
22.87
25.89
29.08
32.15
34.92
37.52
40.33
43.82
48.32
54.17
60.98
68.14
75.07
81.44
87.42
93.63
100.87
109.72
120.63
132.96
145.74
157.98
169.15
179.49
189.91
202.01
214.57
229.71
247.69
268.25
289.94
309.91
324.18
328.64
320.34
298.49
265.21
223.73
177.80
130.32
82.98
36.58
-8.38
-51.28
-91.49
-128.42
-162.44
-194.31
-224.95
-255.25
-285.93
-317.31
-348.80
-378.53
-403.15
-418.84
-422.77
-414.56
-396.58
-372.93
-347.51
-322.33
-297.21
-270.84
-242.76
-214.39
-188.58
-167.97
-153.20
-142.24
-131.41
-117.53
-99.68
-79.84
-61.63
-48.25
-40.61
-36.84
-33.48
-27.47
-17.84
-6.23
4.16
10.58
12.37
11.32
10.65
12.98
18.72
25.89
31.31
32.63
29.76
25.01
21.70
22.17
26.40
31.95
35.54
34.94
30.29
24.07
19.64
19.27
22.88
28.02
31.37
30.55
25.54
18.66
13.28
11.93
14.85
19.86
23.61
23.53
19.27
12.96
7.92
6.83
10.10
15.65
20.15
20.96
17.64
12.21
7.85
7.01
9.92
14.41
17.29
16.36
11.76
6.02
2.50
3.44
8.53
14.98
19.22
18.88
14.20
7.91
3.61
3.71
8.04
13.93
17.80
17.13
11.92
4.68
-1.05
-2.69
-0.01
4.70
8.12
7.82
3.68
-2.02
-6.00
-5.99
-2.10
3.19
6.47
5.51
0.57
-5.66
-9.70
-9.29
-4.84
0.78
3.98
2.51
-3.07
-9.81
-14.03
-13.55
-9.01
-3.44
-0.50
-2.23
-7.85
-14.24
-17.78
-16.48
-11.20
-5.05
-1.63
-2.86
-7.88
-13.63
-16.56
-14.78
-9.13
-2.68
1.05
0.15
-4.58
-10.08
-12.83
-10.87
-5.00
1.66
5.50
4.52
-0.51
-6.43
-9.59
-7.92
-2.20
4.50
8.58
8.02
3.66
-1.47
-3.93
-1.97
3.37
8.91
11.28
8.96
3.23
-2.57
-4.98
-2.44
3.84
10.56
14.23
13.21
8.52
3.24
0.67
2.39
7.46
12.89
15.55
13.91
8.99
3.70
1.21
3.08
8.31
14.05
17.12
15.92
11.28
5.99
3.08
4.14
8.39
13.15
15.46
13.85
9.19
4.24
2.00
3.86
8.67
13.40
14.88
11.79
5.51
-0.62
-3.23
-0.96
4.76
10.46
12.71
10.09
4.02
-2.13
-5.00
-3.16
2.07
7.49
9.89
7.88
2.65
-2.72
-5.12
-3.13
2.11
7.59
10.14
8.28
3.01
-2.71
-5.68
-4.30
0.52
5.88
8.65
7.24
2.52
-2.67
-5.25
-3.66
1.14
6.32
8.78
7.03
2.03
-3.33
-5.92
-4.19
0.88
6.33
8.98
7.24
2.10
-3.47
-6.24
-4.58
0.50
5.99
8.64
6.93
1.90
-3.45
-5.93
-4.07
1.02
6.30
8.64
6.67
1.56
-3.63
-5.84
-3.75
1.34
6.34
8.19
5.72
0.37
-4.72
-6.54
-4.07
1.10
5.75
6.97
3.92
-1.64
-6.47
-7.72
-4.63
0.99
5.92
7.37
4.66
-0.53
-5.09
-6.33
-3.53
1.67
6.27
7.61
4.95
-0.06
-4.42
-5.48
-2.59
2.55
6.85
7.68
4.42
-1.14
-5.85
-7.04
-4.04
1.39
6.15
7.57
4.97
-0.03
-4.48
-5.82
-3.34
1.44
5.62
6.71
4.07
-0.71
-4.68
-5.35
-2.19
2.89
6.79
6.90
2.86
-3.25
-7.99
-8.66
-4.82
1.42
6.56
7.83
4.74
-0.67
-5.09
-5.92
-2.76
2.38
6.39
6.83
3.44
-1.83
-5.89
-6.41
-3.10
2.14
6.25
6.90
3.72
-1.37
-5.36
-5.85
-2.49
2.80
6.96
7.54
4.25
-0.98
-4.96
-5.24
-1.54
4.03
8.15
8.32
4.25
-1.79
-6.43
-7.02
-3.24
2.73
7.47
8.31
4.88
-0.75
-5.29
-6.18
-3.08
1.94
5.69
5.80
2.06
-3.35
-7.26
-7.30
-3.34
2.40
6.67
7.05
3.41
-2.09
-6.20
-6.51
-2.89
2.49
6.39
6.46
2.59
-2.97
-6.95
-7.01
-3.06
2.65
6.80
7.00
3.19
-2.38
-6.40
-6.50
-2.65
2.83
6.61
6.37
2.14
-3.62
-7.53
-7.20
-2.67
3.61
8.19
8.60
4.78
-0.93
-5.20
-5.66
-2.23
2.83
6.34
6.11
2.22
-2.97
-6.26
-5.60
-1.31
4.09
7.33
6.39
1.71
-4.06
-7.64
-7.00
-2.53
3.15
6.81
6.42
2.33
-2.99
-6.38
-5.82
-1.64
3.75
7.20
6.65
2.35
-3.27
-6.97
-6.56
-2.22
3.62
7.62
7.48
3.28
-2.56
-6.75
-6.98
-3.30
1.99
5.67
5.57
1.83
-3.23
-6.47
-5.83
-1.58
3.84
7.20
6.44
1.90
-3.81
-7.33
-6.53
-1.76
4.26
8.02
7.33
2.62
-3.33
-7.01
-6.27
-1.60
4.14
7.47
6.28
1.18
-4.94
-8.56
-7.57
-2.50
3.84
7.94
7.66
3.31
-2.42
-6.19
-5.86
-1.77
3.52
6.74
5.92
1.52
-3.83
-6.97
-6.06
-1.72
3.38
6.11
4.78
0.12
-5.12
-7.82
-6.29
-1.28
4.42
7.62
6.50
1.77
-3.87
-7.10
-6.01
-1.16
4.73
8.28
7.47
2.75
-3.12
-6.73
-5.98
-1.38
4.31
7.69
6.70
1.92
-3.91
-7.40
-6.62
-2.14
3.32
6.50
5.61
1.25
-3.83
-6.50
-5.08
-0.34
4.95
7.65
6.13
1.24
-4.23
-7.12
-5.77
-1.00
4.36
7.16
5.70
0.77
-4.81
-7.88
-6.68
-1.93
3.64
6.85
5.88
1.34
-4.05
-7.05
-5.79
-0.92
4.76
7.87
6.53
1.49
-4.27
-7.30
-5.75
-0.45
5.52
8.72
7.32
2.26
-3.51
-6.66
-5.50
-0.90
4.31
7.00
5.60
0.92
-4.27
-6.90
-5.37
-0.50
4.90
7.69
6.17
1.17
-4.47
-7.46
-6.06
-1.08
4.57
7.51
5.94
0.62
-5.44
-8.82
-7.63
-2.60
3.33
6.75
5.74
1.02
-4.59
-7.74
-6.62
-1.94
3.48
6.41
5.18
0.56
-4.55
-7.01
-5.22
-0.13
5.30
7.92
6.18
1.13
-4.28
-6.88
-5.16
-0.17
5.16
7.62
5.73
0.51
-5.04
-7.76
-6.08
-0.96
4.65
7.61
6.28
1.54
-3.82
-6.67
-5.38
-0.75
4.49
7.23
5.87
1.23
-3.85
-6.30
-4.57
0.43
5.76
8.26
6.32
0.89
-5.12
-8.46
-7.43
-2.83
2.63
5.80
5.03
0.99
-3.77
-6.35
-5.21
-1.05
3.56
5.81
4.23
-0.39
-5.39
-7.81
-6.16
-1.26
4.21
7.16
5.99
1.54
-3.47
-5.97
-4.35
0.52
5.79
8.30
6.41
1.03
-4.89
-8.04
-6.65
-1.57
4.31
7.64
6.64
2.09
-3.20
-6.05
-4.81
-0.31
4.60
6.87
5.01
-0.02
-5.35
-7.90
-6.21
-1.29
4.00
6.61
5.09
0.45
-4.51
-6.80
-5.04
-0.23
4.86
7.26
5.57
0.77
-4.33
-6.75
-5.05
-0.22
4.87
7.14
5.10
-0.21
-5.79
-8.40
-6.45
-0.93
5.13
8.37
7.08
2.14
-3.46
-6.44
-5.09
-0.29
5.02
7.62
5.88
0.72
-4.93
-7.81
-6.22
-1.01
4.93
8.33
7.38
2.83
-2.60
-5.80
-5.12
-1.29
3.10
5.15
3.47
-1.07
-5.78
-7.82
-5.86
-0.94
4.13
6.43
4.56
-0.40
-5.62
-8.06
-6.24
-1.10
4.56
7.60
6.43
1.79
-3.58
-6.57
-5.50
-1.07
4.07
6.89
5.76
1.45
-3.42
-5.87
-4.43
0.00
4.71
6.75
4.76
-0.23
-5.39
-7.76
-5.95
-0.95
4.42
7.21
5.93
1.41
-3.71
-6.47
-5.29
-0.85
4.32
7.22
6.21
1.86
-3.27
-6.19
-5.23
-1.05
3.72
6.05
4.35
-0.51
-5.75
-8.26
-6.45
-1.23
4.53
7.66
6.49
1.79
-3.69
-6.84
-5.92
-1.55
3.73
6.88
6.24
2.36
-2.28
-4.78
-3.59
0.54
5.05
7.00
4.95
-0.21
-5.71
-8.51
-7.06
-2.17
3.42
6.63
5.73
1.35
-3.91
-6.98
-5.99
-1.44
4.15
7.57
6.81
2.21
-3.65
-7.51
-7.24
-3.15
2.18
5.53
4.90
0.72
-4.37
-7.19
-5.86
-0.99
4.70
7.98
7.01
2.40
-3.17
-6.50
-5.74
-1.46
3.73
6.74
5.76
1.33
-3.98
-7.08
-6.13
-1.64
3.87
7.29
6.69
2.49
-2.84
-6.21
-5.67
-1.56
3.63
6.76
5.88
1.31
-4.36
-7.88
-7.16
-2.59
3.23
6.95
6.41
1.99
-3.73
-7.40
-6.94
-2.66
2.88
6.41
5.89
1.63
-3.83
-7.28
-6.68
-2.35
3.26
6.98
6.77
2.92
-2.22
-5.62
-5.31
-1.50
3.49
6.70
6.19
2.18
-2.97
-6.23
-5.60
-1.32
4.19
7.72
7.11
2.58
-3.37
-7.32
-6.95
-2.39
3.78
8.06
8.02
3.75
-2.25
-6.57
-6.86
-3.18
2.10
5.78
5.68
1.95
-3.06
-6.25
-5.61
-1.46
3.75
6.86
5.91
1.26
-4.49
-8.10
-7.50
-3.06
2.68
6.44
6.16
2.15
-3.13
-6.53
-6.06
-2.00
3.31
6.84
6.57
2.66
-2.66
-6.36
-6.29
-2.46
3.00
6.97
7.17
3.39
-2.28
-6.70
-7.42
-4.14
1.15
5.30
5.90
2.66
-2.46
-6.39
-6.80
-3.43
1.80
5.95
6.79
4.10
-0.29
-3.64
-3.90
-1.01
3.17
6.00
5.64
2.10
-2.65
-5.89
-5.70
-2.09
2.95
6.51
6.33
2.23
-3.74
-8.24
-8.46
-3.77
3.69
10.02
11.65
7.48
-0.28
-7.26
-9.39
-5.38
2.45
9.58
11.88
8.06
0.42
-6.63
-9.44
-7.04
-1.76
2.57
3.02
-0.70
-6.19
-10.11
-10.28
-6.89
-2.13
1.23
1.54
-0.79
-3.87
-5.39
-4.18
-0.79
2.88
4.67
3.24
-1.03
-6.17
-9.53
-8.92
-3.81
4.08
11.43
14.77
12.31
5.14
-3.06
-8.10
-7.36
-1.51
5.92
10.66
10.09
4.83
-1.67
-5.56
-4.91
-0.71
3.76
5.42
3.39
-0.56
-3.39
-3.12
-0.24
2.62
2.67
-1.24
-7.57
-13.08
-14.69
-11.35
-4.62
2.26
6.24
5.98
2.27
-2.46
-5.63
-5.71
-2.83
1.43
4.85
5.64
3.35
-0.82
-4.41
-5.09
-1.97
3.78
9.33
11.81
9.87
4.62
-1.00
-3.81
-2.45
1.98
6.46
7.96
5.29
-0.11
-5.26
-7.41
-5.74
-1.79
1.85
3.16
1.82
-0.68
-2.28
-1.71
0.75
3.53
4.83
3.75
0.78
-2.52
-4.46
-4.07
-1.58
1.78
4.40
5.06
3.50
0.52
-2.43
-3.90
-3.34
-1.25
1.07
2.24
1.66
-0.18
-2.06
-2.69
-1.56
0.72
2.83
3.44
2.09
-0.52
-2.90
-3.60
-2.10
0.86
3.67
4.78
3.56
0.74
-2.08
-3.30
-2.26
0.36
2.96
3.98
2.77
-0.04
-2.89
-4.22
-3.33
-0.79
1.91
3.22
2.39
-0.11
-2.85
-4.27
-3.49
-0.90
2.12
3.96
3.70
1.65
-0.84
-2.20
-1.49
0.95
3.71
5.15
4.34
1.64
-1.51
-3.43
-3.16
-0.98
1.72
3.31
2.87
0.72
-1.85
-3.31
-2.80
-0.64
1.88
3.28
2.73
0.53
-2.03
-3.48
-2.96
-0.72
1.94
3.49
3.00
0.69
-2.15
-3.89
-3.45
-0.98
2.23
4.46
4.50
2.34
-0.84
-3.37
-4.00
-2.61
-0.26
1.50
1.52
-0.23
-2.66
-4.18
-3.67
-1.14
2.16
4.45
4.44
2.06
-1.46
-4.27
-4.96
-3.31
-0.45
1.90
2.37
0.87
-1.47
-2.94
-2.37
0.13
3.16
4.85
3.98
0.78
-3.14
-5.64
-5.31
-2.31
1.71
4.48
4.47
1.72
-2.14
-4.84
-4.75
-1.81
2.40
5.59
6.05
3.56
-0.44
-3.73
-4.55
-2.61
0.77
3.42
3.64
1.23
-2.45
-5.17
-5.23
-2.50
1.54
4.57
4.85
2.20
-1.87
-5.00
-5.37
-2.73
1.35
4.50
4.84
2.13
-2.04
-5.21
-5.42
-2.34
2.44
6.33
7.23
4.70
0.20
-3.69
-4.90
-2.91
0.87
4.04
4.61
2.27
-1.55
-4.47
-4.62
-1.85
2.22
5.18
5.19
2.17
-2.18
-5.37
-5.53
-2.52
1.98
5.49
6.08
3.53
-0.60
-3.89
-4.50
-2.20
1.54
4.38
4.56
1.88
-2.11
-5.03
-5.06
-2.04
2.40
5.78
6.11
3.17
-1.47
-5.18
-5.84
-2.97
1.91
6.10
7.23
4.60
-0.36
-4.93
-6.57
-4.50
-0.04
4.15
5.57
3.46
-0.83
-4.64
-5.81
-3.81
-0.15
2.74
3.10
0.90
-2.19
-4.05
-3.39
-0.57
2.71
4.54
3.82
1.02
-2.33
-4.36
-4.02
-1.52
1.79
4.14
4.23
1.88
-1.83
-5.07
-6.15
-4.50
-1.01
2.41
3.83
2.43
-0.95
-4.22
-5.41
-3.61
0.24
3.98
5.50
3.94
0.30
-3.15
-4.26
-2.31
1.56
5.01
5.89
3.59
-0.68
-4.50
-5.72
-3.67
0.38
4.08
5.27
3.28
-0.69
-4.29
-5.43
-3.39
0.70
4.54
5.99
4.24
0.28
-3.67
-5.48
-4.19
-0.58
3.23
5.06
3.81
0.11
-4.00
-6.22
-5.28
-1.64
2.73
5.47
5.18
2.16
-1.70
-4.13
-3.78
-0.98
2.39
4.15
3.18
0.08
-3.19
-4.57
-3.17
0.14
3.24
4.14
2.14
-1.66
-5.03
-5.93
-3.70
0.49
4.39
5.91
4.29
0.54
-3.19
-4.81
-3.44
0.16
3.95
5.83
4.80
1.54
-1.95
-3.50
-2.08
1.62
5.45
7.10
5.42
1.14
-3.45
-5.87
-4.85
-1.08
3.16
5.36
4.26
0.58
-3.48
-5.54
-4.43
-0.88
3.00
4.96
3.96
0.71
-2.74
-4.32
-3.07
0.21
3.52
4.83
3.18
-0.61
-4.52
-6.35
-5.04
-1.22
3.02
5.32
4.37
0.66
-3.65
-5.97
-4.73
-0.36
4.89
8.11
7.42
3.12
-2.51
-6.46
-6.70
-3.40
1.28
4.51
4.45
1.36
-2.59
-4.77
-3.69
0.09
4.23
6.08
4.23
-0.56
-5.78
-8.56
-7.33
-2.77
2.68
6.09
5.81
2.27
-2.23
-4.97
-4.35
-0.77
3.60
6.12
5.20
1.20
-3.76
-6.97
-6.70
-3.15
1.66
4.97
4.95
1.67
-2.84
-5.80
-5.29
-1.43
3.61
6.89
6.40
2.29
-3.15
-6.87
-6.83
-3.19
1.81
5.21
5.11
1.69
-2.86
-5.80
-5.39
-1.91
2.56
5.39
4.95
1.51
-2.93
-5.81
-5.48
-2.20
2.12
4.94
4.62
1.43
-2.65
-5.02
-4.04
-0.02
4.87
7.86
7.13
2.93
-2.51
-6.29
-6.45
-3.08
1.75
5.26
5.52
2.54
-1.79
-4.86
-4.92
-1.98
2.14
4.99
4.88
1.93
-2.10
-4.81
-4.58
-1.54
2.57
5.37
5.23
2.23
-1.92
-4.84
-4.88
-2.07
1.96
4.84
4.88
2.04
-2.00
-4.87
-4.81
-1.77
2.57
5.77
5.99
3.13
-1.11
-4.25
-4.43
-1.53
2.79
6.01
6.25
3.37
-0.99
-4.33
-4.84
-2.38
1.46
4.32
4.51
1.98
-1.67
-4.17
-3.99
-1.21
2.50
4.88
4.44
1.33
-2.78
-5.60
-5.60
-2.77
1.30
4.37
4.82
2.51
-1.11
-3.85
-4.03
-1.43
2.61
5.87
6.60
4.43
0.51
-3.04
-4.49
-3.30
-0.45
2.26
3.22
1.94
-0.70
-2.97
-3.25
-1.03
2.88
6.68
8.54
7.47
3.76
-1.17
-5.60
-8.28
-8.92
-8.21
-7.21
-6.68
-6.70
-6.63
-5.66
-3.46
-0.48
2.06
2.90
1.42
-1.91
-5.56
-7.78
-7.44
-4.72
-0.95
2.10
3.24
2.44
0.79
-0.23
0.28
2.19
4.38
5.50
4.85
2.78
0.50
-0.65
-0.02
1.95
3.99
4.76
3.71
1.35
-0.94
-1.83
-0.76
1.70
4.14
5.19
4.30
2.04
-0.19
-1.05
-0.01
2.28
4.40
4.99
3.55
0.81
-1.67
-2.41
-0.87
2.18
5.06
6.13
4.73
1.58
-1.55
-2.92
-1.78
1.19
4.27
5.68
4.67
1.90
-0.90
-1.92
-0.40
3.01
6.56
8.44
7.73
4.94
1.63
-0.48
-0.58
0.77
1.96
1.28
-2.09
-7.49
-13.13
-16.95
-17.75
-15.83
-12.66
-10.00
-8.80
-8.69
-8.22
-5.88
-1.14
4.99
10.40
13.01
11.92
7.94
3.16
-0.14
-0.78
0.85
3.06
3.94
2.55
-0.57
-3.77
-5.27
-4.22
-1.27
1.87
3.34
2.28
-0.79
-4.29
-6.49
-6.54
-4.81
-2.63
-1.33
-1.43
-2.32
-2.70
-1.52
1.30
4.67
6.91
6.76
4.29
0.91
-1.27
-0.73
2.46
6.59
9.13
8.24
4.02
-1.37
-4.66
-3.23
3.29
12.40
19.77
21.13
14.48
1.25
-14.19
-26.38
-31.03
-26.75
-15.44
-1.32
10.77
17.13
16.44
9.87
0.45
-8.39
-14.13
-15.88
-14.20
-10.36
-5.65
-1.24
1.64
1.67
-1.86
-8.11
-14.19
-16.27
-11.77
-1.44
10.45
18.35
18.90
13.16
6.03
2.87
5.76
11.92
15.71
12.64
2.79
-9.01
-16.10
-14.30
-4.54
7.75
15.98
16.28
9.38
-0.20
-7.19
-8.61
-5.09
0.02
3.13
2.56
-0.71
-4.08
-5.19
-3.32
0.35
3.78
5.37
4.72
2.53
-0.13
-2.49
-4.26
-5.40
-5.69
-4.77
-2.47
0.72
3.64
4.94
3.92
1.07
-2.08
-3.80
-3.22
-0.91
1.46
2.19
0.69
-2.11
-4.25
-4.01
-1.08
3.14
6.28
6.41
3.31
-1.41
-5.17
-5.98
-3.54
0.52
3.71
4.14
1.60
-2.30
-5.12
-5.06
-2.02
2.36
5.63
5.97
3.26
-0.94
-4.21
-4.74
-2.35
1.42
4.23
4.31
1.58
-2.30
-4.92
-4.52
-1.13
3.45
6.66
6.67
3.46
-1.14
-4.51
-4.77
-1.82
2.50
5.61
5.61
2.42
-2.18
-5.63
-6.05
-3.35
0.80
3.88
4.07
1.30
-2.79
-5.73
-5.71
-2.64
1.78
5.03
5.28
2.42
-1.81
-4.83
-4.73
-1.44
3.24
6.57
6.55
3.07
-1.95
-5.68
-6.04
-2.87
1.88
5.36
5.45
2.01
-2.98
-6.67
-6.89
-3.46
1.69
5.63
6.14
2.96
-2.06
-6.03
-6.66
-3.60
1.37
5.40
6.17
3.26
-1.61
-5.59
-6.36
-3.46
1.43
5.45
6.25
3.35
-1.55
-5.55
-6.28
-3.23
1.86
6.07
6.91
3.84
-1.48
-6.07
-7.40
-4.78
0.21
4.68
6.06
3.65
-1.04
-5.15
-6.21
-3.58
1.17
5.19
6.09
3.32
-1.41
-5.22
-5.72
-2.46
2.70
6.76
7.27
3.80
-1.74
-6.25
-7.16
-3.93
1.60
6.30
7.50
4.60
-0.74
-5.44
-6.88
-4.38
0.50
4.78
5.94
3.37
-1.33
-5.22
-5.84
-2.68
2.48
6.64
7.30
3.97
-1.47
-5.94
-6.82
-3.58
1.91
6.51
7.58
4.48
-1.03
-5.85
-7.33
-4.71
0.42
5.04
6.49
3.94
-1.15
-5.85
-7.52
-5.32
-0.62
3.73
5.19
2.98
-1.46
-5.34
-6.15
-3.21
1.90
6.28
7.39
4.52
-0.74
-5.45
-6.95
-4.39
0.77
5.61
7.45
5.33
0.58
-4.03
-5.92
-4.15
0.01
3.91
5.11
2.85
-1.53
-5.36
-6.20
-3.34
1.78
6.37
7.86
5.39
0.28
-4.79
-7.23
-6.00
-2.14
1.91
3.78
2.52
-0.89
-4.16
-5.14
-3.08
0.90
4.49
5.56
3.44
-0.70
-4.53
-5.88
-3.97
0.12
4.13
5.88
4.50
0.95
-2.66
-4.24
-2.92
0.38
3.61
4.73
2.98
-0.73
-4.27
-5.56
-3.80
0.05
3.81
5.37
3.84
0.15
-3.55
-5.06
-3.48
0.34
4.22
5.94
4.50
0.77
-3.10
-4.88
-3.61
-0.13
3.44
4.94
3.50
-0.03
-3.53
-4.90
-3.30
0.36
3.97
5.44
3.89
0.20
-3.55
-5.24
-3.98
-0.56
2.97
4.55
3.29
-0.01
-3.33
-4.63
-3.09
0.46
4.00
5.46
3.94
0.25
-3.62
-5.58
-4.63
-1.44
2.06
3.84
2.90
-0.13
-3.38
-4.84
-3.55
-0.21
3.28
4.90
3.73
0.44
-3.03
-4.63
-3.39
0.02
3.62
5.34
4.17
0.81
-2.77
-4.45
-3.23
0.13
3.60
5.03
3.46
-0.32
-4.15
-5.82
-4.29
-0.35
3.81
5.92
4.86
1.37
-2.49
-4.44
-3.38
0.01
3.71
5.47
4.19
0.52
-3.47
-5.52
-4.49
-0.99
2.91
4.96
3.98
0.63
-3.06
-4.86
-3.64
-0.11
3.67
5.43
4.12
0.53
-3.15
-4.60
-2.80
1.33
5.38
6.83
4.55
-0.48
-5.62
-8.08
-6.42
-1.52
3.90
6.83
5.67
1.16
-3.98
-6.70
-5.37
-0.75
4.42
7.10
5.70
1.02
-4.21
-6.95
-5.67
-1.20
3.77
6.27
4.80
0.22
-4.77
-7.23
-5.67
-0.94
4.25
6.94
5.57
0.91
-4.36
-7.27
-6.24
-1.95
2.95
5.50
4.19
-0.26
-5.14
-7.49
-5.79
-0.91
4.36
6.95
5.36
0.55
-4.60
-6.88
-4.79
0.69
6.47
9.22
7.25
1.56
-4.75
-8.25
-7.17
-2.39
3.09
5.95
4.56
-0.17
-5.33
-7.76
-5.95
-0.84
4.67
7.49
6.10
1.34
-4.01
-6.94
-5.87
-1.50
3.60
6.48
5.55
1.44
-3.34
-5.89
-4.61
-0.19
4.78
7.34
5.93
1.26
-4.00
-6.85
-5.67
-1.19
3.92
6.63
5.33
0.78
-4.39
-7.12
-5.78
-1.10
4.30
7.41
6.53
2.29
-2.76
-5.71
-4.93
-1.04
3.50
5.87
4.56
0.26
-4.51
-6.97
-5.62
-1.23
3.67
6.24
4.99
0.68
-4.21
-6.81
-5.61
-1.29
3.70
6.56
5.73
1.83
-2.83
-5.55
-4.84
-1.26
2.98
5.36
4.51
1.02
-2.94
-4.92
-3.65
0.23
4.51
6.69
5.45
1.40
-3.26
-5.99
-5.33
-1.81
2.42
4.83
3.96
0.30
-4.02
-6.49
-5.64
-1.94
2.52
5.23
4.75
1.54
-2.34
-4.44
-3.37
0.37
4.70
7.12
6.24
2.52
-1.94
-4.63
-4.09
-0.75
3.32
5.61
4.66
0.95
-3.43
-5.96
-5.17
-1.54
2.82
5.34
4.55
0.93
-3.39
-5.81
-4.84
-0.93
3.71
6.45
5.69
1.83
-2.95
-5.97
-5.59
-2.16
2.23
4.94
4.37
0.90
-3.40
-5.95
-5.19
-1.56
2.81
5.32
4.45
0.71
-3.69
-6.08
-4.91
-0.72
4.20
7.08
6.30
2.29
-2.64
-5.72
-5.25
-1.63
2.96
5.79
5.25
1.72
-2.64
-5.21
-4.45
-0.82
3.48
5.81
4.69
0.65
-4.00
-6.60
-5.62
-1.66
2.99
5.65
4.84
1.17
-3.10
-5.38
-4.31
-0.54
3.63
5.65
4.23
0.09
-4.41
-6.68
-5.36
-1.19
3.52
6.11
5.17
1.34
-3.14
-5.65
-4.78
-1.07
3.25
5.66
4.72
0.98
-3.36
-5.78
-4.83
-1.02
3.47
6.04
5.19
1.38
-3.22
-5.95
-5.24
-1.51
3.06
5.82
5.16
1.49
-3.03
-5.78
-5.15
-1.52
3.00
5.74
5.09
1.40
-3.22
-6.15
-5.75
-2.38
1.91
4.53
3.96
0.62
-3.39
-5.55
-4.41
-0.50
3.98
6.43
5.41
1.49
-3.08
-5.66
-4.73
-0.82
3.85
6.59
5.82
1.99
-2.72
-5.64
-5.15
-1.63
2.79
5.49
4.91
1.47
-2.73
-5.11
-4.18
-0.43
3.93
6.26
5.04
0.84
-4.01
-6.73
-5.76
-1.66
3.18
5.92
4.93
0.74
-4.24
-7.18
-6.40
-2.38
2.59
5.70
5.34
1.92
-2.38
-4.95
-4.29
-0.88
3.18
5.38
4.37
0.76
-3.25
-5.22
-3.88
0.02
4.20
6.19
4.74
0.57
-4.02
-6.50
-5.50
-1.66
2.82
5.38
4.62
1.05
-3.19
-5.56
-4.60
-0.79
3.71
6.31
5.50
1.72
-2.84
-5.56
-4.93
-1.41
2.81
5.18
4.27
0.68
-3.38
-5.38
-4.02
-0.00
4.34
6.44
4.99
0.71
-4.01
-6.55
-5.47
-1.44
3.27
6.01
5.31
1.73
-2.55
-4.95
-4.05
-0.39
3.79
5.91
4.57
0.41
-4.20
-6.59
-5.32
-1.10
3.63
6.12
4.94
0.82
-3.76
-6.04
-4.62
-0.25
4.56
7.05
5.77
1.44
-3.48
-6.21
-5.26
-1.27
3.36
5.88
4.80
0.76
-3.77
-6.04
-4.59
-0.13
4.75
7.18
5.64
0.91
-4.38
-7.24
-6.10
-1.74
3.20
5.73
4.32
-0.24
-5.26
-7.70
-6.06
-1.14
4.30
7.21
5.99
1.43
-3.83
-6.79
-5.84
-1.75
2.96
5.45
4.28
0.21
-4.22
-6.25
-4.53
0.10
5.04
7.46
5.95
1.32
-3.86
-6.73
-5.75
-1.65
3.14
5.83
4.92
1.07
-3.33
-5.56
-4.18
0.19
5.11
7.76
6.59
2.15
-3.16
-6.48
-6.10
-2.46
2.14
4.88
4.12
0.39
-3.93
-6.06
-4.47
0.11
5.11
7.62
6.12
1.41
-3.88
-6.80
-5.81
-1.62
3.22
5.81
4.63
0.39
-4.39
-6.83
-5.40
-0.80
4.36
7.16
5.98
1.55
-3.51
-6.22
-4.96
-0.46
4.66
7.41
6.20
1.71
-3.51
-6.60
-6.01
-2.35
1.97
4.24
3.04
-0.95
-5.31
-7.33
-5.64
-1.02
3.98
6.54
5.19
0.71
-4.31
-6.98
-5.73
-1.26
3.91
6.91
6.14
2.19
-2.56
-5.35
-4.59
-0.80
3.74
6.31
5.38
1.45
-3.16
-5.75
-4.76
-0.76
3.92
6.52
5.49
1.42
-3.35
-6.04
-5.09
-1.09
3.61
6.22
5.20
1.12
-3.63
-6.29
-5.31
-1.29
3.41
6.06
5.13
1.23
-3.32
-5.80
-4.78
-0.84
3.67
6.06
4.91
0.84
-3.76
-6.20
-4.98
-0.79
3.95
6.45
5.21
0.91
-3.95
-6.50
-5.22
-0.86
4.01
6.51
5.12
0.59
-4.48
-7.26
-6.24
-2.10
2.71
5.43
4.60
0.85
-3.49
-5.74
-4.53
-0.53
3.88
6.02
4.55
0.24
-4.37
-6.51
-4.75
0.04
5.23
7.96
6.77
2.43
-2.52
-5.33
-4.53
-0.83
3.38
5.47
4.08
-0.05
-4.54
-6.68
-5.12
-0.55
4.52
7.22
6.00
1.54
-3.63
-6.53
-5.49
-1.20
3.75
6.40
5.19
0.88
-3.90
-6.31
-4.90
-0.58
4.07
6.33
4.90
0.68
-3.82
-5.98
-4.57
-0.42
4.07
6.30
4.95
0.73
-4.03
-6.70
-5.85
-2.02
2.50
5.04
4.07
0.08
-4.67
-7.43
-6.62
-2.69
2.08
4.96
4.38
0.81
-3.48
-5.83
-4.71
-0.72
3.82
6.25
5.16
1.26
-3.04
-5.05
-3.44
0.99
5.72
8.01
6.51
2.04
-2.89
-5.56
-4.59
-0.77
3.54
5.75
4.58
0.79
-3.33
-5.30
-3.94
-0.02
4.16
6.10
4.58
0.33
-4.32
-6.77
-5.67
-1.64
3.00
5.54
4.52
0.49
-4.24
-6.92
-6.03
-2.09
2.54
5.14
4.21
0.33
-4.15
-6.53
-5.32
-1.19
3.53
6.21
5.44
1.85
-2.27
-4.40
-3.22
0.63
4.91
7.12
5.93
1.93
-2.65
-5.27
-4.51
-0.97
3.18
5.39
4.32
0.60
-3.53
-5.49
-4.01
0.16
4.60
6.69
5.07
0.54
-4.42
-7.08
-5.99
-1.89
2.80
5.38
4.37
0.40
-4.17
-6.71
-5.76
-1.92
2.52
4.96
4.05
0.44
-3.58
-5.43
-3.79
0.59
5.32
7.74
6.46
2.22
-2.59
-5.25
-4.32
-0.49
3.85
6.01
4.59
0.28
-4.46
-6.89
-5.55
-1.14
3.89
6.71
5.77
1.68
-3.13
-5.88
-5.01
-1.10
3.47
5.91
4.73
0.56
-4.20
-6.80
-5.76
-1.75
2.79
5.17
3.96
-0.10
-4.60
-6.82
-5.41
-1.13
3.57
6.00
4.77
0.62
-4.06
-6.59
-5.59
-1.71
2.78
5.30
4.54
1.09
-2.84
-4.80
-3.52
0.33
4.55
6.66
5.41
1.46
-2.92
-5.20
-4.01
0.01
4.54
6.97
5.86
1.80
-2.91
-5.60
-4.77
-1.01
3.37
5.68
4.45
0.30
-4.39
-6.89
-5.74
-1.53
3.31
6.02
5.05
0.97
-3.83
-6.61
-5.79
-1.90
2.77
5.53
4.87
1.32
-2.87
-5.10
-3.96
-0.11
4.17
6.27
4.83
0.59
-4.10
-6.60
-5.49
-1.50
3.03
5.45
4.34
0.37
-4.07
-6.30
-4.88
-0.47
4.50
7.26
6.30
2.18
-2.70
-5.60
-4.97
-1.35
2.98
5.36
4.34
0.51
-3.84
-6.10
-4.87
-0.75
3.91
6.46
5.42
1.40
-3.26
-5.83
-4.81
-0.83
3.74
6.16
4.95
0.75
-4.03
-6.64
-5.61
-1.57
3.08
5.59
4.52
0.50
-4.07
-6.53
-5.46
-1.53
2.95
5.33
4.22
0.25
-4.28
-6.73
-5.66
-1.62
3.12
5.93
5.31
1.72
-2.67
-5.31
-4.67
-1.23
2.96
5.39
4.64
1.23
-2.72
-4.73
-3.46
0.53
5.01
7.41
6.31
2.28
-2.47
-5.30
-4.69
-1.13
3.24
5.80
5.05
1.44
-2.88
-5.32
-4.39
-0.57
3.93
6.48
5.59
1.75
-2.85
-5.59
-4.96
-1.46
2.72
4.99
3.87
-0.11
-4.66
-7.13
-6.02
-1.93
2.86
5.62
4.86
1.13
-3.26
-5.63
-4.47
-0.36
4.34
6.88
5.71
1.36
-3.78
-6.82
-6.04
-1.91
3.19
6.32
5.66
1.66
-3.30
-6.20
-5.26
-0.95
4.22
7.20
6.16
1.61
-3.93
-7.40
-6.91
-2.88
2.24
5.44
4.89
1.02
-3.72
-6.37
-5.20
-0.80
4.28
7.04
5.81
1.31
-3.77
-6.39
-4.88
-0.06
5.34
8.20
6.83
1.96
-3.71
-7.10
-6.44
-2.30
2.80
5.84
5.04
0.90
-4.17
-7.19
-6.41
-2.30
2.70
5.67
4.90
0.90
-3.86
-6.45
-5.20
-0.70
4.57
7.66
6.89
2.75
-2.34
-5.52
-5.12
-1.55
2.94
5.63
4.89
1.10
-3.55
-6.41
-5.89
-2.34
2.11
4.88
4.42
1.12
-2.92
-5.20
-4.25
-0.56
3.71
6.03
4.96
1.02
-3.56
-6.19
-5.31
-1.36
3.52
6.72
6.57
3.27
-1.23
-4.45
-4.70
-2.07
1.66
4.10
3.63
0.36
-3.90
-6.67
-6.27
-2.77
1.95
5.27
5.35
2.17
-2.43
-5.79
-5.99
-2.95
1.56
4.93
5.27
2.47
-1.71
-4.76
-4.85
-1.93
2.26
5.27
5.34
2.47
-1.59
-4.44
-4.35
-1.35
2.80
5.63
5.41
2.20
-2.17
-5.18
-5.01
-1.72
2.85
6.04
5.93
2.47
-2.47
-6.18
-6.61
-3.60
1.10
4.80
5.44
2.74
-1.66
-5.19
-5.84
-3.33
0.74
3.93
4.39
1.98
-1.65
-4.09
-3.63
-0.36
3.86
6.48
5.82
2.08
-2.65
-5.68
-5.20
-1.46
3.43
6.64
6.27
2.49
-2.64
-6.24
-6.37
-3.05
1.73
5.19
5.38
2.28
-2.26
-5.52
-5.62
-2.49
1.99
5.23
5.39
2.54
-1.43
-3.96
-3.33
0.24
4.69
7.29
6.24
1.81
-3.77
-7.55
-7.50
-3.72
1.60
5.48
5.81
2.58
-2.15
-5.52
-5.50
-2.11
2.58
5.73
5.38
1.64
-3.36
-6.67
-6.32
-2.37
3.01
6.86
7.05
3.49
-1.77
-5.87
-6.59
-3.79
0.67
3.98
4.11
1.01
-3.37
-6.23
-5.64
-1.66
3.63
7.28
7.18
3.33
-2.20
-6.41
-7.08
-4.05
0.73
4.37
4.80
1.90
-2.41
-5.36
-4.97
-1.24
3.78
7.19
6.91
2.92
-2.66
-6.77
-7.13
-3.57
1.92
6.28
7.14
4.11
-0.99
-5.21
-6.17
-3.41
1.35
5.26
6.04
3.29
-1.29
-4.94
-5.49
-2.67
1.76
5.07
5.21
2.06
-2.45
-5.54
-5.16
-1.33
3.86
7.43
7.22
3.24
-2.35
-6.41
-6.65
-2.97
2.45
6.38
6.42
2.40
-3.50
-7.95
-8.39
-4.50
1.59
6.52
7.61
4.41
-1.09
-5.57
-6.40
-3.12
2.29
6.58
7.11
3.49
-2.27
-6.86
-7.60
-4.05
1.79
6.63
7.71
4.47
-1.17
-5.96
-7.16
-4.18
1.16
5.65
6.61
3.44
-2.02
-6.55
-7.48
-4.21
1.40
6.15
7.35
4.37
-1.02
-5.64
-6.78
-3.80
1.55
6.15
7.28
4.22
-1.33
-6.20
-7.60
-4.74
0.73
5.65
7.18
4.48
-0.82
-5.59
-7.01
-4.29
0.93
5.46
6.56
3.48
-2.02
-6.74
-7.89
-4.80
0.72
5.40
6.46
3.29
-2.20
-6.67
-7.35
-3.65
2.39
7.31
8.28
4.72
-1.30
-6.29
-7.40
-4.04
1.75
6.57
7.66
4.48
-1.01
-5.57
-6.59
-3.59
1.62
5.98
7.01
4.23
-0.62
-4.66
-5.49
-2.61
2.31
6.34
7.03
3.80
-1.66
-6.37
-7.68
-4.84
0.47
5.17
6.52
3.72
-1.56
-6.16
-7.32
-4.26
1.32
6.21
7.61
4.71
-0.81
-5.81
-7.48
-5.02
-0.03
4.42
5.61
2.81
-2.31
-6.67
-7.53
-4.17
1.66
6.73
8.26
5.47
0.08
-4.72
-6.16
-3.43
1.80
6.44
7.76
4.96
-0.38
-5.26
-6.95
-4.60
0.34
4.91
6.37
3.75
-1.54
-6.49
-8.24
-5.72
-0.35
4.78
6.68
4.26
-1.02
-5.97
-7.57
-4.78
0.81
5.95
7.71
5.17
-0.02
-4.64
-5.89
-3.03
2.26
6.82
7.93
4.84
-0.81
-5.96
-7.82
-5.50
-0.41
4.54
6.52
4.49
-0.32
-5.07
-6.96
-4.88
-0.05
4.64
6.40
4.16
-0.72
-5.24
-6.60
-3.77
1.73
6.78
8.48
5.81
0.19
-5.26
-7.64
-5.80
-0.99
3.90
6.02
4.20
-0.42
-5.09
-6.97
-4.90
0.02
4.94
6.95
4.81
-0.37
-5.66
-8.02
-6.06
-0.92
4.47
7.05
5.44
0.77
-4.03
-6.03
-3.92
1.08
6.07
8.16
6.13
1.13
-3.97
-6.30
-4.61
0.11
5.10
7.47
5.82
0.98
-4.40
-7.35
-6.29
-1.87
3.29
6.12
4.94
0.39
-4.87
-7.69
-6.31
-1.49
4.00
6.98
5.74
1.09
-4.12
-6.79
-5.30
-0.58
4.56
7.09
5.52
0.78
-4.35
-6.87
-5.32
-0.55
4.68
7.29
5.67
0.60
-5.16
-8.43
-7.44
-2.84
2.63
5.78
4.85
0.53
-4.43
-6.86
-5.06
0.08
5.68
8.51
6.91
1.74
-4.06
-7.25
-6.10
-1.37
4.09
7.08
5.83
1.10
-4.25
-6.97
-5.32
-0.15
5.60
8.56
6.95
1.64
-4.39
-7.71
-6.51
-1.57
4.15
7.29
6.02
1.10
-4.59
-7.76
-6.57
-1.75
3.91
7.11
6.04
1.35
-4.14
-7.15
-5.85
-0.85
4.97
8.27
7.12
2.15
-3.81
-7.39
-6.59
-2.00
3.64
6.96
6.05
1.50
-3.92
-6.91
-5.62
-0.67
5.06
8.22
6.89
1.70
-4.52
-8.29
-7.54
-2.81
3.14
6.82
6.07
1.32
-4.65
-8.38
-7.67
-2.86
3.31
7.33
6.96
2.52
-3.37
-7.25
-6.89
-2.55
3.20
7.02
6.71
2.51
-3.03
-6.63
-6.13
-1.79
3.88
7.58
7.17
2.88
-2.80
-6.58
-6.28
-2.09
3.53
7.30
7.01
2.81
-2.90
-6.82
-6.73
-2.75
2.71
6.40
6.12
2.05
-3.40
-6.97
-6.55
-2.36
3.17
6.83
6.58
2.67
-2.49
-5.80
-5.23
-1.05
4.42
8.07
7.85
3.89
-1.60
-5.57
-5.89
-2.53
2.44
6.08
6.21
2.71
-2.43
-6.30
-6.70
-3.42
1.61
5.41
5.73
2.33
-2.86
-6.83
-7.22
-3.75
1.62
5.74
6.15
2.49
-3.20
-7.66
-8.26
-4.60
1.26
5.93
6.71
3.12
-2.70
-7.33
-7.98
-4.23
1.77
6.54
7.27
3.56
-2.42
-7.13
-7.80
-4.00
2.06
6.82
7.52
3.80
-2.10
-6.62
-7.00
-2.92
3.29
8.08
8.70
4.88
-1.11
-5.78
-6.50
-3.01
2.52
6.77
7.23
3.66
-1.82
-6.05
-6.58
-3.18
2.08
6.05
6.26
2.41
-3.43
-7.97
-8.63
-4.96
0.99
5.89
7.05
3.98
-1.33
-5.63
-6.29
-2.89
2.59
6.91
7.52
4.01
-1.66
-6.26
-7.18
-3.94
1.53
6.03
6.91
3.65
-1.82
-6.29
-7.05
-3.54
2.32
7.23
8.40
5.20
-0.52
-5.45
-6.83
-3.99
1.23
5.64
6.56
3.40
-1.97
-6.43
-7.30
-4.08
1.39
5.88
6.71
3.33
-2.40
-7.17
-8.23
-4.89
0.96
6.07
7.60
4.83
-0.46
-5.07
-6.22
-3.28
2.01
6.43
7.26
3.90
-1.86
-6.76
-8.06
-5.02
0.60
5.63
7.26
4.70
-0.39
-4.93
-6.13
-3.23
2.12
6.75
7.92
4.84
-0.80
-5.81
-7.43
-4.83
0.35
5.06
6.54
3.94
-1.20
-5.91
-7.43
-4.88
0.36
5.26
7.00
4.52
-0.79
-5.91
-7.90
-5.65
-0.55
4.30
5.92
3.29
-2.04
-6.82
-8.05
-4.78
1.21
6.52
8.10
5.07
-0.76
-5.91
-7.36
-4.23
1.69
6.99
8.72
6.01
0.59
-4.33
-5.90
-3.36
1.65
6.04
7.12
4.20
-1.10
-5.71
-7.01
-4.24
0.99
5.64
7.03
4.34
-0.91
-5.73
-7.39
-4.94
0.21
5.14
7.09
5.00
0.16
-4.60
-6.51
-4.46
0.34
5.09
7.02
4.97
0.09
-4.84
-7.03
-5.25
-0.61
4.12
6.16
4.26
-0.49
-5.33
-7.46
-5.60
-0.81
4.15
6.45
4.83
0.29
-4.46
-6.63
-4.91
-0.29
4.56
6.89
5.44
1.18
-3.28
-5.20
-3.38
1.12
5.63
7.42
5.35
0.52
-4.31
-6.35
-4.43
0.31
5.04
6.94
4.87
0.08
-4.54
-6.13
-3.62
1.61
6.46
7.93
4.86
-1.27
-7.20
-9.69
-7.34
-1.50
4.56
7.44
5.54
-0.00
-6.05
-9.20
-7.74
-2.58
3.31
6.66
5.73
1.29
-3.90
-6.70
-5.47
-0.97
4.10
6.74
5.41
0.93
-3.96
-6.25
-4.46
0.45
5.64
8.00
6.07
0.86
-4.61
-7.19
-5.34
-0.13
5.37
7.86
5.70
-0.09
-6.45
-9.95
-8.72
-3.51
2.81
6.88
6.70
2.70
-2.63
-6.17
-6.03
-2.52
2.09
4.97
4.49
1.13
-2.82
-4.63
-2.91
1.60
6.35
8.51
6.70
1.84
-3.31
-5.77
-4.06
0.85
6.08
8.46
6.37
0.75
-5.39
-8.70
-7.36
-2.17
3.87
7.31
6.16
1.04
-5.18
-9.03
-8.41
-3.79
2.11
5.93
5.60
1.49
-3.85
-7.22
-6.68
-2.58
2.58
5.76
5.11
1.09
-3.82
-6.59
-5.48
-1.03
4.17
7.10
6.02
1.50
-3.90
-7.14
-6.45
-2.34
2.77
5.97
5.56
1.94
-2.62
-5.39
-4.75
-1.08
3.48
6.34
5.94
2.61
-1.64
-4.31
-3.83
-0.50
3.75
6.45
6.04
2.74
-1.60
-4.53
-4.43
-1.42
2.67
5.35
4.95
1.56
-3.01
-6.22
-6.30
-3.30
1.00
4.05
4.04
1.00
-3.24
-6.15
-5.94
-2.67
1.78
4.82
4.68
1.44
-3.00
-6.01
-5.78
-2.36
2.32
5.62
5.69
2.58
-1.81
-4.85
-4.76
-1.61
2.69
5.60
5.42
2.37
-1.63
-4.07
-3.38
0.14
4.48
7.13
6.52
2.94
-1.63
-4.71
-4.69
-1.77
2.23
4.89
4.64
1.60
-2.48
-5.26
-5.16
-2.27
1.73
4.52
4.49
1.67
-2.31
-5.13
-5.13
-2.28
1.85
4.94
5.29
2.75
-1.23
-4.37
-4.96
-2.76
0.86
3.73
4.18
1.96
-1.57
-4.29
-4.56
-2.19
1.43
4.17
4.38
1.90
-1.85
-4.64
-4.78
-2.10
1.96
5.10
5.50
2.92
-1.21
-4.61
-5.40
-3.28
0.40
3.39
3.85
1.46
-2.45
-5.63
-6.18
-3.72
0.46
4.07
5.15
3.16
-0.70
-4.18
-5.25
-3.31
0.53
4.05
5.25
3.47
-0.21
-3.63
-4.78
-3.04
0.50
3.70
4.67
2.89
-0.47
-3.23
-3.55
-1.06
2.93
6.17
6.78
4.39
0.32
-3.20
-4.32
-2.68
0.46
3.01
3.34
1.23
-1.99
-4.30
-4.20
-1.58
2.13
4.82
4.89
2.22
-1.78
-4.88
-5.35
-2.91
1.10
4.45
5.24
3.02
-0.97
-4.52
-5.69
-3.90
-0.25
3.14
4.34
2.73
-0.64
-3.72
-4.59
-2.66
1.06
4.46
5.61
3.79
-0.01
-3.71
-5.32
-4.06
-0.80
2.48
3.86
2.57
-0.55
-3.56
-4.58
-2.91
0.56
3.85
5.04
3.42
-0.15
-3.63
-5.04
-3.58
-0.09
3.41
4.92
3.58
0.23
-3.08
-4.35
-2.77
0.75
4.13
5.33
3.58
-0.13
-3.60
-4.74
-2.78
1.21
4.95
6.23
4.24
0.03
-4.02
-5.63
-3.88
0.18
4.23
5.92
4.31
0.32
-3.79
-5.74
-4.57
-1.18
2.30
3.73
2.32
-0.99
-4.05
-4.83
-2.67
1.30
4.77
5.64
3.27
-1.13
-5.12
-6.48
-4.46
-0.29
3.59
4.93
3.03
-0.90
-4.38
-5.19
-2.63
2.00
6.08
7.26
4.76
-0.10
-4.62
-6.27
-4.09
0.73
5.48
7.51
5.64
0.89
-4.19
-6.94
-6.05
-2.30
2.02
4.41
3.65
0.39
-3.22
-4.88
-3.52
0.10
3.81
5.34
3.71
-0.19
-4.04
-5.50
-3.60
0.63
4.70
6.12
3.90
-0.80
-5.27
-6.87
-4.52
0.59
5.62
7.75
5.74
0.68
-4.63
-7.30
-5.92
-1.40
3.64
6.33
5.24
1.13
-3.57
-6.12
-5.18
-1.46
2.67
4.66
3.33
-0.41
-4.13
-5.28
-2.85
2.01
6.56
8.08
5.50
0.10
-5.17
-7.38
-5.29
-0.12
5.17
7.51
5.52
0.28
-5.31
-8.16
-6.75
-2.00
3.35
6.30
5.28
1.03
-3.90
-6.60
-5.59
-1.59
2.92
5.18
3.90
-0.04
-4.05
-5.43
-3.03
2.05
6.97
8.85
6.47
0.99
-4.62
-7.35
-5.79
-0.96
4.30
6.97
5.56
0.92
-4.28
-7.08
-5.99
-1.80
2.91
5.29
3.96
-0.18
-4.50
-6.24
-4.12
0.84
5.85
8.00
5.93
0.62
-5.10
-8.22
-7.24
-2.97
1.98
4.73
3.83
0.05
-4.10
-5.92
-4.04
0.64
5.49
7.66
5.78
0.81
-4.47
-7.00
-5.28
-0.20
5.42
8.45
7.23
2.51
-2.99
-6.16
-5.31
-1.15
3.68
6.17
4.80
0.40
-4.32
-6.40
-4.44
0.63
5.95
8.42
6.48
1.08
-4.90
-8.22
-7.23
-2.72
2.54
5.44
4.41
0.25
-4.32
-6.37
-4.43
0.52
5.66
7.93
5.84
0.37
-5.59
-8.83
-7.70
-2.97
2.63
5.97
5.38
1.46
-3.21
-5.71
-4.38
0.09
5.08
7.58
5.88
0.73
-5.16
-8.51
-7.47
-2.59
3.40
7.25
6.96
2.94
-2.26
-5.55
-5.06
-1.24
3.41
5.91
4.65
0.30
-4.56
-6.96
-5.40
-0.69
4.46
7.03
5.45
0.58
-4.79
-7.56
-6.09
-1.25
4.17
6.97
5.49
0.57
-4.98
-7.93
-6.57
-1.68
3.88
6.90
5.68
1.07
-4.07
-6.54
-4.74
0.38
5.89
8.60
6.96
1.96
-3.46
-6.12
-4.50
0.43
5.81
8.48
6.84
1.74
-4.06
-7.46
-6.77
-2.61
2.43
5.34
4.41
0.25
-4.62
-7.19
-5.79
-1.07
4.30
7.21
5.97
1.30
-4.00
-6.74
-5.15
-0.03
5.76
8.95
7.75
2.86
-2.96
-6.53
-6.05
-2.12
2.70
5.41
4.32
0.01
-4.99
-7.70
-6.44
-1.83
3.54
6.63
5.70
1.38
-3.70
-6.45
-5.12
-0.41
5.00
8.00
6.90
2.35
-3.00
-6.15
-5.40
-1.36
3.50
6.27
5.30
1.08
-4.01
-7.10
-6.49
-2.54
2.43
5.46
4.72
0.54
-4.71
-7.95
-7.20
-2.77
2.85
6.46
6.01
1.85
-3.52
-6.89
-6.28
-2.14
2.96
5.87
4.77
0.27
-4.88
-7.53
-5.94
-0.84
4.92
8.10
6.92
2.13
-3.46
-6.59
-5.49
-0.86
4.53
7.46
6.18
1.43
-4.01
-6.98
-5.74
-0.99
4.50
7.54
6.34
1.56
-4.05
-7.26
-6.19
-1.41
4.37
7.86
7.09
2.49
-3.35
-7.16
-6.90
-2.88
2.44
5.93
5.64
1.90
-2.90
-5.74
-4.80
-0.60
4.38
7.09
5.82
1.22
-4.02
-6.78
-5.30
-0.32
5.35
8.41
7.01
1.82
-4.28
-7.90
-7.05
-2.31
3.51
7.03
6.24
1.61
-4.17
-7.79
-7.26
-3.05
2.28
5.57
5.00
1.10
-3.62
-6.17
-4.94
-0.60
4.26
6.69
5.24
0.76
-4.03
-6.20
-4.31
0.70
6.02
8.60
6.93
1.93
-3.60
-6.59
-5.43
-0.95
4.14
6.78
5.39
0.76
-4.43
-7.19
-5.94
-1.39
3.83
6.76
5.76
1.50
-3.49
-6.31
-5.33
-1.16
3.72
6.40
5.22
0.74
-4.52
-7.61
-6.77
-2.48
2.81
6.11
5.55
1.52
-3.66
-7.03
-6.76
-3.15
1.55
4.53
4.08
0.60
-3.63
-5.88
-4.60
-0.39
4.30
6.71
5.38
1.01
-3.85
-6.44
-5.28
-1.14
3.54
6.10
5.14
1.33
-3.05
-5.48
-4.63
-1.08
3.07
5.39
4.58
1.13
-2.94
-5.28
-4.56
-1.22
2.75
4.97
4.11
0.65
-3.41
-5.67
-4.79
-1.30
2.75
4.93
3.93
0.36
-3.63
-5.61
-4.30
-0.35
4.03
6.37
5.34
1.56
-2.81
-5.35
-4.73
-1.48
2.38
4.57
3.83
0.70
-2.89
-4.76
-3.71
-0.25
3.70
5.96
5.26
1.97
-2.12
-4.87
-4.95
-2.57
0.72
2.97
3.00
0.99
-1.63
-3.11
-2.47
-0.05
2.66
3.98
3.03
0.34
-2.49
-3.69
-2.37
0.90
4.35
6.05
4.98
1.65
-2.16
-4.41
-3.94
-1.13
2.32
4.37
3.84
1.03
-2.41
-4.50
-4.06
-1.42
1.83
3.74
3.21
0.61
-2.43
-3.96
-2.94
0.14
3.51
5.14
3.96
0.57
-3.13
-5.00
-3.94
-0.54
3.20
5.11
4.08
0.73
-2.93
-4.73
-3.61
-0.26
3.30
4.90
3.51
-0.16
-4.08
-6.06
-4.98
-1.49
2.45
4.68
4.09
1.19
-2.20
-4.04
-3.29
-0.46
2.69
4.29
3.41
0.68
-2.20
-3.44
-2.26
0.67
3.61
4.75
3.31
-0.04
-3.51
-5.25
-4.35
-1.36
2.01
3.88
3.29
0.69
-2.28
-3.79
-2.87
0.01
3.16
4.67
3.61
0.52
-2.80
-4.38
-3.25
0.04
3.64
5.53
4.63
1.45
-2.25
-4.48
-4.16
-1.74
1.10
2.52
1.57
-1.17
-4.01
-5.12
-3.71
-0.41
2.99
4.60
3.56
0.48
-2.85
-4.54
-3.62
-0.67
2.57
4.17
3.16
0.12
-3.13
-4.60
-3.30
0.20
4.01
6.05
5.24
2.13
-1.45
-3.48
-2.90
-0.27
2.65
3.98
2.79
-0.30
-3.54
-5.04
-3.91
-0.78
2.57
4.25
3.33
0.43
-2.69
-4.14
-3.01
0.08
3.34
4.82
3.60
0.28
-3.30
-5.14
-4.24
-1.19
2.20
3.98
3.16
0.39
-2.55
-3.74
-2.36
0.82
3.93
5.10
3.61
0.28
-2.96
-4.31
-3.06
-0.06
2.83
3.83
2.26
-1.07
-4.28
-5.52
-4.05
-0.66
2.78
4.35
3.26
0.29
-2.69
-3.82
-2.33
0.94
4.06
5.13
3.43
-0.17
-3.73
-5.29
-4.08
-0.85
2.54
4.23
3.39
0.69
-2.14
-3.35
-2.17
0.68
3.48
4.51
3.10
0.08
-2.75
-3.63
-1.94
1.39
4.42
5.28
3.29
-0.58
-4.25
-5.73
-4.19
-0.52
3.24
5.00
3.84
0.52
-2.96
-4.55
-3.30
0.04
3.50
5.05
3.79
0.46
-2.93
-4.39
-3.09
0.16
3.36
4.52
2.85
-0.78
-4.33
-5.79
-4.40
-1.01
2.35
3.71
2.26
-1.11
-4.43
-5.70
-4.14
-0.59
2.96
4.54
3.32
0.08
-3.25
-4.71
-3.44
-0.18
3.22
4.85
3.86
0.89
-2.25
-3.74
-2.73
0.14
3.16
4.54
3.48
0.59
-2.44
-3.86
-2.90
-0.18
2.62
3.80
2.64
-0.16
-2.91
-3.88
-2.39
0.78
3.85
5.06
3.73
0.66
-2.35
-3.55
-2.28
0.62
3.34
4.16
2.50
-0.78
-3.85
-5.03
-3.73
-0.81
1.93
2.81
1.27
-1.82
-4.65
-5.52
-3.84
-0.45
2.82
4.22
3.06
0.13
-2.79
-3.96
-2.71
0.23
3.10
4.21
2.94
0.08
-2.64
-3.57
-2.15
0.73
3.32
4.03
2.40
-0.58
-3.05
-3.39
-1.22
2.33
5.26
5.82
3.59
-0.28
-3.66
-4.69
-2.84
0.78
4.07
5.12
3.33
-0.30
-3.73
-5.08
-3.70
-0.51
2.56
3.73
2.39
-0.54
-3.26
-4.08
-2.52
0.48
3.10
3.71
1.95
-1.12
-3.61
-3.94
-1.78
1.71
4.60
5.23
3.24
-0.27
-3.38
-4.41
-2.96
-0.02
2.54
3.19
1.54
-1.36
-3.67
-3.88
-1.67
1.85
4.73
5.35
3.31
-0.30
-3.51
-4.56
-2.96
0.29
3.24
4.12
2.40
-0.93
-3.89
-4.73
-2.92
0.46
3.43
4.27
2.55
-0.59
-3.18
-3.61
-1.60
1.63
4.06
4.12
1.59
-2.25
-5.36
-6.08
-4.13
-0.69
2.24
3.08
1.54
-1.23
-3.31
-3.23
-0.84
2.59
5.11
5.27
2.98
-0.47
-3.14
-3.59
-1.68
1.35
3.64
3.75
1.49
-1.93
-4.64
-5.12
-3.08
0.31
3.18
3.90
2.12
-1.04
-3.70
-4.22
-2.24
1.14
4.01
4.76
3.04
-0.05
-2.56
-2.94
-0.83
2.62
5.46
6.06
4.00
0.38
-2.86
-4.06
-2.73
0.11
2.60
3.11
1.25
-1.93
-4.56
-5.07
-3.18
-0.03
2.46
2.79
0.79
-2.27
-4.49
-4.45
-2.11
1.19
3.57
3.71
1.67
-1.22
-3.12
-2.80
-0.36
2.87
5.08
5.00
2.68
-0.62
-3.06
-3.30
-1.19
2.08
4.70
5.16
3.15
-0.28
-3.32
-4.36
-2.94
-0.01
2.66
3.44
1.86
-1.13
-3.73
-4.32
-2.46
0.82
3.60
4.21
2.26
-1.16
-4.05
-4.71
-2.76
0.61
3.37
3.83
1.71
-1.73
-4.38
-4.61
-2.23
1.38
4.05
4.17
1.63
-2.10
-4.82
-4.94
-2.42
1.23
3.84
3.88
1.43
-1.97
-4.21
-3.88
-1.16
2.34
4.53
4.13
1.42
-1.92
-3.84
-3.10
-0.01
3.74
6.08
5.74
2.89
-0.89
-3.62
-3.98
-2.02
0.90
2.90
2.70
0.31
-2.91
-5.12
-4.98
-2.53
0.86
3.24
3.24
0.89
-2.35
-4.44
-4.00
-1.17
2.46
4.73
4.30
1.39
-2.27
-4.45
-3.83
-0.67
3.24
5.74
5.51
2.78
-0.79
-3.18
-3.16
-0.92
2.03
3.80
3.22
0.49
-2.92
-5.17
-5.02
-2.60
0.69
2.98
2.97
0.74
-2.36
-4.44
-4.26
-1.92
1.17
3.16
2.89
0.58
-2.29
-3.86
-3.07
-0.24
3.08
5.05
4.60
2.05
-1.10
-3.03
-2.66
-0.25
2.75
4.52
3.92
1.12
-2.42
-4.78
-4.67
-2.17
1.24
3.57
3.43
0.92
-2.43
-4.56
-4.11
-1.31
2.22
4.39
3.98
1.33
-1.83
-3.48
-2.59
0.37
3.65
5.34
4.48
1.61
-1.61
-3.36
-2.75
-0.23
2.63
4.12
3.30
0.53
-2.73
-4.76
-4.50
-2.19
0.79
2.71
2.46
0.24
-2.55
-4.15
-3.47
-0.82
2.25
3.83
2.89
-0.12
-3.46
-5.14
-4.15
-1.03
2.40
4.17
3.33
0.49
-2.56
-3.91
-2.72
0.35
3.48
4.84
3.62
0.51
-2.71
-4.27
-3.34
-0.56
2.39
3.81
2.93
0.39
-2.24
-3.30
-2.10
0.69
3.44
4.49
3.16
0.16
-2.80
-3.96
-2.59
0.58
3.78
5.21
4.06
1.03
-2.12
-3.54
-2.46
0.45
3.46
4.78
3.67
0.83
-2.08
-3.36
-2.33
0.34
3.02
4.06
2.81
-0.08
-3.00
-4.32
-3.32
-0.61
2.22
3.49
2.41
-0.46
-3.48
-4.89
-3.80
-0.81
2.36
3.81
2.61
-0.62
-4.03
-5.62
-4.48
-1.28
2.05
3.54
2.39
-0.59
-3.43
-4.25
-2.42
1.07
4.24
5.27
3.60
0.24
-2.82
-3.84
-2.29
0.81
3.55
4.24
2.42
-0.89
-3.73
-4.39
-2.37
1.27
4.53
5.61
3.93
0.44
-2.92
-4.37
-3.28
-0.54
2.07
2.90
1.47
-1.28
-3.56
-3.84
-1.77
1.56
4.28
4.79
2.75
-0.70
-3.62
-4.30
-2.37
1.07
4.01
4.72
2.80
-0.65
-3.60
-4.36
-2.52
0.82
3.68
4.44
2.75
-0.29
-2.77
-3.19
-1.28
1.78
4.11
4.21
1.83
-1.85
-4.89
-5.67
-3.79
-0.36
2.66
3.57
1.90
-1.27
-3.96
-4.46
-2.36
1.17
4.12
4.78
2.79
-0.69
-3.64
-4.42
-2.68
0.48
3.15
3.75
1.93
-1.26
-4.01
-4.78
-3.19
-0.26
2.20
2.67
0.80
-2.34
-4.86
-5.19
-3.02
0.47
3.29
3.83
1.85
-1.38
-3.82
-3.88
-1.42
2.23
4.99
5.29
2.98
-0.62
-3.42
-3.83
-1.61
2.00
5.00
5.79
4.00
0.76
-2.09
-2.97
-1.53
1.15
3.19
3.07
0.62
-2.88
-5.35
-5.19
-2.29
1.87
5.02
5.47
3.11
-0.50
-3.11
-3.07
-0.38
3.35
5.85
5.53
2.39
-1.96
-5.21
-5.70
-3.30
0.53
3.59
4.27
2.38
-0.71
-2.98
-2.91
-0.45
2.94
5.16
4.70
1.58
-2.63
-5.66
-5.94
-3.41
0.39
3.26
3.63
1.47
-1.72
-3.85
-3.44
-0.60
3.07
5.37
4.84
1.64
-2.47
-5.13
-4.79
-1.59
2.66
5.56
5.47
2.48
-1.65
-4.57
-4.68
-2.13
1.36
3.49
2.87
-0.15
-3.70
-5.49
-4.25
-0.49
3.72
5.95
4.80
0.76
-4.08
-7.16
-6.99
-3.93
0.01
2.43
1.94
-1.07
-4.63
-6.46
-5.32
-1.73
2.33
4.57
3.75
0.37
-3.64
-6.06
-5.65
-2.78
0.82
3.12
2.92
0.51
-2.57
-4.44
-3.93
-1.31
1.99
4.19
4.21
2.27
-0.26
-1.72
-1.11
1.29
4.09
5.65
5.03
2.56
-0.34
-1.97
-1.37
1.12
4.04
5.64
4.87
2.02
-1.42
-3.63
-3.44
-1.06
2.09
4.13
3.88
1.46
-1.71
-3.84
-3.75
-1.59
1.30
3.24
3.18
1.34
-1.02
-2.33
-1.73
0.47
2.92
4.13
3.30
0.88
-1.75
-3.00
-2.10
0.49
3.25
4.54
3.55
0.78
-2.20
-3.71
-2.93
-0.41
2.26
3.45
2.42
-0.18
-2.73
-3.62
-2.23
0.69
3.44
4.37
2.87
-0.28
-3.29
-4.42
-2.97
0.28
3.50
4.81
3.40
-0.00
-3.55
-5.29
-4.33
-1.29
1.99
3.60
2.62
-0.31
-3.38
-4.69
-3.40
-0.18
3.11
4.54
3.23
-0.13
-3.71
-5.54
-4.68
-1.72
1.61
3.44
2.81
0.24
-2.67
-4.13
-3.27
-0.59
2.36
3.85
3.05
0.46
-2.36
-3.71
-2.77
-0.09
2.74
4.04
3.07
0.41
-2.29
-3.38
-2.18
0.61
3.31
4.24
2.76
-0.38
-3.39
-4.59
-3.25
-0.15
2.96
4.32
3.20
0.29
-2.73
-4.11
-3.11
-0.37
2.47
3.74
2.75
0.18
-2.31
-3.10
-1.63
1.28
3.88
4.50
2.57
-0.99
-4.32
-5.62
-4.26
-1.09
2.05
3.40
2.30
-0.41
-2.96
-3.68
-1.99
1.23
4.17
5.14
3.50
0.12
-3.22
-4.74
-3.75
-0.94
1.98
3.34
2.47
0.06
-2.25
-2.90
-1.31
1.70
4.45
5.33
3.78
0.63
-2.41
-3.71
-2.64
0.02
2.58
3.40
1.87
-1.22
-4.14
-5.19
-3.79
-0.76
2.09
3.06
1.60
-1.36
-3.93
-4.43
-2.43
1.04
4.00
4.77
2.88
-0.61
-3.73
-4.76
-3.14
0.25
3.56
5.08
4.12
1.36
-1.55
-2.97
-2.18
0.22
2.68
3.60
2.31
-0.54
-3.33
-4.45
-3.26
-0.53
2.03
2.80
1.20
-1.85
-4.55
-5.22
-3.38
-0.05
2.86
3.68
1.98
-1.15
-3.78
-4.30
-2.33
0.99
3.75
4.39
2.60
-0.45
-2.89
-3.22
-1.23
1.94
4.47
4.93
3.16
0.30
-1.91
-2.12
-0.21
2.68
4.84
4.94
2.86
-0.30
-2.83
-3.39
-1.79
0.94
3.15
3.52
1.84
-0.85
-2.94
-3.14
-1.28
1.61
3.86
4.12
2.19
-0.93
-3.50
-4.09
-2.35
0.77
3.56
4.46
2.99
-0.07
-3.01
-4.23
-3.09
-0.28
2.52
3.65
2.38
-0.62
-3.69
-5.06
-3.99
-1.16
1.67
2.73
1.28
-1.85
-4.81
-5.79
-4.18
-0.94
1.97
2.81
1.14
-1.92
-4.37
-4.55
-2.18
1.47
4.34
4.86
2.81
-0.51
-3.08
-3.38
-1.24
2.09
4.66
4.99
2.95
-0.23
-2.66
-2.91
-0.81
2.42
4.96
5.34
3.37
0.16
-2.47
-3.06
-1.29
1.78
4.35
4.89
2.97
-0.42
-3.48
-4.58
-3.20
-0.25
2.43
3.19
1.46
-1.81
-4.76
-5.68
-3.98
-0.58
2.64
3.92
2.68
-0.24
-3.00
-3.91
-2.39
0.64
3.32
3.96
2.07
-1.32
-4.24
-4.95
-2.96
0.59
3.62
4.35
2.37
-1.10
-3.92
-4.34
-2.01
1.74
4.72
5.15
2.77
-1.05
-4.12
-4.73
-2.61
0.85
3.52
3.73
1.28
-2.44
-5.28
-5.57
-3.10
0.78
3.91
4.55
2.40
-1.28
-4.37
-5.12
-3.12
0.46
3.51
4.27
2.26
-1.39
-4.62
-5.61
-3.84
-0.34
2.91
4.10
2.65
-0.49
-3.40
-4.33
-2.68
0.63
3.77
5.01
3.78
0.96
-1.66
-2.43
-0.86
2.14
4.76
5.45
3.82
0.91
-1.45
-1.79
0.11
3.08
5.22
5.15
2.78
-0.60
-3.06
-3.23
-1.08
2.07
4.29
4.20
1.78
-1.66
-4.21
-4.46
-2.35
0.85
3.22
3.32
1.00
-2.49
-5.25
-5.76
-3.78
-0.47
2.30
3.02
1.37
-1.57
-3.97
-4.35
-2.38
0.92
3.76
4.59
3.00
-0.12
-3.00
-4.11
-2.93
-0.23
2.36
3.33
2.19
-0.33
-2.63
-3.29
-1.83
0.96
3.52
4.38
3.08
0.40
-2.07
-2.87
-1.51
1.24
3.78
4.65
3.36
0.67
-1.87
-2.81
-1.71
0.68
2.81
3.29
1.74
-1.04
-3.46
-4.15
-2.72
0.00
2.43
3.14
1.71
-1.06
-3.58
-4.39
-2.99
-0.18
2.39
3.18
1.64
-1.40
-4.20
-5.13
-3.65
-0.61
2.24
3.28
2.04
-0.58
-2.85
-3.31
-1.67
1.05
3.18
3.40
1.59
-1.16
-3.16
-3.21
-1.23
1.67
3.79
3.88
1.78
-1.41
-4.01
-4.63
-2.99
-0.05
2.54
3.38
2.14
-0.26
-2.20
-2.33
-0.39
2.61
4.98
5.32
3.35
0.11
-2.67
-3.53
-2.11
0.62
2.99
3.56
2.05
-0.59
-2.68
-2.91
-1.09
1.69
3.71
3.64
1.37
-1.90
-4.38
-4.70
-2.76
0.22
2.40
2.40
0.13
-3.17
-5.58
-5.67
-3.20
0.66
4.02
5.28
4.02
1.14
-1.70
-3.02
-2.32
-0.30
1.64
2.25
1.20
-0.80
-2.37
-2.39
-0.64
1.98
3.98
4.11
2.16
-0.93
-3.52
-4.17
-2.55
0.42
2.99
3.69
2.08
-0.88
-3.42
-3.96
-2.05
1.34
4.37
5.37
3.83
0.65
-2.37
-3.55
-2.37
0.34
2.86
3.66
2.30
-0.39
-2.70
-3.23
-1.57
1.31
3.73
4.20
2.32
-1.00
-4.05
-5.27
-4.14
-1.45
1.17
2.20
1.10
-1.37
-3.61
-4.12
-2.39
0.72
3.53
4.45
3.01
0.13
-2.46
-3.16
-1.52
1.56
4.29
5.13
3.62
0.63
-2.13
-3.15
-1.93
0.73
3.24
4.11
2.79
-0.05
-2.86
-4.14
-3.24
-0.76
1.81
2.90
1.76
-1.07
-4.06
-5.49
-4.48
-1.48
1.94
3.96
3.56
1.08
-1.96
-3.74
-3.24
-0.81
2.05
3.54
2.71
-0.05
-3.18
-4.87
-4.14
-1.41
1.76
3.52
2.85
0.10
-3.19
-5.14
-4.64
-1.94
1.50
3.85
3.95
1.96
-0.77
-2.51
-2.22
-0.10
2.50
3.96
3.38
1.14
-1.32
-2.41
-1.36
1.28
3.97
5.07
3.85
0.94
-2.01
-3.32
-2.26
0.53
3.37
4.51
3.12
-0.19
-3.76
-5.72
-5.09
-2.33
0.99
3.02
2.67
0.26
-2.73
-4.51
-4.02
-1.53
1.52
3.41
3.12
0.99
-1.54
-2.79
-1.85
0.82
3.66
4.91
3.70
0.57
-2.74
-4.34
-3.31
-0.23
3.04
4.46
2.99
-0.77
-4.85
-7.02
-6.03
-2.37
2.04
4.85
4.62
1.59
-2.50
-5.41
-5.64
-3.23
0.32
3.03
3.54
1.90
-0.53
-2.00
-1.41
0.97
3.71
5.07
4.16
1.48
-1.31
-2.37
-0.84
2.60
6.05
7.49
6.03
2.41
-1.31
-2.98
-1.61
1.98
5.61
7.03
5.18
0.93
-3.43
-5.48
-4.12
-0.21
3.88
5.64
3.91
-0.42
-4.91
-6.98
-5.41
-1.07
3.55
5.76
4.27
-0.14
-4.97
-7.48
-6.23
-1.95
2.88
5.44
4.19
-0.27
-5.46
-8.48
-7.65
-3.44
1.73
4.89
4.24
0.14
-5.03
-8.32
-7.83
-3.83
1.39
4.89
4.75
1.18
-3.61
-6.74
-6.33
-2.64
2.15
5.17
4.71
1.15
-3.17
-5.42
-4.00
0.43
5.31
7.73
6.19
1.57
-3.38
-5.68
-3.91
0.92
6.01
8.38
6.70
2.01
-2.95
-5.30
-3.78
0.67
5.40
7.64
6.09
1.52
-3.56
-6.45
-5.63
-1.67
3.11
5.97
5.24
1.26
-3.75
-7.05
-6.80
-3.24
1.49
4.58
4.19
0.56
-4.15
-7.10
-6.50
-2.70
2.05
4.93
4.28
0.62
-3.68
-5.79
-4.19
0.37
5.37
7.93
6.61
2.22
-2.63
-5.09
-3.77
0.50
5.19
7.56
6.23
1.97
-2.76
-5.32
-4.31
-0.40
4.06
6.42
5.17
0.89
-4.10
-7.08
-6.39
-2.53
2.19
4.90
3.89
-0.28
-5.16
-7.74
-6.29
-1.46
4.11
7.33
6.47
2.19
-2.87
-5.66
-4.57
-0.24
4.78
7.61
6.70
2.61
-2.30
-5.31
-4.89
-1.44
2.87
5.45
4.70
0.94
-3.73
-6.67
-6.18
-2.54
2.09
4.90
4.08
-0.04
-5.15
-8.24
-7.41
-3.06
2.32
5.61
4.90
0.71
-4.37
-7.18
-5.94
-1.29
4.10
7.17
6.28
2.17
-2.56
-5.01
-3.74
0.45
5.03
7.33
6.06
2.08
-2.20
-4.23
-2.84
1.17
5.48
7.56
6.17
1.97
-2.77
-5.51
-4.80
-1.11
3.46
6.32
5.87
2.39
-2.11
-5.05
-4.76
-1.43
2.94
5.71
5.11
1.28
-3.75
-7.22
-7.26
-3.91
0.81
4.15
4.19
1.00
-3.41
-6.29
-5.79
-2.08
2.70
5.66
4.91
0.67
-4.77
-8.38
-8.13
-4.16
1.25
5.03
5.08
1.52
-3.41
-6.71
-6.35
-2.57
2.33
5.37
4.68
0.67
-4.19
-6.85
-5.56
-0.93
4.42
7.36
6.21
1.73
-3.36
-5.94
-4.45
0.27
5.43
8.03
6.61
2.10
-2.78
-5.10
-3.50
1.12
6.10
8.58
7.13
2.49
-2.81
-5.99
-5.48
-1.81
2.68
5.23
4.19
0.04
-4.93
-7.89
-7.13
-3.13
1.71
4.50
3.57
-0.44
-4.98
-7.08
-5.23
-0.29
4.95
7.46
5.84
1.14
-3.72
-5.68
-3.41
1.96
7.48
10.06
8.28
3.08
-2.74
-6.16
-5.60
-1.71
3.00
5.69
4.71
0.56
-4.43
-7.45
-6.80
-2.94
1.80
4.54
3.54
-0.65
-5.57
-8.22
-6.89
-2.24
3.02
5.80
4.44
-0.19
-5.25
-7.60
-5.72
-0.68
4.59
6.99
5.18
0.35
-4.51
-6.37
-4.04
1.18
6.26
8.28
6.11
1.09
-3.84
-5.81
-3.72
1.20
6.06
8.07
6.07
1.23
-3.69
-5.90
-4.18
0.45
5.33
7.68
6.18
1.74
-3.08
-5.52
-4.19
0.09
4.81
7.19
5.78
1.32
-3.70
-6.43
-5.34
-1.04
3.95
6.72
5.57
1.04
-4.38
-7.66
-6.98
-2.81
2.33
5.33
4.33
-0.16
-5.55
-8.67
-7.66
-3.13
2.23
5.24
4.12
-0.40
-5.57
-8.21
-6.70
-1.92
3.28
5.86
4.39
-0.07
-4.65
-6.40
-4.14
0.93
5.94
8.06
6.24
1.73
-2.68
-4.35
-2.31
2.21
6.53
8.11
5.99
1.26
-3.49
-5.75
-4.42
-0.42
3.79
5.66
3.93
-0.59
-5.46
-7.98
-6.72
-2.44
2.36
4.85
3.54
-0.77
-5.45
-7.54
-5.63
-0.73
4.31
6.49
4.52
-0.36
-5.12
-6.75
-4.14
1.31
6.54
8.59
6.45
1.50
-3.29
-5.16
-3.13
1.52
6.02
7.77
5.79
1.24
-3.26
-5.21
-3.57
0.60
4.74
6.31
4.19
-0.60
-5.49
-7.83
-6.39
-2.17
2.19
3.97
2.00
-2.61
-7.04
-8.50
-5.88
-0.52
4.57
6.50
4.26
-0.66
-5.19
-6.53
-3.86
1.15
5.42
6.32
3.26
-1.90
-6.07
-6.70
-3.40
1.94
6.22
7.03
3.99
-1.04
-5.04
-5.68
-2.58
2.42
6.42
7.10
4.09
-0.81
-4.72
-5.31
-2.22
2.73
6.62
7.05
3.66
-1.68
-5.94
-6.61
-3.28
2.19
6.71
7.70
4.64
-0.65
-5.11
-6.15
-3.23
1.92
6.29
7.33
4.46
-0.61
-4.96
-6.07
-3.34
1.58
5.83
7.00
4.54
0.09
-3.61
-4.31
-1.68
2.56
5.65
5.54
2.12
-2.62
-5.86
-5.60
-1.91
3.01
6.20
5.61
1.40
-4.13
-7.85
-7.63
-3.56
2.06
6.01
5.99
1.94
-3.94
-8.48
-9.26
-6.06
-0.86
3.32
4.13
1.32
-3.21
-6.57
-6.57
-3.01
2.10
5.86
6.12
2.84
-1.87
-4.95
-4.31
-0.03
5.52
9.04
8.24
3.24
-3.44
-8.26
-8.69
-4.63
1.54
6.36
7.27
3.99
-1.38
-5.71
-6.64
-3.97
0.35
3.52
3.62
0.79
-2.88
-4.66
-2.94
1.77
6.98
9.68
8.11
2.78
-3.71
-8.13
-8.42
-4.80
0.43
4.26
4.65
1.70
-2.52
-5.29
-4.78
-1.25
3.22
5.99
5.45
2.00
-2.15
-4.39
-3.30
0.55
4.78
6.68
4.83
-0.04
-5.43
-8.45
-7.52
-3.27
1.88
5.02
4.45
0.61
-4.24
-7.34
-6.99
-3.53
1.00
4.08
4.19
1.69
-1.48
-3.10
-1.97
1.33
4.76
6.15
4.51
0.67
-3.19
-4.76
-3.10
0.88
4.83
6.36
4.40
-0.13
-4.89
-7.35
-6.29
-2.44
1.99
4.53
3.89
0.59
-3.39
-5.76
-5.24
-2.27
1.39
3.74
3.67
1.67
-0.66
-1.59
-0.37
2.29
4.67
5.13
3.23
-0.13
-2.98
-3.62
-1.57
2.11
5.40
6.46
4.54
0.49
-3.74
-6.04
-5.25
-1.77
2.67
5.79
6.00
3.23
-1.07
-4.67
-5.83
-4.37
-1.59
0.45
0.35
-1.73
-4.08
-4.59
-2.33
1.86
5.62
6.71
4.47
0.29
-3.14
-3.61
-0.77
3.66
6.89
6.83
3.38
-1.68
-5.68
-6.56
-4.12
0.15
3.99
5.70
4.72
1.84
-1.50
-3.91
-4.55
-3.50
-1.48
0.39
1.19
0.69
-0.43
-0.89
0.31
3.31
6.85
9.17
8.84
5.90
1.89
-0.94
-1.21
0.65
2.69
2.68
-0.03
-4.12
-6.97
-6.49
-2.72
2.01
4.53
2.86
-2.52
-8.73
-12.33
-11.25
-6.03
0.54
5.13
5.73
2.66
-1.93
-5.22
-5.44
-2.56
1.84
5.46
6.58
4.82
1.30
-1.98
-3.13
-1.54
1.80
4.76
5.33
2.81
-1.66
-5.70
-7.05
-4.94
-0.69
3.10
4.05
1.53
-2.90
-6.45
-6.78
-3.57
1.28
4.83
4.92
1.61
-2.96
-5.81
-5.04
-0.94
4.10
7.12
6.37
2.33
-2.66
-5.74
-5.30
-1.78
2.70
5.64
5.54
2.66
-1.29
-4.16
-4.49
-2.27
1.07
3.62
3.89
1.80
-1.41
-3.91
-4.30
-2.48
0.17
1.70
0.82
-2.25
-5.65
-7.00
-4.84
0.20
5.49
7.88
5.63
-0.27
-6.61
-9.61
-7.25
-0.51
7.07
11.48
10.55
5.28
-0.93
-4.36
-3.13
1.66
6.88
9.32
7.68
3.03
-2.02
-5.06
-5.15
-2.97
-0.20
1.64
2.00
1.24
0.27
-0.14
0.29
1.36
2.56
3.22
2.93
1.72
0.14
-0.92
-0.63
1.07
3.24
4.35
3.19
0.03
-3.45
-4.90
-2.90
1.82
6.53
7.92
4.30
-3.30
-11.28
-15.73
-14.41
-8.28
-0.77
4.23
4.65
1.28
-3.14
-5.60
-4.78
-1.53
1.97
3.58
2.61
0.01
-2.36
-2.91
-1.17
1.86
4.50
5.17
3.44
0.26
-2.63
-3.47
-1.57
2.27
5.94
7.32
5.41
1.09
-3.14
-4.72
-2.48
2.44
7.19
8.86
6.28
0.82
-4.48
-6.58
-4.47
0.46
5.13
6.70
4.23
-0.84
-5.80
-8.18
-7.21
-4.05
-0.74
0.81
0.07
-2.15
-4.35
-5.18
-4.16
-1.77
0.78
2.39
2.48
1.42
0.19
-0.19
0.72
2.43
3.62
2.98
0.16
-3.75
-6.52
-5.96
-1.46
5.34
11.06
12.38
8.06
-0.07
-8.06
-11.80
-9.53
-2.75
4.67
8.66
7.36
2.05
-3.84
-6.87
-5.56
-1.13
3.59
6.07
5.52
3.11
0.84
0.02
0.55
1.20
0.55
-1.84
-5.10
-7.56
-7.72
-5.16
-0.81
3.51
6.04
5.72
2.87
-1.17
-4.52
-5.67
-4.20
-1.05
1.98
3.16
1.95
-0.57
-2.39
-1.85
1.26
5.31
7.78
6.82
2.45
-3.26
-7.37
-7.81
-4.58
0.24
3.77
4.08
1.29
-2.62
-5.07
-4.49
-1.27
2.53
4.51
3.24
-0.67
-5.03
-7.26
-5.87
-1.39
3.90
7.24
6.87
3.03
-2.25
-6.18
-6.88
-4.28
-0.13
3.11
3.71
1.68
-1.31
-3.00
-1.93
1.58
5.64
7.83
6.68
2.56
-2.50
-5.92
-6.12
-3.30
0.64
3.29
3.15
0.47
-2.94
-4.83
-3.85
-0.42
3.59
5.91
5.24
1.98
-2.06
-4.66
-4.55
-2.03
1.21
3.21
2.81
0.37
-2.55
-4.15
-3.39
-0.66
2.51
4.38
3.98
1.68
-1.06
-2.57
-1.93
0.50
3.29
4.82
4.17
1.69
-1.25
-3.05
-2.81
-0.80
1.67
3.07
2.52
0.30
-2.31
-3.81
-3.31
-1.09
1.61
3.29
3.11
1.34
-0.82
-1.94
-1.27
0.81
3.03
3.93
2.81
0.11
-2.76
-4.26
-3.61
-1.26
1.42
2.92
2.51
0.65
-1.33
-2.07
-1.00
1.29
3.38
3.88
2.30
-0.61
-3.28
-4.21
-2.85
0.06
2.93
4.18
3.19
0.63
-1.94
-2.96
-1.77
0.99
3.76
4.99
3.99
1.38
-1.37
-2.76
-2.12
-0.03
2.09
2.79
1.50
-1.14
-3.65
-4.54
-3.22
-0.34
2.57
3.96
3.18
0.78
-1.76
-2.94
-2.07
0.34
2.93
4.28
3.75
1.88
-0.00
-0.55
0.75
3.25
5.44
5.84
3.87
0.24
-3.38
-5.28
-4.69
-2.22
0.44
1.55
0.36
-2.45
-5.09
-5.80
-3.87
-0.15
3.41
4.89
3.58
0.33
-2.87
-4.13
-2.75
0.33
3.09
3.69
1.55
-2.18
-5.37
-6.07
-3.75
0.33
3.87
4.85
2.76
-1.09
-4.30
-4.80
-2.14
2.21
5.67
6.05
2.90
-2.20
-6.52
-7.78
-5.44
-1.04
2.74
3.71
1.48
-2.35
-5.15
-4.89
-1.42
3.47
7.02
7.15
3.67
-1.62
-5.95
-7.18
-4.89
-0.69
2.86
3.74
1.64
-1.88
-4.31
-3.78
-0.20
4.58
7.82
7.46
3.38
-2.48
-7.16
-8.42
-5.94
-1.52
2.04
2.64
0.07
-3.83
-6.34
-5.53
-1.46
3.78
7.30
7.13
3.35
-1.96
-5.91
-6.55
-3.80
0.49
3.77
4.24
1.87
-1.70
-4.17
-3.94
-1.07
2.77
5.30
4.92
1.64
-2.85
-6.19
-6.62
-4.00
0.13
3.45
4.24
2.38
-0.61
-2.54
-1.89
1.22
5.02
7.18
6.20
2.32
-2.53
-5.81
-5.85
-2.75
1.69
5.03
5.56
3.27
-0.28
-2.88
-3.02
-0.74
2.40
4.35
3.80
1.06
-2.13
-3.67
-2.37
1.25
5.19
7.08
5.64
1.41
-3.54
-6.73
-6.70
-3.80
0.09
2.68
2.65
0.28
-2.73
-4.39
-3.57
-0.71
2.51
4.14
3.18
0.19
-3.04
-4.52
-3.24
0.17
3.78
5.45
4.07
0.26
-3.96
-6.33
-5.59
-2.22
1.86
4.44
4.25
1.70
-1.48
-3.28
-2.61
0.05
3.01
4.36
3.18
0.08
-3.13
-4.53
-3.23
0.12
3.64
5.27
4.02
0.48
-3.51
-5.86
-5.48
-2.88
0.23
1.91
1.25
-1.17
-3.58
-4.21
-2.32
1.23
4.48
5.48
3.52
-0.47
-4.30
-5.86
-4.26
-0.38
3.57
5.33
3.82
-0.21
-4.65
-7.15
-6.44
-2.93
1.53
4.78
5.49
3.89
1.45
0.05
0.84
3.67
7.37
10.47
12.15
12.68
13.05
14.03
15.34
15.36
11.85
3.31
-9.72
-24.35
-36.27
-41.73
-39.37
-30.90
-20.21
-11.24
-5.97
-3.60
-1.47
2.94
10.15
18.22
23.84
24.41
19.70
12.06
5.13
1.80
2.59
5.61
7.79
6.83
2.52
-3.13
-7.16
-7.45
-3.93
1.37
5.47
6.19
3.29
-1.46
-5.34
-6.29
-4.04
-0.16
2.91
3.33
0.95
-2.69
-5.26
-5.07
-2.09
2.10
5.19
5.50
2.94
-1.01
-4.12
-4.76
-2.73
0.61
3.24
3.60
1.51
-1.76
-4.26
-4.49
-2.27
1.14
3.74
3.97
1.61
-2.07
-5.02
-5.56
-3.36
0.33
3.44
4.28
2.56
-0.45
-2.74
-2.75
-0.36
3.08
5.58
5.71
3.46
0.20
-2.15
-2.31
-0.32
2.46
4.23
3.80
1.29
-1.94
-4.08
-3.88
-1.41
1.97
4.36
4.37
1.91
-1.73
-4.60
-5.19
-3.31
-0.16
2.36
2.78
0.96
-1.90
-3.92
-3.76
-1.40
1.81
3.93
3.63
0.99
-2.52
-4.86
-4.69
-2.10
1.37
3.61
3.20
0.24
-3.66
-6.29
-6.18
-3.38
0.48
3.20
3.25
0.71
-2.81
-5.10
-4.66
-1.57
2.51
5.34
5.37
2.66
-1.17
-3.88
-3.95
-1.40
2.22
4.76
4.78
2.36
-0.97
-3.12
-2.77
-0.09
3.33
5.46
5.06
2.39
-0.96
-3.06
-2.78
-0.46
2.33
3.76
2.88
0.19
-2.64
-3.86
-2.63
0.38
3.41
4.64
3.29
0.11
-3.04
-4.28
-2.86
0.42
3.59
4.73
3.08
-0.48
-3.90
-5.17
-3.50
0.21
3.83
5.22
3.52
-0.38
-4.30
-6.06
-4.68
-0.99
2.83
4.52
3.06
-0.77
-4.78
-6.70
-5.42
-1.72
2.27
4.27
3.21
-0.17
-3.74
-5.31
-3.90
-0.34
3.27
4.82
3.45
0.06
-3.24
-4.38
-2.59
1.15
4.71
6.06
4.44
0.85
-2.61
-3.93
-2.42
0.95
4.12
5.19
3.56
0.27
-2.70
-3.58
-1.94
1.11
3.60
3.98
2.04
-0.96
-3.08
-2.90
-0.42
2.91
5.08
4.68
1.76
-2.17
-5.03
-5.35
-3.11
0.29
2.78
2.89
0.58
-2.78
-5.12
-4.98
-2.26
1.60
4.47
4.72
2.15
-1.84
-5.07
-5.82
-3.73
-0.08
2.99
3.70
1.63
-1.99
-5.05
-5.70
-3.50
0.37
3.73
4.67
2.70
-1.00
-4.23
-5.06
-2.96
0.88
4.29
5.39
3.70
0.38
-2.49
-3.14
-1.20
2.12
4.85
5.40
3.56
0.57
-1.62
-1.65
0.48
3.35
5.05
4.35
1.50
-1.88
-3.80
-3.08
-0.15
3.20
4.86
3.65
0.05
-4.08
-6.54
-6.08
-3.09
0.61
2.87
2.40
-0.43
-3.87
-5.81
-5.01
-1.82
2.04
4.46
4.22
1.63
-1.64
-3.58
-3.05
-0.43
2.60
4.15
3.25
0.45
-2.43
-3.49
-1.87
1.68
5.15
6.52
4.92
1.18
-2.59
-4.23
-2.84
0.76
4.43
5.94
4.27
0.20
-4.14
-6.41
-5.44
-1.83
2.35
4.77
4.13
0.93
-2.88
-5.04
-4.27
-1.06
2.65
4.66
3.80
0.68
-2.73
-4.27
-2.94
0.45
3.82
5.09
3.49
0.07
-2.96
-3.60
-1.34
2.49
5.48
5.66
2.69
-1.87
-5.44
-5.98
-3.16
1.39
4.99
5.52
2.57
-2.25
-6.29
-7.34
-4.91
-0.49
3.28
4.20
1.74
-2.65
-6.35
-7.15
-4.48
0.17
4.16
5.21
2.71
-1.90
-5.95
-7.15
-4.87
-0.47
3.48
4.77
2.79
-1.09
-4.39
-5.00
-2.43
1.91
5.58
6.51
4.29
0.31
-3.03
-3.80
-1.65
2.01
4.89
5.22
2.77
-1.01
-3.87
-4.11
-1.59
2.19
5.02
5.25
2.79
-0.88
-3.63
-3.88
-1.64
1.59
3.69
3.24
0.43
-3.08
-5.13
-4.34
-1.04
2.95
5.36
4.81
1.68
-2.15
-4.38
-3.63
-0.31
3.64
5.93
5.23
2.00
-1.77
-3.82
-2.89
0.41
4.00
5.56
3.94
-0.10
-4.32
-6.27
-4.78
-0.63
3.84
6.09
4.82
0.75
-3.85
-6.44
-5.67
-2.13
1.98
4.22
3.26
-0.28
-4.23
-6.19
-4.90
-1.08
3.04
4.98
3.58
-0.37
-4.48
-6.24
-4.47
-0.06
4.55
6.77
5.38
1.21
-3.35
-5.71
-4.63
-0.82
3.43
5.64
4.59
0.94
-3.15
-5.34
-4.47
-1.23
2.33
4.01
2.79
-0.59
-4.04
-5.46
-3.94
-0.35
3.20
4.57
2.91
-0.85
-4.51
-5.91
-4.13
-0.10
3.96
5.80
4.41
0.62
-3.40
-5.41
-4.39
-1.06
2.55
4.30
3.27
0.19
-2.95
-4.19
-2.76
0.49
3.61
4.72
3.19
-0.03
-2.99
-3.89
-2.22
1.03
3.92
4.78
3.22
0.31
-2.08
-2.39
-0.40
2.69
4.98
4.99
2.65
-0.69
-3.00
-2.84
-0.25
3.25
5.48
4.95
1.76
-2.39
-5.20
-5.06
-2.05
2.07
4.88
4.67
1.47
-3.01
-6.32
-6.69
-4.01
0.12
3.35
3.95
1.72
-1.85
-4.57
-4.79
-2.37
1.24
3.91
4.09
1.80
-1.43
-3.46
-2.83
0.29
4.16
6.48
5.72
2.06
-2.66
-5.99
-6.29
-3.65
0.22
3.00
3.19
0.95
-2.04
-3.63
-2.52
0.86
4.63
6.53
5.28
1.32
-3.36
-6.41
-6.43
-3.75
-0.20
2.05
1.74
-0.71
-3.51
-4.65
-3.08
0.55
4.29
6.01
4.71
1.12
-2.70
-4.55
-3.37
0.13
3.89
5.69
4.43
0.77
-3.24
-5.33
-4.37
-0.97
2.85
4.88
4.04
1.02
-2.20
-3.50
-2.00
1.44
4.74
5.81
3.87
-0.08
-3.83
-5.22
-3.42
0.60
4.60
6.39
4.97
1.17
-2.94
-5.17
-4.49
-1.59
1.60
3.04
1.85
-1.19
-4.13
-5.02
-3.15
0.51
3.85
4.88
2.97
-0.75
-4.07
-4.95
-2.77
1.32
5.04
6.33
4.54
0.73
-2.93
-4.40
-2.98
0.36
3.56
4.69
3.05
-0.51
-4.04
-5.68
-4.71
-1.95
0.78
1.77
0.40
-2.44
-4.89
-5.33
-3.31
0.09
2.90
3.40
1.26
-2.25
-4.97
-5.10
-2.32
2.00
5.56
6.46
4.33
0.49
-2.76
-3.51
-1.35
2.41
5.50
6.01
3.56
-0.57
-4.09
-5.08
-3.12
0.56
3.71
4.46
2.37
-1.32
-4.39
-5.02
-2.85
0.80
3.73
4.16
1.84
-1.87
-4.75
-5.15
-2.91
0.53
3.03
3.08
0.72
-2.47
-4.35
-3.51
-0.18
3.87
6.37
5.88
2.68
-1.40
-3.97
-3.50
-0.22
4.03
6.83
6.60
3.52
-0.60
-3.37
-3.18
-0.20
3.70
6.07
5.24
1.38
-3.62
-7.13
-7.39
-4.43
-0.08
3.07
3.27
0.53
-3.37
-5.99
-5.73
-2.75
1.09
3.41
2.78
-0.42
-4.17
-6.06
-4.77
-0.86
3.50
5.81
4.72
0.89
-3.42
-5.66
-4.44
-0.43
4.10
6.59
5.68
2.00
-2.18
-4.36
-3.19
0.66
4.97
7.21
6.06
2.15
-2.29
-4.76
-3.90
-0.28
3.92
6.21
5.24
1.58
-2.58
-4.74
-3.52
0.44
4.89
7.22
6.01
1.88
-2.89
-5.64
-4.91
-1.29
2.94
5.16
3.93
-0.14
-4.78
-7.35
-6.45
-2.65
1.80
4.35
3.58
0.06
-4.06
-6.37
-5.59
-2.34
1.24
2.86
1.46
-2.10
-5.56
-6.68
-4.57
-0.33
3.63
5.02
3.07
-0.96
-4.59
-5.56
-3.23
1.03
4.66
5.47
2.99
-1.28
-4.70
-5.08
-1.98
3.02
7.20
8.30
5.74
0.99
-3.30
-4.79
-2.78
1.46
5.41
6.79
4.82
0.63
-3.41
-5.09
-3.65
-0.21
2.91
3.61
1.31
-2.71
-6.03
-6.61
-3.95
0.48
4.16
5.02
2.64
-1.40
-4.55
-4.77
-1.72
2.94
6.58
7.13
4.30
-0.26
-3.92
-4.56
-1.86
2.56
6.10
6.65
3.87
-0.68
-4.42
-5.26
-2.85
1.30
4.67
5.22
2.56
-1.80
-5.36
-6.07
-3.52
0.78
4.31
4.99
2.40
-2.00
-5.71
-6.68
-4.47
-0.56
2.63
3.17
0.79
-2.94
-5.60
-5.39
-2.26
2.03
4.94
4.72
1.45
-2.95
-5.86
-5.48
-1.91
2.87
6.19
6.20
3.02
-1.40
-4.38
-4.09
-0.66
3.92
6.95
6.61
2.98
-1.92
-5.35
-5.37
-2.03
2.71
6.11
6.18
2.91
-1.80
-5.20
-5.41
-2.43
1.79
4.53
4.01
0.41
-4.13
-6.88
-6.12
-2.21
2.60
5.52
4.94
1.39
-2.76
-4.76
-3.08
1.56
6.64
9.26
7.83
2.99
-2.75
-6.38
-6.16
-2.53
2.12
4.90
4.08
0.10
-4.73
-7.57
-6.79
-2.91
1.69
4.24
3.28
-0.39
-4.22
-5.41
-2.69
2.81
8.20
10.40
7.98
2.00
-4.54
-8.43
-7.95
-3.86
1.14
4.04
3.30
-0.34
-4.31
-5.83
-3.62
1.31
6.22
8.24
6.08
0.79
-4.81
-7.81
-6.80
-2.69
1.91
4.30
3.28
-0.17
-3.48
-4.12
-1.21
3.93
8.42
9.51
6.18
-0.15
-6.34
-9.29
-7.66
-2.58
2.97
5.94
4.84
0.60
-4.11
-6.46
-5.15
-1.13
2.99
4.64
2.83
-1.17
-4.63
-5.04
-1.70
3.76
8.26
9.06
5.38
-1.07
-7.04
-9.47
-7.32
-2.05
3.27
5.72
4.24
0.14
-3.75
-4.81
-2.26
2.43
6.37
7.07
3.92
-1.37
-5.80
-6.79
-3.79
1.47
5.87
6.80
3.62
-1.94
-6.79
-8.26
-5.63
-0.56
3.95
5.34
3.03
-1.25
-4.52
-4.36
-0.40
5.36
9.73
10.12
6.09
-0.36
-5.92
-7.90
-5.65
-0.97
3.10
4.08
1.53
-2.75
-5.85
-5.51
-1.58
3.88
7.80
7.87
3.89
-2.06
-6.88
-8.21
-5.71
-1.22
2.41
3.03
0.45
-3.43
-5.86
-4.82
-0.39
5.29
9.19
9.14
5.11
-0.78
-5.38
-6.39
-3.62
0.97
4.40
4.53
1.24
-3.45
-6.68
-6.43
-2.77
2.17
5.47
5.21
1.59
-3.13
-5.97
-5.05
-0.69
4.75
8.24
7.78
3.58
-2.11
-6.32
-7.01
-4.20
0.09
3.14
3.09
0.08
-3.88
-6.15
-5.02
-0.78
4.38
7.64
7.21
3.39
-1.62
-4.96
-4.75
-1.21
3.51
6.58
6.15
2.37
-2.67
-6.23
-6.51
-3.68
0.28
2.85
2.51
-0.34
-3.66
-5.01
-3.12
1.34
6.10
8.57
7.35
3.04
-2.09
-5.41
-5.35
-2.27
1.83
4.47
4.13
1.11
-2.71
-5.00
-4.40
-1.37
2.10
3.70
2.26
-1.46
-5.18
-6.47
-4.21
0.63
5.53
7.85
6.36
2.01
-2.70
-5.07
-3.78
0.37
4.96
7.37
6.23
2.18
-2.49
-5.19
-4.49
-0.95
3.28
5.65
4.70
0.93
-3.55
-6.20
-5.59
-2.20
1.85
4.09
3.14
-0.46
-4.56
-6.72
-5.65
-2.03
1.94
3.81
2.44
-1.36
-5.25
-6.82
-5.02
-0.84
3.30
4.96
3.23
-0.81
-4.66
-5.96
-3.83
0.55
4.71
6.35
4.68
0.82
-2.83
-4.12
-2.35
1.34
4.61
5.42
3.19
-0.83
-4.24
-4.94
-2.36
2.18
6.17
7.39
5.17
0.80
-3.24
-4.66
-2.71
1.43
5.31
6.66
4.69
0.52
-3.46
-5.02
-3.38
0.38
3.92
5.08
3.09
-0.91
-4.58
-5.70
-3.52
0.83
4.89
6.35
4.33
-0.07
-4.35
-6.07
-4.26
0.06
4.37
6.20
4.47
0.19
-4.17
-6.12
-4.61
-0.61
3.43
5.10
3.37
-0.74
-4.83
-6.54
-4.96
-1.15
2.52
3.81
1.96
-1.86
-5.27
-6.13
-3.86
0.17
3.48
4.02
1.41
-2.73
-5.81
-5.75
-2.32
2.74
6.69
7.41
4.59
-0.05
-3.83
-4.59
-1.97
2.46
6.12
6.89
4.33
-0.12
-3.99
-5.22
-3.33
0.31
3.30
3.68
1.08
-3.04
-6.24
-6.62
-3.95
0.16
3.18
3.27
0.38
-3.65
-6.19
-5.39
-1.31
4.02
7.79
8.02
4.70
-0.20
-3.86
-4.23
-1.16
3.53
7.15
7.66
4.81
0.21
-3.61
-4.68
-2.74
0.67
3.18
3.00
0.02
-4.10
-6.89
-6.64
-3.40
1.00
3.98
3.84
0.72
-3.37
-5.81
-4.86
-0.78
4.33
7.70
7.55
4.05
-0.74
-4.09
-4.12
-0.90
3.64
6.80
6.67
3.24
-1.68
-5.41
-6.05
-3.50
0.46
3.28
3.15
0.13
-3.90
-6.39
-5.69
-2.09
2.30
4.87
4.06
0.37
-3.92
-6.13
-4.76
-0.39
4.66
7.66
7.03
3.19
-1.69
-5.01
-5.13
-2.29
1.62
4.19
3.88
0.91
-2.93
-5.35
-4.93
-1.97
1.70
3.78
2.96
-0.32
-4.04
-5.91
-4.68
-0.93
3.19
5.31
4.24
0.68
-3.15
-4.86
-3.30
0.74
4.98
7.01
5.67
1.77
-2.42
-4.45
-3.12
0.83
5.16
7.40
6.24
2.31
-2.19
-4.76
-4.00
-0.46
3.71
5.98
4.92
1.06
-3.45
-6.03
-5.25
-1.64
2.59
4.86
3.71
-0.31
-4.97
-7.63
-6.83
-3.07
1.42
4.08
3.45
0.03
-4.02
-6.26
-5.34
-1.86
2.03
3.96
2.77
-0.76
-4.45
-6.02
-4.49
-0.82
2.75
4.04
2.32
-1.27
-4.40
-5.01
-2.50
1.81
5.48
6.39
3.99
-0.37
-4.22
-5.35
-3.14
1.16
5.10
6.48
4.56
0.50
-3.32
-4.71
-2.90
1.04
4.80
6.19
4.42
0.59
-3.00
-4.19
-2.16
2.00
5.92
7.32
5.30
0.90
-3.52
-5.62
-4.38
-0.69
3.17
4.87
3.39
-0.40
-4.25
-5.88
-4.29
-0.38
3.56
5.20
3.56
-0.36
-4.18
-5.55
-3.48
0.95
5.26
7.00
5.18
0.90
-3.33
-5.09
-3.38
0.71
4.74
6.36
4.69
0.86
-2.76
-3.97
-2.11
1.58
4.73
5.28
2.78
-1.37
-4.70
-5.27
-2.77
1.24
4.24
4.33
1.29
-3.21
-6.58
-6.89
-3.91
0.67
4.30
4.95
2.29
-2.15
-5.85
-6.79
-4.49
-0.36
3.22
4.19
2.04
-1.94
-5.39
-6.26
-3.96
0.24
3.98
5.14
3.11
-0.84
-4.33
-5.23
-2.91
1.33
5.05
6.14
4.05
0.14
-3.11
-3.61
-0.90
3.51
7.09
7.78
5.21
0.90
-2.64
-3.45
-1.29
2.23
4.66
4.22
0.85
-3.69
-6.87
-6.90
-3.76
0.78
4.14
4.44
1.55
-2.85
-6.27
-6.80
-4.23
-0.09
3.19
3.76
1.33
-2.62
-5.75
-6.19
-3.62
0.56
4.01
4.82
2.59
-1.38
-4.80
-5.70
-3.61
0.24
3.59
4.53
2.60
-0.92
-3.77
-4.05
-1.38
2.82
6.16
6.70
4.12
-0.08
-3.44
-3.95
-1.25
3.13
6.72
7.47
4.95
0.60
-3.15
-4.28
-2.33
1.31
4.30
4.68
2.12
-1.92
-5.05
-5.33
-2.53
1.75
4.99
5.19
2.13
-2.53
-6.18
-6.83
-4.19
0.08
3.46
4.01
1.50
-2.43
-5.32
-5.35
-2.43
1.74
4.71
4.78
2.00
-1.83
-4.31
-3.83
-0.58
3.58
6.20
5.70
2.26
-2.29
-5.56
-5.96
-3.61
-0.20
2.06
1.77
-0.84
-4.02
-5.58
-4.25
-0.46
3.85
6.30
5.52
1.99
-2.21
-4.62
-3.79
-0.20
4.06
6.51
5.69
2.06
-2.33
-4.99
-4.46
-1.08
3.18
5.86
5.44
2.17
-2.04
-4.76
-4.45
-1.32
2.77
5.37
4.91
1.60
-2.64
-5.32
-4.87
-1.49
2.85
5.66
5.37
2.26
-1.73
-4.21
-3.70
-0.60
3.15
5.24
4.35
1.04
-2.65
-4.41
-3.11
0.52
4.27
5.78
3.99
-0.22
-4.52
-6.51
-5.13
-1.24
2.88
4.90
3.78
0.36
-3.28
-4.99
-3.86
-0.64
2.71
4.23
3.02
-0.22
-3.66
-5.38
-4.46
-1.50
1.74
3.34
2.36
-0.61
-3.78
-5.15
-3.72
-0.12
3.72
5.65
4.54
1.02
-2.94
-5.07
-4.17
-0.81
3.03
5.12
4.26
1.03
-2.65
-4.58
-3.66
-0.50
2.97
4.63
3.43
0.04
-3.59
-5.39
-4.38
-1.28
2.00
3.45
2.22
-0.92
-4.04
-5.24
-3.77
-0.48
2.66
3.81
2.32
-0.85
-3.70
-4.40
-2.38
1.28
4.49
5.36
3.36
-0.36
-3.63
-4.48
-2.30
1.79
5.57
6.98
5.32
1.63
-1.92
-3.25
-1.62
1.97
5.34
6.41
4.40
0.24
-3.87
-5.81
-4.70
-1.41
1.95
3.30
1.80
-1.66
-4.99
-6.17
-4.43
-0.74
2.77
4.05
2.43
-1.02
-4.14
-4.92
-2.76
1.20
4.74
5.85
3.93
0.08
-3.48
-4.73
-2.99
0.71
4.24
5.62
4.07
0.50
-3.10
-4.81
-3.88
-1.15
1.47
2.20
0.49
-2.58
-4.99
-5.00
-2.25
1.92
5.22
5.79
3.32
-0.70
-3.88
-4.25
-1.48
2.91
6.48
7.24
4.79
0.55
-3.10
-4.14
-2.09
1.77
5.14
6.03
3.88
-0.13
-3.74
-5.00
-3.31
0.15
3.17
3.82
1.59
-2.27
-5.51
-6.21
-3.99
-0.24
2.72
3.06
0.55
-3.24
-5.95
-5.83
-2.78
1.54
4.76
5.15
2.69
-1.00
-3.60
-3.45
-0.54
3.52
6.45
6.57
3.82
-0.27
-3.44
-3.97
-1.66
2.04
4.90
5.17
2.62
-1.34
-4.43
-4.84
-2.31
1.71
4.83
5.13
2.28
-2.26
-6.05
-7.11
-5.04
-1.25
1.92
2.60
0.48
-2.96
-5.47
-5.37
-2.61
1.20
3.76
3.55
0.70
-2.99
-5.18
-4.31
-0.61
4.02
7.08
6.96
3.77
-0.63
-3.78
-3.96
-1.21
2.75
5.52
5.40
2.38
-1.87
-4.96
-5.19
-2.55
1.32
4.06
4.04
1.31
-2.43
-4.84
-4.42
-1.35
2.55
4.93
4.35
1.19
-2.58
-4.57
-3.43
0.35
4.62
6.91
5.86
2.01
-2.48
-5.07
-4.31
-0.69
3.66
6.20
5.44
1.79
-2.70
-5.51
-5.11
-1.82
2.42
5.11
4.71
1.46
-2.75
-5.52
-5.34
-2.42
1.39
3.81
3.41
0.50
-3.09
-5.13
-4.34
-1.16
2.48
4.37
3.31
-0.12
-3.95
-5.91
-4.86
-1.39
2.49
4.56
3.64
0.32
-3.48
-5.58
-4.84
-1.77
1.82
3.86
3.25
0.45
-2.81
-4.53
-3.65
-0.65
2.69
4.35
3.28
0.04
-3.52
-5.29
-4.18
-0.75
3.05
5.07
4.18
1.01
-2.46
-4.03
-2.63
1.03
4.89
6.76
5.60
2.15
-1.55
-3.33
-2.27
0.85
3.97
5.03
3.17
-0.72
-4.54
-6.22
-4.88
-1.40
2.18
3.78
2.49
-0.89
-4.36
-5.83
-4.34
-0.61
3.35
5.38
4.39
1.00
-2.83
-4.89
-4.01
-0.74
2.97
4.94
4.05
0.86
-2.67
-4.40
-3.30
-0.05
3.32
4.69
3.17
-0.38
-3.78
-4.96
-3.12
0.70
4.25
5.40
3.44
-0.49
-4.04
-5.14
-3.16
0.66
4.02
4.90
2.85
-0.83
-3.81
-4.20
-1.63
2.49
5.83
6.45
3.98
-0.21
-3.76
-4.75
-2.71
1.07
4.30
5.04
2.80
-1.15
-4.52
-5.33
-3.09
0.92
4.35
5.19
2.94
-1.06
-4.44
-5.18
-2.79
1.37
4.86
5.64
3.23
-0.99
-4.57
-5.44
-3.08
1.15
4.77
5.62
3.11
-1.41
-5.43
-6.71
-4.58
-0.31
3.59
4.88
2.87
-1.12
-4.63
-5.46
-3.01
1.35
5.08
5.97
3.48
-0.94
-4.70
-5.63
-3.20
1.11
4.69
5.36
2.69
-1.75
-5.32
-5.85
-2.96
1.71
5.45
6.11
3.36
-1.13
-4.64
-5.10
-2.25
2.20
5.62
6.01
3.19
-1.08
-4.22
-4.37
-1.45
2.74
5.64
5.43
2.12
-2.39
-5.50
-5.40
-2.15
2.35
5.44
5.32
2.11
-2.26
-5.14
-4.82
-1.50
2.81
5.50
4.94
1.46
-2.91
-5.56
-4.97
-1.52
2.72
5.20
4.50
1.07
-2.98
-5.19
-4.20
-0.58
3.54
5.67
4.50
0.62
-3.77
-6.17
-5.23
-1.53
2.78
5.26
4.55
1.18
-2.82
-5.09
-4.35
-1.09
2.74
4.85
3.99
0.63
-3.34
-5.70
-5.19
-2.25
1.32
3.40
2.82
0.04
-3.15
-4.72
-3.62
-0.43
2.97
4.53
3.24
-0.24
-3.94
-5.70
-4.45
-0.81
3.23
5.48
4.73
1.47
-2.45
-4.85
-4.49
-1.76
1.62
3.60
3.05
0.35
-2.82
-4.51
-3.66
-0.75
2.53
4.27
3.44
0.53
-2.76
-4.52
-3.68
-0.68
2.82
4.92
4.50
1.90
-1.35
-3.36
-3.01
-0.59
2.39
4.09
3.41
0.68
-2.57
-4.47
-3.94
-1.30
1.85
3.64
3.05
0.52
-2.33
-3.63
-2.45
0.59
3.68
4.90
3.39
-0.06
-3.45
-4.70
-2.90
1.11
5.19
7.08
5.70
1.77
-2.58
-4.99
-4.26
-0.98
2.80
4.79
3.84
0.54
-3.05
-4.72
-3.43
0.02
3.52
4.86
3.19
-0.46
-3.72
-4.37
-1.64
3.23
7.64
9.13
6.76
1.72
-3.40
-5.99
-4.94
-1.19
2.82
4.63
3.12
-0.82
-4.85
-6.61
-5.16
-1.53
1.87
2.77
0.48
-3.66
-6.99
-7.19
-3.70
1.83
6.49
7.74
4.97
-0.16
-4.68
-6.02
-3.46
1.42
5.77
7.08
4.66
-0.02
-4.23
-5.51
-3.21
1.25
5.17
6.16
3.57
-1.17
-5.35
-6.60
-4.24
0.25
4.15
5.09
2.44
-2.31
-6.41
-7.46
-4.83
-0.01
4.27
5.64
3.48
-0.78
-4.56
-5.66
-3.53
0.42
3.72
4.33
1.83
-2.34
-5.78
-6.51
-4.12
-0.04
3.40
4.27
2.19
-1.55
-4.72
-5.48
-3.47
0.05
2.99
3.62
1.61
-1.80
-4.56
-4.95
-2.60
1.30
4.71
5.88
4.31
1.03
-2.04
-3.18
-1.82
1.08
3.72
4.43
2.69
-0.56
-3.48
-4.40
-2.77
0.49
3.54
4.71
3.43
0.59
-2.08
-2.96
-1.58
1.14
3.45
3.83
1.95
-1.12
-3.56
-3.88
-1.81
1.48
4.09
4.50
2.50
-0.68
-3.13
-3.34
-1.18
2.08
4.48
4.57
2.25
-1.12
-3.56
-3.67
-1.40
1.85
4.11
3.99
1.56
-1.71
-3.83
-3.45
-0.72
2.82
5.14
4.87
2.15
-1.43
-3.80
-3.55
-0.77
3.00
5.63
5.64
2.99
-0.86
-3.81
-4.30
-2.19
1.18
3.78
4.05
1.79
-1.75
-4.60
-5.25
-3.45
-0.38
2.11
2.56
0.80
-2.05
-4.20
-4.30
-2.23
0.85
3.17
3.44
1.58
-1.22
-3.21
-3.17
-1.06
1.85
3.79
3.57
1.27
-1.75
-3.67
-3.29
-0.77
2.43
4.43
4.01
1.39
-1.92
-3.96
-3.47
-0.69
2.85
5.13
4.87
2.23
-1.29
-3.70
-3.64
-1.24
2.06
4.27
4.07
1.56
-1.83
-4.09
-3.89
-1.27
2.33
4.87
4.97
2.61
-0.78
-3.23
-3.35
-1.19
1.77
3.55
2.85
-0.10
-3.64
-5.64
-4.81
-1.48
2.48
4.81
4.13
0.86
-3.09
-5.36
-4.59
-1.26
2.64
4.75
3.77
0.22
-3.90
-6.25
-5.53
-2.24
1.71
4.10
3.75
1.11
-2.01
-3.60
-2.65
0.22
3.21
4.39
2.87
-0.62
-4.15
-5.68
-4.28
-0.67
3.15
5.02
3.92
0.51
-3.20
-5.04
-3.95
-0.59
3.03
4.76
3.54
0.07
-3.67
-5.49
-4.34
-0.89
2.87
4.82
3.90
0.77
-2.68
-4.40
-3.43
-0.48
2.56
3.71
2.11
-1.41
-4.86
-6.16
-4.43
-0.49
3.54
5.48
4.29
0.70
-3.25
-5.33
-4.39
-1.03
2.76
4.80
3.90
0.62
-3.10
-5.05
-4.00
-0.52
3.43
5.57
4.66
1.24
-2.68
-4.77
-3.73
-0.13
3.93
6.02
4.82
0.96
-3.36
-5.58
-4.35
-0.33
4.16
6.52
5.42
1.61
-2.54
-4.46
-2.95
1.14
5.36
7.19
5.57
1.52
-2.46
-3.98
-2.12
1.90
5.54
6.43
3.83
-0.89
-5.08
-6.36
-4.04
0.49
4.60
5.92
3.76
-0.55
-4.43
-5.61
-3.48
0.60
4.12
4.89
2.37
-2.04
-5.82
-6.78
-4.41
-0.12
3.56
4.48
2.10
-2.18
-5.86
-6.80
-4.46
-0.18
3.58
4.68
2.53
-1.62
-5.39
-6.63
-4.68
-0.68
3.07
4.45
2.72
-1.05
-4.61
-5.82
-3.87
0.18
4.03
5.47
3.67
-0.35
-4.24
-5.72
-3.86
0.32
4.49
6.33
4.90
1.15
-2.66
-4.32
-2.96
0.50
3.89
5.11
3.43
-0.12
-3.35
-4.26
-2.22
1.63
5.05
6.08
4.14
0.44
-2.79
-3.64
-1.67
1.85
4.71
5.08
2.61
-1.39
-4.72
-5.57
-3.57
0.04
3.13
3.91
1.95
-1.61
-4.70
-5.56
-3.69
-0.13
3.07
4.09
2.37
-1.10
-4.29
-5.34
-3.61
-0.07
3.23
4.42
2.88
-0.39
-3.34
-4.10
-2.08
1.61
4.85
5.74
3.72
-0.04
-3.35
-4.31
-2.40
1.20
4.34
5.18
3.33
0.01
-2.68
-3.08
-0.98
2.28
4.63
4.50
1.83
-1.91
-4.60
-4.69
-2.18
1.46
4.07
4.11
1.49
-2.35
-5.28
-5.65
-3.23
0.68
3.99
4.97
3.19
-0.28
-3.42
-4.50
-2.95
0.30
3.40
4.62
3.42
0.71
-1.66
-2.10
-0.20
2.90
5.22
5.15
2.38
-1.79
-5.22
-6.11
-4.08
-0.39
2.76
3.52
1.46
-2.19
-5.27
-5.92
-3.73
0.07
3.34
4.27
2.48
-0.83
-3.54
-3.94
-1.72
1.83
4.62
4.97
2.63
-1.13
-4.24
-5.03
-3.19
0.13
2.97
3.75
2.16
-0.69
-2.87
-2.85
-0.42
3.14
5.77
5.82
3.03
-1.25
-4.83
-5.90
-4.10
-0.66
2.31
3.10
1.39
-1.62
-3.90
-3.87
-1.36
2.28
4.92
4.91
2.08
-2.13
-5.49
-6.19
-3.93
-0.07
3.20
4.11
2.36
-0.72
-3.00
-2.87
-0.24
3.42
5.86
5.49
2.33
-1.99
-5.13
-5.39
-2.74
1.22
4.23
4.64
2.36
-1.11
-3.65
-3.76
-1.45
1.79
3.87
3.39
0.48
-3.25
-5.60
-5.11
-1.87
2.41
5.47
5.70
3.09
-0.77
-3.65
-3.96
-1.63
1.83
4.28
4.24
1.74
-1.71
-4.03
-3.80
-1.13
2.44
4.81
4.60
1.91
-1.71
-4.16
-4.04
-1.48
1.97
4.21
3.82
0.92
-2.96
-5.70
-5.80
-3.20
0.67
3.73
4.37
2.38
-0.98
-3.68
-4.12
-2.02
1.37
4.06
4.48
2.36
-1.02
-3.63
-3.86
-1.49
2.15
4.96
5.31
2.99
-0.63
-3.40
-3.65
-1.15
2.66
5.56
5.80
3.10
-1.12
-4.60
-5.49
-3.41
0.36
3.61
4.49
2.56
-0.99
-4.06
-4.84
-2.90
0.59
3.54
4.17
2.05
-1.65
-4.87
-5.84
-4.16
-0.95
1.78
2.40
0.61
-2.33
-4.45
-4.29
-1.78
1.61
3.85
3.52
0.78
-2.72
-4.83
-4.13
-0.81
3.36
6.11
5.93
2.93
-1.19
-4.15
-4.32
-1.69
2.21
5.19
5.58
3.25
-0.42
-3.30
-3.79
-1.71
1.60
4.06
4.14
1.68
-1.93
-4.63
-4.92
-2.73
0.49
2.70
2.46
-0.14
-3.52
-5.59
-4.94
-1.76
2.26
4.93
4.83
2.14
-1.44
-3.73
-3.27
-0.24
3.68
6.26
6.01
3.04
-0.98
-3.77
-3.75
-0.95
3.00
5.78
5.72
2.76
-1.50
-4.73
-5.20
-2.76
1.08
4.01
4.32
1.85
-1.93
-4.79
-5.04
-2.57
1.15
3.94
4.15
1.70
-1.94
-4.64
-4.80
-2.35
1.28
3.99
4.28
2.09
-1.14
-3.42
-3.36
-0.97
2.28
4.43
4.14
1.49
-2.08
-4.61
-4.71
-2.40
0.92
3.31
3.39
1.09
-2.27
-4.78
-4.98
-2.76
0.61
3.18
3.44
1.22
-2.22
-4.85
-5.09
-2.70
1.01
3.94
4.45
2.29
-1.21
-3.94
-4.23
-1.84
1.85
4.69
5.01
2.62
-1.09
-3.97
-4.36
-2.06
1.52
4.25
4.49
2.09
-1.57
-4.39
-4.73
-2.41
1.21
4.02
4.43
2.26
-1.12
-3.64
-3.72
-1.23
2.42
5.12
5.32
2.90
-0.67
-3.31
-3.48
-1.11
2.34
4.81
4.84
2.44
-0.91
-3.16
-2.96
-0.41
2.91
4.95
4.39
1.46
-2.13
-4.24
-3.57
-0.48
3.25
5.35
4.47
0.94
-3.40
-6.27
-6.23
-3.47
0.29
2.84
2.76
0.18
-3.32
-5.64
-5.39
-2.68
0.97
3.46
3.37
0.80
-2.70
-4.99
-4.64
-1.72
2.14
4.78
4.72
2.10
-1.42
-3.63
-3.08
-0.01
3.80
6.08
5.39
1.98
-2.33
-5.25
-5.27
-2.53
1.31
4.02
4.10
1.62
-1.91
-4.42
-4.49
-2.11
1.31
3.75
3.84
1.60
-1.53
-3.54
-3.10
-0.35
3.17
5.39
4.96
2.09
-1.59
-3.98
-3.75
-1.12
2.27
4.33
3.74
0.76
-2.96
-5.36
-5.11
-2.43
1.08
3.35
3.05
0.41
-2.94
-4.88
-4.05
-0.73
3.34
5.93
5.61
2.62
-1.34
-4.02
-4.00
-1.45
1.97
4.14
3.74
0.99
-2.50
-4.68
-4.29
-1.56
1.93
4.17
3.89
1.32
-1.97
-3.94
-3.33
-0.40
3.23
5.49
5.09
2.30
-1.25
-3.51
-3.20
-0.59
2.69
4.56
3.76
0.55
-3.46
-6.18
-6.27
-3.83
-0.30
2.35
2.81
1.09
-1.42
-2.87
-2.04
0.90
4.45
6.61
6.05
2.90
-1.32
-4.52
-5.17
-3.20
0.02
2.49
2.71
0.59
-2.52
-4.60
-4.20
-1.31
2.56
5.26
5.22
2.43
-1.59
-4.63
-5.11
-2.98
0.31
2.75
2.99
1.12
-1.43
-2.81
-1.92
0.90
4.03
5.52
4.22
0.58
-3.58
-6.00
-5.26
-1.64
2.97
6.07
5.98
2.76
-1.74
-5.01
-5.30
-2.59
1.42
4.38
4.67
2.31
-1.14
-3.57
-3.61
-1.38
1.64
3.51
3.05
0.49
-2.69
-4.63
-4.19
-1.58
1.73
3.92
3.78
1.44
-1.74
-3.99
-4.13
-2.22
0.52
2.44
2.44
0.56
-2.04
-3.83
-3.79
-1.98
0.50
2.18
2.07
0.26
-2.11
-3.54
-2.99
-0.56
2.53
4.56
4.34
1.90
-1.46
-3.81
-3.73
-1.14
2.54
5.19
5.18
2.37
-1.69
-4.64
-4.68
-1.68
2.66
5.78
5.73
2.44
-2.23
-5.54
-5.51
-2.11
2.70
6.14
6.28
3.13
-1.35
-4.49
-4.48
-1.40
2.87
5.83
5.85
3.01
-0.99
-3.92
-4.30
-2.22
0.87
3.05
3.07
1.01
-1.83
-3.75
-3.65
-1.65
1.00
2.65
2.23
-0.10
-3.01
-4.70
-3.94
-0.83
3.16
5.93
5.92
3.00
-1.35
-4.81
-5.53
-3.19
0.85
4.32
5.34
3.55
0.14
-2.83
-3.78
-2.43
0.00
1.72
1.45
-0.78
-3.62
-5.23
-4.40
-1.32
2.45
4.85
4.47
1.43
-2.61
-5.29
-4.95
-1.56
3.15
6.61
6.85
3.68
-1.23
-5.25
-6.34
-4.09
0.03
3.63
4.81
3.19
0.03
-2.65
-3.27
-1.60
1.17
3.24
3.29
1.24
-1.72
-3.83
-3.82
-1.61
1.55
3.83
3.82
1.38
-2.21
-4.88
-4.97
-2.22
2.02
5.42
6.03
3.39
-1.11
-4.99
-6.12
-3.93
0.26
4.02
5.31
3.57
0.05
-3.07
-3.97
-2.30
0.73
3.16
3.47
1.49
-1.52
-3.70
-3.63
-1.22
2.23
4.75
4.79
2.14
-1.87
-5.07
-5.65
-3.16
1.09
4.82
5.94
3.87
-0.21
-3.99
-5.41
-3.86
-0.46
2.63
3.61
2.08
-0.80
-3.04
-3.10
-0.83
2.43
4.65
4.32
1.38
-2.68
-5.64
-5.79
-2.91
1.55
5.25
6.30
4.25
0.35
-3.19
-4.46
-2.98
0.14
2.86
3.48
1.60
-1.63
-4.21
-4.50
-2.14
1.63
4.70
5.24
2.81
-1.33
-4.89
-5.80
-3.46
0.89
4.85
6.22
4.28
0.22
-3.64
-5.17
-3.66
-0.22
3.00
4.14
2.69
-0.28
-2.79
-3.19
-1.15
2.13
4.67
4.82
2.26
-1.74
-5.00
-5.69
-3.34
0.80
4.48
5.69
3.81
-0.09
-3.81
-5.36
-4.04
-0.84
2.21
3.23
1.64
-1.50
-4.13
-4.43
-1.91
2.21
5.69
6.50
4.08
-0.35
-4.44
-6.02
-4.37
-0.57
3.16
4.79
3.59
0.55
-2.35
-3.29
-1.74
1.30
3.83
4.11
1.69
-2.29
-5.67
-6.49
-4.17
0.16
4.21
5.82
4.18
0.30
-3.63
-5.48
-4.41
-1.28
1.91
3.29
2.21
-0.44
-2.79
-3.16
-1.06
2.46
5.40
5.96
3.55
-0.71
-4.65
-6.18
-4.51
-0.59
3.41
5.35
4.32
1.15
-2.15
-3.59
-2.35
0.69
3.55
4.29
2.26
-1.53
-4.95
-5.94
-3.78
0.49
4.60
6.32
4.71
0.69
-3.54
-5.72
-4.83
-1.63
1.86
3.59
2.70
-0.02
-2.69
-3.45
-1.59
1.99
5.28
6.30
4.26
0.07
-4.09
-5.99
-4.63
-0.79
3.35
5.45
4.39
0.86
-3.05
-5.09
-4.22
-1.12
2.17
3.57
2.18
-1.16
-4.34
-5.25
-3.03
1.35
5.60
7.37
5.61
1.18
-3.59
-6.23
-5.52
-2.14
1.77
3.91
3.18
0.28
-2.75
-3.84
-2.11
1.56
5.06
6.28
4.35
0.19
-4.03
-6.08
-4.97
-1.47
2.31
4.18
3.10
-0.16
-3.50
-4.75
-2.98
0.92
4.74
6.22
4.42
0.25
-4.00
-6.04
-4.82
-1.20
2.66
4.51
3.29
-0.25
-4.07
-6.01
-5.03
-1.77
1.83
3.67
2.68
-0.53
-4.02
-5.67
-4.34
-0.62
3.53
5.83
5.03
1.64
-2.34
-4.58
-3.71
-0.15
4.16
6.84
6.51
3.53
-0.25
-2.57
-2.17
0.54
3.72
5.24
3.95
0.41
-3.50
-5.64
-4.86
-1.70
1.96
3.96
3.13
-0.09
-3.89
-6.15
-5.66
-2.74
0.92
3.28
3.14
0.80
-2.13
-3.68
-2.75
0.26
3.66
5.48
4.62
1.53
-2.02
-3.93
-3.04
0.18
3.90
5.95
5.10
1.74
-2.31
-4.91
-4.72
-2.00
1.55
3.86
3.60
0.96
-2.47
-4.65
-4.31
-1.58
2.01
4.46
4.45
2.12
-0.99
-2.86
-2.20
0.74
4.25
6.20
5.25
1.76
-2.45
-5.10
-4.79
-1.87
1.84
4.09
3.54
0.49
-3.27
-5.58
-5.19
-2.41
1.07
3.18
2.73
0.02
-3.28
-5.17
-4.49
-1.61
1.78
3.66
2.90
-0.05
-3.40
-5.06
-3.84
-0.23
3.88
6.23
5.48
1.99
-2.44
-5.51
-5.75
-3.29
0.26
2.77
2.87
0.70
-2.18
-3.76
-2.78
0.43
4.16
6.26
5.41
1.97
-2.26
-4.99
-4.83
-2.02
1.68
4.03
3.63
0.68
-3.10
-5.52
-5.15
-2.15
1.83
4.58
4.65
2.13
-1.40
-3.76
-3.48
-0.63
3.23
5.91
5.88
3.09
-0.92
-3.98
-4.50
-2.37
0.99
3.50
3.65
1.41
-1.79
-3.90
-3.47
-0.58
3.25
5.87
5.79
3.02
-0.93
-3.93
-4.41
-2.28
1.03
3.42
3.35
0.75
-2.92
-5.51
-5.44
-2.59
1.50
4.61
5.03
2.56
-1.36
-4.48
-5.08
-2.92
0.62
3.40
3.81
1.70
-1.52
-3.74
-3.43
-0.59
3.25
5.87
5.67
2.62
-1.68
-4.90
-5.28
-2.64
1.53
4.92
5.69
3.51
-0.32
-3.63
-4.62
-2.89
0.35
3.02
3.44
1.26
-2.30
-5.17
-5.70
-3.60
-0.13
2.66
3.18
1.21
-1.93
-4.21
-4.08
-1.44
2.29
5.03
5.25
2.86
-0.71
-3.38
-3.60
-1.31
2.08
4.52
4.51
2.02
-1.53
-4.05
-4.06
-1.56
2.00
4.52
4.48
1.87
-1.83
-4.50
-4.57
-1.99
1.76
4.53
4.71
2.15
-1.75
-4.89
-5.55
-3.42
0.25
3.37
4.16
2.15
-1.56
-4.90
-6.02
-4.29
-0.67
2.85
4.38
3.27
0.46
-2.10
-2.58
-0.47
3.12
6.08
6.59
4.20
0.13
-3.49
-4.78
-3.30
-0.19
2.45
2.88
0.71
-2.85
-5.69
-6.07
-3.60
0.54
4.24
5.67
4.32
1.27
-1.48
-2.15
-0.31
2.93
5.55
5.84
3.38
-0.64
-4.15
-5.34
-3.73
-0.41
2.59
3.43
1.55
-2.04
-5.29
-6.36
-4.62
-1.05
2.35
3.71
2.38
-0.65
-3.33
-3.82
-1.53
2.38
5.75
6.62
4.39
0.17
-3.85
-5.66
-4.56
-1.46
1.64
2.90
1.67
-1.12
-3.53
-3.83
-1.51
2.34
5.65
6.54
4.46
0.45
-3.36
-4.99
-3.73
-0.47
2.72
3.90
2.29
-1.15
-4.38
-5.40
-3.45
0.51
4.36
6.01
4.61
0.99
-2.79
-4.66
-3.74
-0.75
2.35
3.65
2.33
-0.78
-3.74
-4.65
-2.73
1.17
4.99
6.65
5.21
1.39
-2.77
-5.14
-4.62
-1.79
1.54
3.39
2.81
0.37
-2.24
-3.27
-1.94
1.01
3.84
4.75
3.00
-0.59
-4.11
-5.57
-4.12
-0.54
3.14
4.77
3.33
-0.43
-4.41
-6.36
-5.18
-1.57
2.44
4.65
3.98
1.05
-2.31
-4.14
-3.51
-0.98
1.77
3.01
2.01
-0.58
-3.09
-3.81
-2.03
1.46
4.81
6.05
4.29
0.29
-3.85
-5.83
-4.44
-0.32
4.34
6.99
6.19
2.39
-2.27
-5.28
-5.15
-2.25
1.52
3.90
3.64
1.15
-1.87
-3.49
-2.77
-0.24
2.46
3.65
2.61
-0.04
-2.70
-3.77
-2.58
0.24
3.09
4.30
3.11
0.05
-3.23
-4.91
-3.98
-0.88
2.70
4.75
4.04
0.89
-2.90
-5.11
-4.33
-0.83
3.49
6.19
5.69
2.21
-2.29
-5.27
-5.08
-1.92
2.28
5.04
4.79
1.75
-2.24
-4.87
-4.73
-2.10
1.32
3.43
3.07
0.56
-2.47
-4.16
-3.45
-0.75
2.38
4.10
3.33
0.43
-3.01
-5.01
-4.34
-1.22
2.74
5.37
5.17
2.19
-1.92
-4.86
-4.96
-2.16
1.93
4.98
5.28
2.75
-1.08
-4.01
-4.47
-2.41
0.77
3.07
3.20
1.21
-1.53
-3.31
-3.01
-0.85
1.83
3.36
2.70
0.13
-2.91
-4.58
-3.69
-0.46
3.57
6.27
6.12
3.10
-1.21
-4.50
-4.97
-2.41
1.69
4.99
5.67
3.45
-0.27
-3.29
-3.95
-2.10
0.91
3.09
3.06
0.85
-2.13
-4.01
-3.54
-0.88
2.46
4.50
3.91
0.85
-3.10
-5.76
-5.57
-2.52
1.81
5.14
5.71
3.30
-0.66
-3.95
-4.84
-3.05
0.16
2.79
3.31
1.56
-1.22
-3.15
-2.87
-0.34
3.07
5.37
5.07
2.13
-1.96
-4.98
-5.25
-2.62
1.44
4.66
5.31
3.13
-0.49
-3.46
-4.14
-2.34
0.61
2.65
2.30
-0.48
-4.23
-6.79
-6.56
-3.47
0.98
4.47
5.22
2.95
-0.99
-4.34
-5.25
-3.33
0.22
3.27
4.09
2.30
-0.88
-3.42
-3.66
-1.32
2.34
5.22
5.62
3.26
-0.58
-3.76
-4.53
-2.57
0.83
3.56
3.89
1.59
-2.01
-4.75
-4.94
-2.34
1.70
4.96
5.68
3.47
-0.43
-3.89
-5.06
-3.40
0.03
3.24
4.42
2.99
-0.11
-2.94
-3.74
-1.96
1.41
4.39
5.17
3.22
-0.48
-3.89
-5.18
-3.76
-0.63
2.22
3.04
1.30
-1.95
-4.72
-5.27
-3.08
0.78
4.31
5.67
4.27
1.10
-1.83
-2.69
-0.94
2.40
5.27
5.88
3.75
0.00
-3.25
-4.17
-2.30
1.20
4.19
4.84
2.63
-1.27
-4.72
-5.81
-3.92
-0.08
3.59
5.09
3.64
0.14
-3.37
-4.87
-3.52
-0.14
3.20
4.43
2.72
-1.01
-4.52
-5.63
-3.50
0.79
4.80
6.20
4.16
-0.10
-4.01
-5.17
-2.82
1.66
5.59
6.58
4.00
-0.63
-4.52
-5.34
-2.58
2.14
6.02
6.74
3.78
-1.27
-5.69
-7.17
-5.13
-0.96
2.79
3.91
1.77
-2.38
-6.14
-7.35
-5.30
-1.12
2.86
4.44
2.80
-1.04
-4.75
-6.08
-4.19
-0.13
3.77
5.27
3.54
-0.32
-3.92
-4.99
-2.75
1.63
5.71
7.14
5.08
0.64
-3.79
-5.90
-4.76
-1.27
2.38
4.05
2.90
-0.15
-3.03
-3.74
-1.59
2.38
5.96
7.06
4.95
0.65
-3.62
-5.73
-4.81
-1.72
1.56
3.07
2.00
-0.88
-3.69
-4.61
-2.89
0.62
3.97
5.18
3.44
-0.39
-4.21
-5.83
-4.24
-0.22
4.11
6.45
5.67
2.39
-1.38
-3.53
-3.02
-0.51
2.18
3.20
1.84
-1.09
-3.76
-4.40
-2.39
1.36
4.86
6.13
4.30
0.18
-4.19
-6.56
-5.76
-2.31
1.84
4.45
4.25
1.61
-1.71
-3.69
-3.27
-0.91
1.77
3.03
2.14
-0.21
-2.37
-2.74
-0.80
2.50
5.31
5.89
3.62
-0.53
-4.48
-6.16
-4.64
-0.70
3.61
6.04
5.40
2.19
-1.72
-4.20
-4.05
-1.67
1.32
3.06
2.59
0.38
-2.07
-3.14
-2.07
0.54
3.10
4.00
2.52
-0.66
-3.80
-5.04
-3.52
0.08
3.82
5.55
4.14
0.19
-4.22
-6.71
-5.92
-2.35
1.97
4.63
4.28
1.32
-2.34
-4.49
-3.96
-1.19
2.05
3.81
3.12
0.52
-2.33
-3.69
-2.74
-0.09
2.65
3.82
2.73
-0.01
-2.77
-3.89
-2.62
0.42
3.53
4.89
3.61
0.27
-3.31
-5.10
-3.99
-0.47
3.58
5.93
5.25
1.90
-2.27
-4.96
-4.78
-1.99
1.68
4.11
4.03
1.71
-1.31
-3.23
-3.05
-1.14
1.07
2.03
1.04
-1.33
-3.60
-4.25
-2.66
0.49
3.58
4.89
3.64
0.45
-2.89
-4.41
-3.06
0.61
4.68
6.90
5.95
2.24
-2.24
-5.07
-4.74
-1.57
2.48
4.98
4.45
1.24
-2.71
-5.04
-4.38
-1.15
2.72
4.96
4.34
1.33
-2.24
-4.30
-3.76
-1.10
1.94
3.50
2.65
-0.12
-3.19
-4.78
-4.00
-1.28
1.84
3.64
3.12
0.65
-2.37
-4.20
-3.81
-1.46
1.42
3.08
2.43
-0.24
-3.36
-5.00
-3.97
-0.63
3.22
5.37
4.47
0.90
-3.33
-5.75
-4.83
-0.91
3.89
6.90
6.45
2.85
-1.79
-4.75
-4.34
-0.84
3.64
6.45
5.95
2.46
-1.97
-4.78
-4.42
-1.22
2.90
5.56
5.30
2.43
-1.34
-3.88
-3.94
-1.77
1.07
2.78
2.30
-0.04
-2.81
-4.35
-3.75
-1.38
1.36
2.83
2.16
-0.29
-3.10
-4.63
-3.93
-1.34
1.76
3.70
3.46
1.25
-1.61
-3.46
-3.25
-1.15
1.57
3.21
2.73
0.31
-2.64
-4.34
-3.62
-0.71
2.82
4.93
4.28
1.12
-2.79
-5.14
-4.43
-0.90
3.49
6.22
5.62
1.95
-2.78
-5.92
-5.74
-2.41
2.13
5.34
5.57
2.94
-0.81
-3.46
-3.57
-1.35
1.69
3.61
3.31
1.04
-1.75
-3.35
-2.77
-0.36
2.39
3.73
2.62
-0.58
-4.20
-6.21
-5.31
-1.74
2.74
5.77
5.70
2.56
-1.92
-5.29
-5.77
-3.25
0.69
3.74
4.26
2.19
-1.02
-3.38
-3.50
-1.44
1.44
3.39
3.32
1.38
-1.16
-2.73
-2.38
-0.32
2.20
3.65
3.05
0.61
-2.35
-4.11
-3.50
-0.68
2.93
5.31
5.05
2.20
-1.68
-4.34
-4.17
-1.22
2.81
5.48
5.07
1.66
-2.89
-6.01
-5.94
-2.75
1.65
4.70
4.67
1.69
-2.36
-4.99
-4.63
-1.50
2.49
4.95
4.41
1.22
-2.72
-5.06
-4.45
-1.27
2.60
4.90
4.30
1.17
-2.73
-5.24
-5.05
-2.40
1.13
3.58
3.70
1.64
-1.23
-3.17
-3.08
-1.11
1.46
3.05
2.71
0.64
-1.92
-3.43
-3.01
-0.89
1.71
3.28
2.94
0.91
-1.60
-3.12
-2.74
-0.67
1.93
3.61
3.47
1.66
-0.73
-2.30
-2.17
-0.45
1.79
3.24
3.02
1.26
-0.99
-2.42
-2.16
-0.33
1.99
3.46
3.21
1.39
-0.93
-2.34
-2.01
-0.12
2.20
3.53
3.04
0.95
-1.54
-3.01
-2.63
-0.65
1.72
3.07
2.55
0.47
-1.99
-3.37
-2.83
-0.62
2.04
3.62
3.21
0.99
-1.82
-3.69
-3.63
-1.75
0.80
2.50
2.35
0.44
-2.10
-3.74
-3.47
-1.36
1.39
3.15
2.80
0.40
-2.82
-5.08
-5.11
-2.80
0.64
3.38
4.04
2.44
-0.30
-2.44
-2.63
-0.74
2.10
4.14
4.09
1.87
-1.33
-3.75
-4.07
-2.20
0.68
2.81
2.90
0.89
-2.06
-4.18
-4.20
-2.05
1.04
3.28
3.36
1.23
-1.86
-4.05
-3.99
-1.59
1.84
4.38
4.59
2.35
-1.05
-3.65
-3.98
-1.92
1.23
3.51
3.49
1.08
-2.34
-4.80
-4.85
-2.41
1.14
3.78
4.01
1.73
-1.72
-4.31
-4.54
-2.27
1.20
3.89
4.30
2.28
-0.89
-3.26
-3.38
-1.15
2.09
4.40
4.37
1.96
-1.48
-3.98
-4.16
-2.01
1.14
3.38
3.40
1.24
-1.76
-3.75
-3.45
-0.93
2.49
4.95
5.17
3.14
0.09
-2.22
-2.53
-0.78
1.90
3.84
3.86
1.90
-0.95
-3.10
-3.35
-1.63
1.05
3.13
3.48
1.98
-0.43
-2.34
-2.69
-1.38
0.69
2.17
2.13
0.53
-1.69
-3.27
-3.28
-1.72
0.53
2.24
2.57
1.49
-0.19
-1.30
-1.10
0.38
2.23
3.21
2.51
0.23
-2.55
-4.32
-3.98
-1.49
1.96
4.54
4.79
2.49
-1.14
-4.08
-4.68
-2.59
0.96
3.90
4.55
2.63
-0.62
-3.23
-3.70
-1.88
0.97
3.01
3.03
1.11
-1.50
-3.15
-2.80
-0.66
2.00
3.56
3.02
0.58
-2.45
-4.37
-4.01
-1.45
2.00
4.45
4.49
2.02
-1.67
-4.56
-5.10
-3.04
0.43
3.36
4.24
2.80
0.10
-2.17
-2.77
-1.58
0.35
1.57
1.14
-0.76
-2.98
-4.06
-3.11
-0.43
2.63
4.40
3.79
1.01
-2.49
-4.77
-4.52
-1.76
2.04
4.81
4.98
2.46
-1.35
-4.34
-4.87
-2.72
0.83
3.77
4.56
2.99
0.21
-2.03
-2.42
-0.83
1.63
3.37
3.31
1.44
-1.13
-2.89
-2.84
-1.03
1.43
3.07
2.89
0.91
-1.78
-3.68
-3.73
-1.91
0.71
2.61
2.69
0.91
-1.67
-3.52
-3.53
-1.67
0.93
2.69
2.48
0.33
-2.58
-4.53
-4.28
-1.80
1.62
4.12
4.32
2.11
-1.26
-3.90
-4.37
-2.49
0.52
2.77
2.90
0.83
-2.15
-4.18
-3.96
-1.54
1.73
3.97
3.90
1.58
-1.60
-3.79
-3.71
-1.37
1.86
4.15
4.20
1.99
-1.17
-3.46
-3.59
-1.50
1.52
3.66
3.64
1.45
-1.63
-3.79
-3.75
-1.49
1.75
4.16
4.44
2.53
-0.44
-2.78
-3.24
-1.74
0.68
2.47
2.53
0.85
-1.49
-3.02
-2.73
-0.70
1.93
3.62
3.32
1.07
-2.01
-4.37
-4.89
-3.48
-1.14
0.65
0.74
-1.04
-3.86
-6.36
-7.42
-6.78
-5.14
-3.71
-3.55
-4.98
-7.44
-9.86
-11.25
-11.20
-10.10
-8.84
-8.37
-9.24
-11.38
-14.22
-17.08
-19.45
-21.22
-22.57
-23.77
-25.03
-26.49
-28.30
-30.73
-34.12
-38.67
-44.09
-49.53
-53.88
-56.33
-57.04
-57.34
-59.25
-64.49
-73.45
-84.61
-95.05
-101.50
-101.64
-95.11
-83.66
-70.84
-61.37
-59.84
-68.96
-87.53
-109.48
-125.14
-124.73
-102.82
-61.26
-8.66
43.37
85.53
114.55
133.43
148.32
164.20
182.27
200.14
214.46
223.59
228.55
231.88
235.30
238.22
237.98
231.47
216.97
195.32
169.88
144.88
123.64
107.29
94.47
82.30
67.94
50.07
29.45
8.41
-10.29
-24.94
-35.42
-43.50
-51.93
-63.25
-79.10
-99.64
-123.40
-147.20
-166.53
-176.44
-173.24
-155.93
-127.18
-92.75
-59.51
-32.86
-14.85
-3.85
4.02
12.41
23.10
35.36
46.59
53.91
55.32
50.36
40.05
26.46
12.04
-0.61
-8.98
-11.52
-8.09
-0.15
9.32
16.39
16.52
5.87
-17.01
-50.08
-87.69
-121.82
-144.84
-152.32
-144.53
-124.35
-97.73
-70.35
-45.15
-22.13
1.47
27.65
55.37
80.19
95.33
93.86
71.50
28.49
-29.72
-93.18
-149.82
-188.72
-202.92
-191.16
-157.57
-109.38
-54.37
0.79
50.82
91.06
117.34
126.75
119.10
98.04
70.91
46.47
31.60
28.71
35.09
44.66
50.91
49.77
41.08
28.15
16.06
9.19
9.56
16.08
25.43
33.75
38.41
38.96
36.88
34.24
32.23
30.39
27.04
20.72
11.58
1.77
-5.43
-7.51
-4.21
2.07
7.56
9.22
6.47
1.46
-2.24
-1.97
2.42
8.36
12.16
11.34
6.17
-0.36
-4.20
-2.68
3.87
12.20
17.86
17.65
11.35
1.83
-6.44
-9.80
-7.24
-0.85
5.36
7.69
4.66
-2.24
-9.43
-13.23
-11.85
-6.32
0.04
3.58
2.26
-3.25
-9.99
-14.44
-14.48
-10.65
-5.74
-3.14
-4.74
-9.90
-15.84
-19.40
-19.13
-16.23
-13.82
-14.64
-18.90
-23.46
-23.14
-13.79
4.73
27.45
46.04
52.85
45.24
27.87
11.05
5.77
17.67
43.42
71.95
90.32
91.22
77.47
60.51
53.64
63.75
86.82
110.13
120.06
110.43
86.33
60.93
47.32
50.50
64.30
75.24
70.94
48.02
14.80
-12.48
-18.03
5.20
51.84
106.50
150.97
172.08
166.67
141.34
108.04
78.00
57.24
45.50
38.10
29.27
15.10
-5.22
-30.22
-57.91
-87.41
-119.28
-154.29
-191.13
-224.45
-245.57
-245.89
-221.85
-178.53
-129.04
-89.01
-69.10
-69.45
-80.02
-86.68
-79.71
-59.56
-36.08
-21.98
-24.46
-40.40
-58.24
-65.27
-55.51
-33.69
-12.28
-3.72
-12.74
-33.27
-51.52
-54.28
-36.78
-6.09
22.30
33.07
19.72
-11.07
-42.45
-56.39
-43.53
-8.73
31.06
56.03
54.32
28.85
-4.23
-24.62
-19.36
9.52
46.17
70.07
67.82
40.78
4.08
-22.54
-26.13
-7.98
17.70
32.78
26.14
-0.10
-32.04
-52.87
-52.79
-34.40
-10.71
3.24
-0.83
-19.97
-42.49
-55.45
-52.39
-36.71
-19.10
-10.62
-15.80
-29.91
-41.71
-40.42
-22.18
7.15
34.58
47.10
38.93
15.18
-10.24
-21.91
-11.21
18.57
53.13
74.67
71.39
44.11
6.47
-22.27
-27.74
-8.49
22.85
46.75
47.82
23.90
-12.53
-41.58
-47.61
-28.74
2.09
24.94
24.85
0.83
-33.48
-58.27
-59.40
-36.71
-3.71
21.11
25.31
9.33
-14.51
-30.30
-28.18
-9.58
14.29
30.11
30.37
17.43
1.35
-6.86
-1.90
12.88
27.84
33.19
25.05
8.11
-7.01
-9.82
3.83
28.77
52.75
63.09
53.73
29.19
2.59
-11.30
-4.38
19.91
48.00
64.18
59.65
37.90
12.88
0.58
9.24
34.32
61.20
74.20
65.93
41.40
14.25
-2.52
-5.10
-1.39
-5.89
-30.29
-75.89
-132.10
-181.83
-210.15
-210.97
-188.21
-151.55
-110.20
-68.70
-26.97
15.97
58.04
92.90
112.35
110.60
88.04
51.66
12.22
-20.13
-39.72
-46.46
-44.60
-39.76
-36.11
-34.93
-34.74
-32.67
-26.21
-14.60
0.58
15.83
27.41
32.97
32.76
29.50
26.85
27.36
31.06
35.53
37.46
34.81
28.21
20.71
16.11
16.60
21.45
27.24
29.72
26.18
17.07
5.96
-2.53
-5.34
-2.95
0.69
0.57
-5.99
-16.74
-24.88
-22.75
-6.72
19.52
45.56
59.34
53.75
30.98
1.79
-20.38
-26.89
-18.48
-4.26
4.45
1.29
-11.29
-23.89
-26.42
-14.90
5.66
23.93
29.02
17.02
-6.54
-29.58
-40.43
-34.49
-16.82
0.73
6.50
-4.44
-27.38
-50.54
-61.68
-54.89
-33.34
-7.36
11.67
17.47
11.68
2.09
-2.75
1.19
10.98
18.78
16.81
2.46
-19.43
-38.59
-44.92
-34.16
-10.70
14.04
27.63
23.29
3.93
-18.81
-30.76
-23.11
2.35
33.34
53.50
51.37
27.14
-6.85
-32.49
-36.07
-16.04
15.82
41.15
45.50
26.55
-4.67
-30.58
-37.47
-23.52
0.62
18.94
19.86
2.91
-21.45
-38.97
-40.48
-27.08
-8.97
1.39
-2.96
-19.45
-37.71
-45.95
-38.26
-18.34
2.23
10.34
-1.32
-29.76
-62.64
-84.07
-82.58
-57.14
-18.24
17.12
33.57
24.51
-5.43
-43.83
-77.22
-97.48
-104.47
-103.39
-101.02
-101.87
-106.27
-111.69
-115.23
-115.78
-113.96
-110.71
-106.24
-98.40
-83.49
-57.68
-19.32
29.31
81.38
126.96
156.69
166.01
158.52
145.38
140.70
154.42
186.90
228.48
264.37
282.32
278.48
258.45
232.44
210.29
196.94
191.66
190.60
190.22
189.35
188.51
188.27
187.16
181.97
169.14
146.78
116.45
81.46
45.93
13.02
-16.21
-43.45
-72.22
-106.66
-149.67
-201.29
-257.77
-311.89
-355.04
-378.95
-379.82
-359.39
-323.77
-280.38
-235.00
-190.29
-146.71
-104.78
-67.08
-38.33
-23.01
-22.41
-32.99
-47.41
-57.50
-57.55
-46.17
-25.74
-0.60
25.45
49.88
71.18
87.90
98.45
101.75
97.84
87.61
71.36
48.08
15.95
-25.38
-72.09
-115.15
-142.62
-144.28
-116.39
-64.05
0.58
62.61
109.80
136.20
142.82
135.98
124.29
115.42
113.59
118.50
125.75
129.25
124.47
111.19
94.07
80.51
76.99
85.75
103.78
124.50
141.10
149.40
149.14
142.87
133.70
123.37
111.38
95.78
74.57
47.27
15.35
-18.31
-50.54
-79.16
-103.25
-122.59
-136.32
-142.13
-136.71
-117.81
-86.55
-48.49
-12.28
13.92
26.28
27.32
24.50
26.31
37.64
57.49
79.89
97.55
105.69
103.89
95.76
86.83
81.88
83.20
90.37
101.12
111.85
119.75
122.99
120.48
111.58
96.48
75.68
50.04
20.47
-12.33
-48.02
-86.87
-129.38
-175.60
-224.37
-272.73
-315.72
-347.14
-361.22
-354.77
-329.31
-291.55
-251.90
-220.95
-205.62
-206.36
-217.09
-227.73
-228.41
-213.42
-183.17
-143.32
-101.73
-65.02
-35.99
-13.50
5.64
23.96
41.47
55.88
64.72
68.12
69.75
75.13
87.92
106.84
125.65
136.59
135.47
124.95
113.79
112.08
125.34
151.14
179.81
198.93
198.62
174.97
130.37
71.47
6.58
-56.34
-110.58
-151.26
-175.98
-185.21
-182.17
-171.47
-157.64
-143.44
-129.45
-114.83
-98.66
-80.97
-63.18
-47.25
-35.11
-27.82
-25.23
-25.98
-27.63
-26.97
-20.33
-4.42
21.99
56.76
93.78
124.14
139.19
134.25
111.29
78.66
47.23
25.12
13.70
7.59
-1.11
-16.80
-36.28
-49.70
-47.13
-25.84
5.92
31.93
36.57
13.76
-29.22
-75.10
-105.63
-110.60
-91.85
-60.80
-31.17
-12.00
-4.13
-1.41
4.59
19.47
43.20
70.69
94.68
109.49
113.39
108.86
100.42
91.80
83.81
74.55
61.64
44.70
26.54
12.26
6.42
10.37
21.15
32.85
39.62
38.55
30.47
19.14
8.93
2.82
1.50
3.70
7.69
12.73
19.99
31.94
50.89
77.20
108.53
140.40
168.01
188.40
200.37
205.59
207.06
207.17
206.42
203.38
195.81
182.22
162.84
139.40
114.28
89.13
64.39
39.67
14.63
-10.25
-33.57
-53.42
-68.31
-77.73
-82.47
-84.27
-85.07
-86.20
-87.96
-89.69
-90.21
-88.60
-84.63
-78.90
-72.57
-66.82
-62.33
-59.07
-56.48
-53.83
-50.62
-46.80
-42.74
-39.10
-36.93
-37.81
-43.75
-56.18
-74.78
-96.46
-115.40
-124.90
-120.17
-100.43
-69.24
-32.54
2.66
31.24
50.33
58.19
53.71
36.87
9.82
-22.32
-52.43
-73.62
-81.38
-76.10
-62.45
-46.52
-33.07
-24.17
-19.40
-17.18
-16.15
-15.45
-14.74
-13.72
-11.93
-8.89
-4.33
1.50
7.86
13.77
18.37
21.12
21.99
21.51
20.45
19.51
19.06
19.06
19.15
18.90
17.97
16.34
14.29
12.22
10.59
9.67
9.47
9.76
10.21
10.34
9.86
8.72
7.18
5.68
4.77
4.77
5.72
7.27
8.73
9.44
8.97
7.36
5.23
3.48
2.95
3.98
6.22
8.68
10.19
9.96
7.84
4.68
1.77
0.13
0.14
1.18
1.86
0.69
-3.61
-12.06
-25.13
-42.72
-63.34
-83.73
-99.30
-105.57
-100.26
-84.35
-63.36
-44.15
-32.26
-29.65
-34.47
-42.69
-50.52
-56.01
-59.17
-60.94
-61.60
-60.36
-55.80
-46.87
-33.85
-18.23
-2.00
12.95
25.74
36.56
46.22
54.80
62.90
70.22
75.88
78.91
78.77
75.66
70.51
64.64
59.62
55.91
53.45
51.67
49.84
47.34
43.96
39.96
35.89
32.44
30.06
28.83
28.42
28.21
27.57
26.11
23.87
21.34
19.21
18.17
18.54
20.08
22.09
23.67
24.13
23.33
21.82
20.62
20.73
22.73
26.36
30.65
34.31
36.42
36.72
35.80
34.76
34.68
36.37
40.33
46.73
55.06
63.59
69.12
67.66
55.99
33.57
3.48
-28.28
-55.15
-72.60
-79.79
-79.23
-74.88
-69.91
-65.57
-61.41
-56.58
-51.03
-45.67
-41.80
-40.11
-40.13
-40.54
-39.87
-37.18
-32.62
-27.24
-22.43
-19.30
-18.17
-18.49
-19.14
-18.96
-17.24
-14.05
-10.16
-6.64
-4.40
-3.78
-4.43
-5.49
-5.96
-5.15
-3.00
-0.10
2.59
4.16
4.15
2.78
0.88
-0.49
-0.46
1.18
3.82
6.37
7.62
6.83
4.00
-0.03
-4.07
-7.28
-9.38
-11.10
-13.45
-17.52
-23.99
-33.24
-45.28
-59.59
-74.54
-86.66
-92.10
-87.22
-70.82
-45.28
-16.15
9.97
28.13
36.90
38.26
35.80
32.76
30.49
28.61
26.17
22.87
19.48
17.25
16.99
18.37
20.21
21.17
20.21
17.39
13.60
10.13
8.02
7.64
8.54
9.78
10.34
9.61
7.62
4.97
2.47
0.78
0.14
0.30
0.69
0.74
0.10
-1.23
-2.94
-4.60
-5.89
-6.69
-7.13
-7.44
-7.91
-8.68
-9.75
-11.02
-12.30
-13.49
-14.53
-15.43
-16.24
-16.99
-17.66
-18.16
-18.40
-18.26
-17.64
-16.47
-14.73
-12.33
-9.41
-6.07
-2.46
1.26
4.86
8.19
11.08
13.42
15.14
16.19
16.58
16.35
15.57
14.31
12.69
10.84
8.86
6.86
4.86
2.93
1.05
-0.80
-2.66
-4.50
-6.27
-7.88
-9.28
-10.52
-11.53
-12.39
-13.24
-14.17
-15.21
-16.28
-17.27
-18.15
-19.09
-20.04
-21.23
-22.95
-25.37
-28.43
-31.80
-35.03
-37.77
-40.03
-41.60
-42.80
-44.12
-45.91
-48.15
-50.35
-51.79
-51.86
-50.46
-47.26
-42.67
-37.37
-31.82
-25.83
-18.39
-7.45
10.17
32.62
60.02
91.68
125.24
156.73
181.21
194.18
193.07
178.16
152.45
121.49
90.80
64.70
45.64
34.12
29.12
28.68
30.49
32.48
33.83
34.26
33.91
32.91
31.16
28.39
24.52
19.91
15.29
11.78
9.88
9.32
9.37
9.34
9.05
8.98
9.73
11.64
14.71
18.32
21.62
23.88
24.71
24.14
22.51
20.36
18.20
16.43
15.07
13.80
12.03
9.15
4.82
-0.87
-7.40
-13.86
-19.23
-22.63
-23.72
-23.00
-21.85
-22.30
-26.31
-35.09
-48.53
-65.15
-82.57
-98.14
-109.44
-114.60
-112.42
-102.60
-86.02
-64.90
-42.47
-22.11
-6.33
4.02
9.81
12.82
14.70
16.17
16.99
16.44
14.15
10.54
6.73
4.08
3.58
5.38
8.78
12.46
14.94
15.15
12.66
7.83
1.59
-4.99
-10.98
-15.87
-19.49
-21.85
-22.86
-22.39
-20.36
-17.02
-13.03
-9.35
-6.87
-5.98
-6.38
-7.22
-7.44
-6.25
-3.46
0.47
4.70
8.32
10.63
11.30
10.40
8.24
5.29
2.00
-1.22
-4.04
-6.22
-7.54
-7.83
-7.04
-5.28
-2.89
-0.43
1.41
1.99
1.00
-1.36
-4.38
-7.03
-8.31
-7.70
-5.35
-2.08
0.92
2.61
2.40
0.42
-2.67
-5.94
-8.55
-9.85
-9.48
-7.25
-3.19
2.42
8.91
15.33
20.62
23.99
25.18
24.57
23.01
21.39
20.32
19.90
19.86
19.78
19.40
18.71
17.88
17.13
16.61
16.43
16.61
17.13
17.85
18.48
18.62
17.87
16.02
13.15
9.62
5.93
2.56
-0.22
-2.34
-3.87
-4.96
-5.74
-6.33
-6.82
-7.31
-7.83
-8.44
-9.12
-9.91
-10.80
-11.84
-13.07
-14.54
-16.34
-18.49
-20.94
-23.52
-25.96
-27.95
-29.25
-29.76
-29.54
-28.83
-27.88
-26.87
-25.74
-24.19
-21.72
-17.85
-12.36
-5.48
2.20
9.85
16.78
22.64
27.41
31.32
34.58
37.30
39.48
41.12
42.38
43.46
44.45
45.25
45.57
45.05
43.52
40.99
37.69
33.85
29.61
24.97
19.85
14.24
8.28
2.34
-3.12
-7.66
-11.03
-13.27
-14.71
-15.84
-17.12
-18.86
-21.13
-23.81
-26.66
-29.39
-31.74
-33.38
-33.99
-33.36
-31.49
-28.70
-25.57
-22.83
-21.07
-20.56
-21.22
-22.63
-24.24
-25.61
-26.51
-26.90
-26.89
-26.47
-25.49
-23.68
-20.81
-16.88
-12.13
-6.99
-1.83
3.21
8.27
13.61
19.39
25.47
31.38
36.59
40.73
43.78
46.05
48.02
50.01
52.08
54.00
55.46
56.20
56.22
55.69
54.80
53.71
52.40
50.76
48.66
45.96
42.56
38.36
33.32
27.46
21.00
14.34
8.05
2.81
-0.81
-2.48
-2.20
-0.42
1.90
3.39
2.44
-2.40
-11.83
-25.51
-42.09
-59.70
-76.73
-92.41
-106.88
-120.60
-133.67
-145.19
-153.39
-156.27
-152.48
-141.94
-125.86
-106.21
-85.03
-63.93
-44.00
-26.04
-10.75
1.20
9.37
13.89
15.55
15.71
15.85
17.12
19.90
23.78
27.77
30.74
31.86
30.85
27.99
23.99
19.69
15.83
12.87
11.00
10.21
10.32
11.03
11.86
12.25
11.65
9.70
6.44
2.33
-1.86
-5.32
-7.49
-8.21
-7.81
-6.83
-5.89
-5.44
-5.61
-6.28
-7.16
-7.99
-8.51
-8.44
-7.34
-4.72
-0.19
6.15
13.54
20.67
26.19
29.24
29.86
28.80
27.12
25.57
24.33
23.17
21.80
20.14
18.42
16.90
15.60
14.25
12.47
9.96
6.74
3.10
-0.53
-3.79
-6.53
-8.76
-10.57
-12.07
-13.28
-14.19
-14.75
-14.94
-14.77
-14.33
-13.71
-12.99
-12.15
-11.13
-9.90
-8.49
-7.08
-5.87
-4.99
-4.38
-3.73
-2.65
-0.87
1.61
4.43
7.05
8.94
9.80
9.65
8.81
7.77
6.95
6.61
6.68
6.85
6.76
6.17
5.12
3.99
3.30
3.47
4.61
6.46
8.58
10.53
12.10
13.26
14.03
14.32
13.89
12.48
9.99
6.61
2.75
-1.15
-4.79
-8.07
-11.00
-13.51
-15.35
-16.12
-15.39
-12.96
-8.90
-3.54
2.67
9.32
16.10
22.75
28.89
33.92
36.97
37.04
33.39
25.97
15.67
4.22
-6.37
-14.49
-19.52
-21.83
-22.44
-22.36
-22.11
-21.64
-20.65
-18.97
-16.81
-14.63
-12.85
-11.65
-10.83
-10.10
-9.23
-8.25
-7.39
-6.95
-7.05
-7.60
-8.24
-8.46
-7.87
-6.37
-4.30
-2.37
-1.41
-2.06
-4.51
-8.42
-13.06
-17.53
-21.05
-23.07
-23.41
-22.14
-19.56
-16.03
-11.83
-7.13
-1.96
3.70
9.83
16.36
23.16
30.03
36.66
42.55
47.03
49.39
49.10
46.17
41.17
35.11
29.00
23.53
18.90
14.89
11.16
7.60
4.30
1.54
-0.50
-1.82
-2.57
-2.91
-2.91
-2.46
-1.47
0.04
1.79
3.37
4.35
4.54
4.00
3.01
1.90
0.91
0.13
-0.47
-0.95
-1.24
-1.23
-0.73
0.31
1.78
3.47
5.16
6.70
7.90
8.42
7.70
5.15
0.41
-6.32
-14.15
-21.70
-27.55
-30.73
-31.00
-28.87
-25.23
-21.01
-16.92
-13.31
-10.29
-7.82
-5.83
-4.31
-3.39
-3.27
-4.11
-5.87
-8.10
-9.96
-10.47
-8.80
-4.71
1.29
8.07
14.19
18.35
19.77
18.29
14.27
8.40
1.57
-5.26
-11.18
-15.46
-17.73
-18.08
-17.02
-15.26
-13.37
-11.60
-9.82
-7.65
-4.79
-1.17
2.95
7.11
10.94
14.27
17.21
19.99
22.72
25.23
27.09
27.83
27.18
25.29
22.59
19.62
16.77
14.21
11.94
9.99
8.47
7.59
7.45
8.03
9.17
10.86
13.30
16.85
21.82
28.07
34.86
40.92
44.91
45.81
43.32
37.95
30.75
22.96
15.69
9.65
5.13
2.01
-0.10
-1.78
-3.59
-5.98
-9.09
-12.67
-16.19
-18.99
-20.56
-20.72
-19.75
-18.20
-16.77
-16.00
-16.27
-17.76
-20.52
-24.51
-29.52
-35.07
-40.39
-44.63
-47.19
-47.99
-47.61
-47.01
-47.18
-48.58
-50.98
-53.49
-54.87
-54.05
-50.35
-43.65
-34.34
-23.19
-11.24
0.40
10.82
19.53
26.61
32.62
38.26
43.91
49.33
53.67
55.86
55.19
51.74
46.37
40.52
35.58
32.47
31.36
31.73
32.56
32.62
30.73
26.02
18.09
7.12
-6.03
-19.95
-32.94
-43.29
-49.71
-51.64
-49.34
-43.82
-36.55
-29.03
-22.35
-16.98
-12.69
-8.89
-5.00
-0.77
3.58
7.54
10.56
12.28
12.67
11.96
10.47
8.55
6.53
4.82
3.85
3.99
5.34
7.58
9.95
11.45
11.17
8.64
4.04
-1.88
-8.09
-13.73
-18.42
-22.36
-26.16
-30.41
-35.41
-41.00
-46.66
-51.81
-56.07
-59.35
-61.73
-63.22
-63.63
-62.57
-59.55
-54.13
-46.13
-35.76
-23.54
-10.14
3.73
17.35
30.01
40.92
49.49
55.36
58.54
59.52
59.15
58.44
58.05
58.13
58.23
57.92
56.94
55.25
53.13
51.09
49.64
48.85
48.08
46.30
43.11
38.84
34.23
29.95
26.59
24.35
22.97
21.81
19.90
16.49
9.75
-3.84
-28.16
-64.33
-108.28
-150.98
-181.48
-191.04
-175.43
-136.72
-82.42
-22.18
35.98
87.30
129.45
160.82
173.23
160.83
126.78
82.94
42.16
12.43
-3.77
-7.94
-4.23
2.12
7.64
10.79
11.63
11.41
12.18
15.61
21.78
28.44
32.70
33.02
29.46
22.68
13.59
3.27
-7.08
-16.28
-24.10
-30.84
-36.82
-42.54
-49.42
-58.81
-71.35
-86.96
-101.24
-110.85
-113.45
-108.35
-96.72
-81.54
-65.63
-50.68
-37.09
-24.55
-13.70
-5.89
-2.60
-4.17
-9.42
-14.28
-13.37
-2.27
20.75
53.54
91.51
125.89
152.52
166.31
164.55
146.90
115.23
73.80
28.13
-15.56
-52.26
-79.69
-98.75
-111.55
-120.66
-128.72
-137.58
-148.85
-163.26
-173.77
-174.22
-163.11
-143.32
-118.74
-92.36
-65.35
-40.33
-15.91
9.29
36.18
65.71
99.64
140.32
183.90
225.83
259.78
279.34
280.31
261.67
226.44
181.21
134.05
91.80
59.60
38.99
28.58
25.90
27.59
30.02
30.31
26.87
16.57
1.17
-13.56
-27.82
-43.48
-61.04
-78.91
-93.35
-99.85
-95.47
-79.77
-56.17
-30.54
-7.65
9.84
21.17
26.51
25.93
19.22
7.02
-9.15
-26.85
-42.45
-52.77
-56.39
-53.87
-47.21
-38.86
-30.61
-23.71
-19.07
-16.78
-16.50
-17.75
-19.83
-21.93
-23.29
-23.27
-21.68
-18.72
-14.59
-9.45
-3.48
2.98
9.42
15.15
19.51
21.98
22.41
21.17
18.95
16.44
14.08
11.87
9.49
6.57
3.05
-0.76
-4.23
-6.83
-8.32
-8.95
-9.20
-9.53
-10.11
-10.78
-11.28
-11.43
-11.33
-11.22
-11.32
-11.68
-12.17
-12.56
-12.67
-12.44
-11.95
-11.31
-10.64
-10.05
-9.64
-9.50
-9.72
-10.34
-11.33
-12.58
-13.92
-15.13
-15.99
-16.33
-16.01
-15.05
-13.53
-11.66
-9.68
-7.77
-6.07
-4.61
-3.39
-2.41
-1.69
-1.28
-1.18
-1.30
-1.49
-1.63
-1.67
-1.70
-1.84
-2.11
-2.39
-2.41
-1.92
-0.79
0.84
2.64
4.18
5.17
5.50
5.37
5.09
5.00
5.34
6.14
7.25
8.37
9.13
9.27
8.63
7.27
5.43
3.48
1.80
0.64
0.05
-0.09
-0.06
-0.09
-0.30
-0.61
-0.80
-0.63
-0.02
0.82
1.46
1.37
0.16
-2.30
-5.76
-9.70
-13.47
-16.37
-17.83
-17.48
-15.27
-11.56
-7.18
-3.19
-0.56
0.24
-0.51
-1.94
-2.93
-2.64
-0.84
2.10
5.44
8.45
10.71
12.16
13.01
13.51
13.81
13.92
13.76
13.28
12.58
11.92
11.63
11.93
12.83
14.08
15.28
16.03
16.11
15.52
14.44
13.12
11.81
10.68
9.79
9.11
8.53
7.85
6.88
5.54
3.88
2.13
0.65
-0.26
-0.46
-0.04
0.69
1.31
1.50
1.12
0.22
-0.96
-2.17
-3.21
-3.95
-4.34
-4.40
-4.15
-3.64
-2.91
-2.05
-1.14
-0.29
0.46
1.07
1.49
1.68
1.57
1.09
0.18
-1.09
-2.49
-3.68
-4.27
-4.00
-2.84
-1.01
1.12
3.15
4.76
5.79
6.20
6.02
5.32
4.29
3.23
2.55
2.65
3.81
5.98
8.88
12.01
14.91
17.23
18.83
19.70
19.83
19.21
17.76
15.44
12.38
8.76
4.84
0.88
-2.82
-5.77
-7.39
-7.21
-5.22
-2.12
0.87
2.49
2.05
-0.25
-3.45
-6.42
-8.40
-9.39
-9.89
-10.44
-11.16
-11.71
-11.52
-10.25
-8.02
-5.34
-2.85
-1.00
0.02
0.30
0.02
-0.66
-1.62
-2.77
-3.96
-5.04
-5.90
-6.51
-6.95
-7.37
-7.92
-8.69
-9.66
-10.68
-11.50
-11.80
-11.21
-9.44
-6.37
-2.13
2.90
8.14
12.98
16.95
19.79
21.50
22.29
22.47
22.34
22.11
21.85
21.59
21.30
20.94
20.44
19.69
18.60
17.16
15.49
13.84
12.53
11.76
11.53
11.58
11.52
10.96
9.64
7.39
4.13
-0.30
-6.04
-13.06
-21.04
-29.32
-37.10
-43.77
-49.29
-54.31
-59.85
-66.49
-73.70
-79.52
-81.14
-76.08
-63.38
-44.27
-21.91
-0.35
16.75
27.07
29.79
25.22
14.36
-1.21
-19.24
-36.78
-50.51
-57.60
-56.46
-47.61
-33.57
-18.10
-4.87
3.70
7.01
5.99
2.36
-2.00
-6.02
-9.78
-13.97
-19.00
-24.25
-28.12
-28.67
-24.68
-15.85
-3.38
10.32
22.75
32.42
39.37
44.50
48.67
52.05
54.64
56.41
57.40
58.02
59.25
62.31
68.05
76.65
83.50
85.05
80.79
72.69
62.56
51.10
38.65
26.01
14.49
6.00
0.58
-2.20
-3.56
-4.99
-7.39
-10.69
-14.24
-17.50
-20.44
-23.29
-26.70
-31.89
-40.12
-51.80
-66.08
-81.01
-94.06
-102.78
-105.12
-99.89
-87.30
-68.77
-46.46
-22.98
-1.06
16.69
28.25
32.72
30.72
23.99
14.91
5.90
-1.26
-5.73
-7.48
-6.91
-4.48
-0.48
4.70
10.40
15.66
19.43
21.02
20.37
18.14
15.39
13.19
12.13
12.26
13.22
14.62
16.20
17.77
19.10
19.77
19.28
17.26
13.78
9.38
4.91
1.13
-1.55
-3.14
-3.94
-4.25
-4.24
-3.93
-3.31
-2.44
-1.47
-0.56
0.18
0.72
1.12
1.49
1.93
2.57
3.56
5.00
6.88
9.09
11.39
13.57
15.56
17.43
19.25
20.97
22.33
22.93
22.41
20.68
17.97
14.69
11.24
7.83
4.48
1.19
-1.99
-4.83
-7.11
-8.73
-9.81
-10.65
-11.56
-12.70
-14.01
-15.27
-16.17
-16.49
-16.15
-15.22
-13.91
-12.47
-11.16
-10.13
-9.41
-8.85
-8.26
-7.49
-6.50
-5.40
-4.38
-3.59
-3.09
-2.81
-2.56
-2.18
-1.58
-0.75
0.25
1.32
2.36
3.27
3.98
4.42
4.53
4.27
3.64
2.72
1.69
0.81
0.31
0.37
0.97
1.92
2.97
3.83
4.29
4.26
3.80
3.06
2.35
2.00
2.35
3.57
5.62
8.17
10.71
12.71
13.81
13.89
13.09
11.68
10.01
8.33
6.78
5.39
4.10
2.86
1.67
0.53
-0.61
-1.98
-3.97
-6.99
-11.28
-16.74
-22.89
-29.00
-34.30
-38.23
-40.48
-41.05
-40.11
-37.99
-35.14
-32.06
-29.26
-27.15
-25.91
-25.49
-25.71
-26.26
-26.90
-27.45
-27.81
-27.97
-27.96
-27.72
-27.13
-25.97
-24.00
-21.08
-17.15
-12.13
-5.93
1.64
10.63
20.78
31.37
41.36
49.70
55.75
59.54
61.66
62.99
64.31
66.03
68.20
70.66
73.11
75.24
76.66
76.93
75.66
72.59
67.74
61.45
54.24
46.76
39.54
33.04
27.56
23.30
20.33
18.50
17.37
16.22
14.21
10.69
5.48
-1.02
-7.99
-14.55
-20.15
-24.75
-28.72
-32.50
-36.35
-40.17
-43.61
-46.28
-47.90
-48.37
-47.71
-45.98
-43.25
-39.63
-35.29
-30.51
-25.61
-20.88
-16.56
-12.82
-9.82
-7.67
-6.45
-6.11
-6.49
-7.29
-8.21
-8.97
-9.44
-9.60
-9.53
-9.28
-8.89
-8.33
-7.59
-6.76
-6.03
-5.63
-5.69
-6.17
-6.87
-7.49
-7.76
-7.53
-6.76
-5.47
-3.62
-1.18
1.84
5.26
8.68
11.57
13.42
13.89
12.93
10.77
7.75
4.25
0.61
-2.88
-5.93
-8.28
-9.76
-10.40
-10.39
-10.04
-9.66
-9.39
-9.19
-8.87
-8.24
-7.19
-5.83
-4.44
-3.46
-3.24
-3.99
-5.58
-7.64
-9.72
-11.52
-13.01
-14.44
-16.10
-18.12
-20.25
-21.91
-22.45
-21.49
-19.06
-15.59
-11.71
-8.02
-4.87
-2.47
-0.88
-0.16
-0.30
-1.23
-2.74
-4.59
-6.54
-8.39
-9.96
-10.97
-11.03
-9.69
-6.65
-1.87
4.28
11.20
18.25
24.96
30.99
36.14
40.22
43.05
44.54
44.80
44.07
42.66
40.76
38.36
35.37
31.75
27.78
24.01
21.09
19.45
18.98
19.04
18.65
16.77
12.77
6.66
-0.80
-8.20
-13.90
-16.43
-15.06
-10.07
-2.79
4.79
10.69
13.54
12.97
9.61
4.64
-0.71
-5.54
-9.44
-12.33
-14.24
-15.21
-15.23
-14.40
-12.96
-11.32
-9.89
-8.99
-8.62
-8.59
-8.56
-8.27
-7.63
-6.76
-5.90
-5.29
-5.04
-5.09
-5.27
-5.36
-5.23
-4.82
-4.21
-3.53
-2.92
-2.49
-2.30
-2.33
-2.49
-2.66
-2.72
-2.63
-2.39
-2.05
-1.67
-1.30
-0.94
-0.57
-0.16
0.28
0.72
1.09
1.38
1.56
1.66
1.69
1.66
1.54
1.34
1.06
0.76
0.54
0.48
0.62
0.88
1.13
1.26
1.21
1.04
0.84
0.68
0.56
0.41
0.19
-0.13
-0.45
-0.64
-0.62
-0.39
-0.00
0.42
0.80
1.09
1.30
1.47
1.60
1.72
1.80
1.84
1.82
1.76
1.70
1.72
1.86
2.13
2.45
2.69
2.71
2.45
1.97
1.43
0.98
0.69
0.50
0.27
-0.10
-0.62
-1.19
-1.69
-2.02
-2.22
-2.44
-2.81
-3.40
-4.15
-4.93
-5.62
-6.12
-6.43
-6.61
-6.69
-6.70
-6.62
-6.42
-6.06
-5.53
-4.82
-3.94
-2.93
-1.82
-0.70
0.34
1.23
1.89
2.32
2.54
2.58
2.48
2.30
2.09
1.93
1.88
1.97
2.19
2.46
2.65
2.65
2.38
1.90
1.36
1.02
1.09
1.66
2.66
3.80
4.77
5.31
5.31
4.84
4.06
3.15
2.22
1.30
0.39
-0.48
-1.22
-1.73
-1.94
-1.86
-1.58
-1.24
-0.99
-0.86
-0.83
-0.78
-0.65
-0.43
-0.17
0.02
0.08
-0.02
-0.28
-0.66
-1.09
-1.53
-1.91
-2.19
-2.33
-2.37
-2.38
-2.46
-2.67
-2.97
-3.30
-3.61
-3.89
-4.20
-4.62
-5.17
-5.81
-6.41
-6.82
-6.92
-6.70
-6.28
-5.85
-5.68
-5.94
-6.64
-7.60
-8.52
-9.04
-8.95
-8.26
-7.22
-6.23
-5.67
-5.84
-6.76
-8.19
-9.61
-10.20
-9.07
-5.40
1.26
10.72
22.15
34.22
45.42
54.54
60.91
64.52
65.84
65.51
63.99
61.41
57.55
52.17
45.30
37.46
29.57
22.54
16.87
12.37
8.32
3.88
-1.34
-7.09
-12.63
-17.20
-20.47
-22.65
-24.35
-26.14
-28.26
-30.49
-32.40
-33.50
-33.53
-32.40
-30.16
-26.86
-22.56
-17.43
-11.86
-6.43
-1.87
1.29
2.89
3.26
3.10
3.17
4.01
5.60
7.35
8.28
7.37
3.91
-2.11
-9.95
-18.24
-25.38
-29.98
-31.35
-29.54
-25.23
-19.36
-12.78
-6.11
0.26
5.95
10.53
13.54
14.72
14.20
12.55
10.60
9.14
8.57
8.83
9.52
10.22
10.83
11.61
13.03
15.40
18.63
22.11
24.98
26.43
26.05
23.93
20.60
16.74
12.91
9.42
6.28
3.37
0.51
-2.44
-5.53
-8.78
-12.21
-15.77
-19.34
-22.65
-25.29
-26.87
-27.11
-26.04
-23.96
-21.39
-18.92
-16.99
-15.76
-15.15
-14.89
-14.72
-14.49
-14.13
-13.69
-13.18
-12.62
-12.00
-11.37
-10.80
-10.35
-10.00
-9.65
-9.18
-8.60
-8.05
-7.74
-7.84
-8.33
-8.96
-9.39
-9.42
-9.06
-8.48
-7.91
-7.46
-7.05
-6.51
-5.68
-4.58
-3.41
-2.48
-2.07
-2.28
-2.99
-3.95
-4.85
-5.46
-5.65
-5.42
-4.80
-3.82
-2.54
-1.03
0.58
2.13
3.44
4.42
5.01
5.28
5.29
5.12
4.81
4.37
3.83
3.23
2.65
2.14
1.72
1.41
1.14
0.88
0.63
0.42
0.26
0.17
0.08
-0.14
-0.55
-1.17
-1.88
-2.48
-2.82
-2.79
-2.43
-1.84
-1.15
-0.44
0.26
0.96
1.67
2.36
2.99
3.50
3.90
4.18
4.37
4.45
4.39
4.19
3.87
3.52
3.22
3.04
2.96
2.92
2.81
2.58
2.23
1.79
1.28
0.67
-0.06
-0.93
-1.85
-2.62
-2.99
-2.77
-1.90
-0.49
1.22
2.94
4.44
5.58
6.27
6.50
6.27
5.66
4.85
4.09
3.58
3.44
3.59
3.82
3.91
3.70
3.20
2.53
1.85
1.22
0.63
0.04
-0.55
-1.05
-1.36
-1.46
-1.42
-1.44
-1.67
-2.18
-2.87
-3.53
-3.92
-3.89
-3.38
-2.44
-1.19
0.28
1.81
3.28
4.55
5.48
5.94
5.90
5.38
4.47
3.37
2.29
1.40
0.82
0.56
0.54
0.61
0.65
0.58
0.40
0.13
-0.15
-0.42
-0.66
-0.89
-1.17
-1.58
-2.17
-2.97
-3.92
-4.85
-5.58
-5.90
-5.68
-4.88
-3.58
-1.91
-0.06
1.80
3.52
5.02
6.22
7.07
7.51
7.48
7.01
6.20
5.24
4.34
3.66
3.27
3.11
3.06
2.96
2.72
2.32
1.82
1.33
0.92
0.63
0.39
0.09
-0.37
-1.06
-1.97
-3.03
-4.07
-4.96
-5.52
-5.62
-5.20
-4.24
-2.81
-1.09
0.69
2.31
3.63
4.58
5.17
5.43
5.37
5.03
4.48
3.81
3.17
2.68
2.41
2.34
2.34
2.28
2.03
1.55
0.87
0.12
-0.58
-1.13
-1.50
-1.74
-1.93
-2.16
-2.51
-2.97
-3.51
-4.05
-4.48
-4.69
-4.55
-3.95
-2.84
-1.29
0.55
2.43
4.06
5.22
5.80
5.83
5.42
4.72
3.88
3.00
2.19
1.53
1.11
1.00
1.16
1.48
1.77
1.87
1.66
1.19
0.56
-0.08
-0.63
-1.08
-1.48
-1.96
-2.59
-3.36
-4.16
-4.79
-5.05
-4.77
-3.94
-2.64
-1.08
0.51
1.94
3.09
3.93
4.47
4.75
4.77
4.55
4.09
3.45
2.71
1.99
1.42
1.09
1.00
1.08
1.20
1.19
0.93
0.39
-0.33
-1.07
-1.68
-2.07
-2.32
-2.61
-3.10
-3.88
-4.83
-5.71
-6.25
-6.25
-5.66
-4.61
-3.29
-1.88
-0.52
0.75
1.91
2.89
3.65
4.14
4.32
4.24
3.97
3.57
3.11
2.59
2.03
1.40
0.74
0.10
-0.47
-0.91
-1.21
-1.42
-1.58
-1.77
-2.04
-2.40
-2.86
-3.43
-4.11
-4.88
-5.66
-6.28
-6.54
-6.21
-5.22
-3.62
-1.65
0.37
2.16
3.57
4.62
5.38
5.91
6.20
6.16
5.74
5.02
4.19
3.52
3.21
3.30
3.62
3.91
3.94
3.59
2.95
2.19
1.48
0.91
0.45
0.06
-0.31
-0.67
-1.02
-1.37
-1.75
-2.20
-2.71
-3.14
-3.25
-2.78
-1.56
0.38
2.83
5.40
7.70
9.48
10.69
11.49
12.13
12.84
13.67
14.54
15.21
15.48
15.27
14.65
13.87
13.28
13.22
13.95
15.49
17.58
19.69
21.20
21.55
20.48
18.09
14.81
11.20
7.72
4.60
1.83
-0.80
-3.48
-6.23
-8.90
-11.20
-12.87
-13.79
-14.05
-13.89
-13.58
-13.31
-13.09
-12.84
-12.46
-11.92
-11.24
-10.48
-9.67
-8.77
-7.72
-6.42
-4.87
-3.11
-1.30
0.39
1.74
2.58
2.82
2.37
1.24
-0.59
-3.03
-5.98
-9.21
-12.47
-15.47
-17.97
-19.83
-20.96
-21.36
-21.04
-20.03
-18.42
-16.31
-13.81
-10.98
-7.84
-4.45
-0.89
2.60
5.71
8.10
9.57
10.07
9.71
8.71
7.28
5.62
3.88
2.20
0.69
-0.58
-1.62
-2.46
-3.17
-3.81
-4.40
-4.92
-5.34
-5.60
-5.72
-5.74
-5.77
-5.91
-6.20
-6.62
-7.02
-7.19
-6.93
-6.13
-4.76
-2.93
-0.80
1.41
3.50
5.24
6.42
6.91
6.71
5.95
4.88
3.76
2.77
1.97
1.27
0.56
-0.27
-1.22
-2.16
-2.95
-3.45
-3.62
-3.51
-3.22
-2.82
-2.34
-1.73
-1.00
-0.17
0.64
1.30
1.79
2.18
2.68
3.48
4.63
6.03
7.41
8.45
8.95
8.85
8.23
7.24
5.98
4.49
2.80
0.95
-0.92
-2.64
-4.03
-4.99
-5.51
-5.69
-5.65
-5.50
-5.32
-5.10
-4.86
-4.62
-4.44
-4.42
-4.63
-5.12
-5.85
-6.69
-7.49
-8.07
-8.28
-8.00
-7.18
-5.81
-3.95
-1.70
0.80
3.35
5.75
7.83
9.47
10.60
11.22
11.39
11.15
10.58
9.74
8.71
7.61
6.58
5.71
5.01
4.37
3.67
2.80
1.77
0.66
-0.41
-1.39
-2.32
-3.30
-4.41
-5.62
-6.81
-7.84
-8.61
-9.12
-9.41
-9.46
-9.19
-8.46
-7.20
-5.47
-3.48
-1.48
0.34
1.88
3.12
4.05
4.69
4.98
4.96
4.71
4.35
4.02
3.82
3.77
3.80
3.87
3.92
3.90
3.77
3.53
3.14
2.61
1.97
1.26
0.54
-0.14
-0.77
-1.36
-1.95
-2.61
-3.42
-4.39
-5.48
-6.59
-7.56
-8.18
-8.30
-7.80
-6.67
-5.05
-3.15
-1.22
0.57
2.10
3.33
4.26
4.91
5.26
5.31
5.12
4.77
4.39
4.07
3.87
3.77
3.72
3.70
3.67
3.63
3.56
3.40
3.13
2.73
2.19
1.53
0.76
-0.11
-1.05
-1.97
-2.77
-3.41
-3.92
-4.45
-5.16
-6.16
-7.35
-8.44
-9.07
-8.91
-7.89
-6.17
-4.09
-2.01
-0.20
1.23
2.33
3.18
3.82
4.27
4.49
4.50
4.37
4.19
4.03
3.92
3.83
3.68
3.43
3.11
2.78
2.49
2.28
2.10
1.85
1.42
0.79
-0.03
-0.91
-1.71
-2.33
-2.80
-3.22
-3.75
-4.49
-5.45
-6.53
-7.53
-8.26
-8.57
-8.37
-7.66
-6.45
-4.81
-2.85
-0.77
1.22
2.89
4.08
4.77
5.01
4.96
4.75
4.49
4.25
4.04
3.88
3.76
3.62
3.44
3.17
2.80
2.36
1.94
1.61
1.38
1.22
1.04
0.77
0.37
-0.14
-0.73
-1.37
-2.08
-2.86
-3.73
-4.69
-5.68
-6.66
-7.53
-8.16
-8.39
-8.08
-7.17
-5.68
-3.80
-1.76
0.17
1.81
3.06
3.91
4.40
4.60
4.57
4.39
4.11
3.80
3.47
3.15
2.84
2.53
2.19
1.78
1.24
0.55
-0.29
-1.18
-1.98
-2.57
-2.88
-2.94
-2.85
-2.71
-2.56
-2.36
-2.08
-1.71
-1.37
-1.18
-1.25
-1.54
-1.90
-2.10
-1.94
-1.36
-0.42
0.76
2.02
3.25
4.36
5.28
5.93
6.26
6.26
5.99
5.55
5.04
4.51
4.00
3.54
3.18
2.95
2.86
2.87
2.91
2.91
2.80
2.56
2.21
1.76
1.25
0.70
0.15
-0.37
-0.88
-1.43
-2.09
-2.91
-3.86
-4.82
-5.62
-6.07
-6.03
-5.44
-4.33
-2.79
-0.94
1.08
3.08
4.85
6.18
6.96
7.17
6.91
6.35
5.63
4.83
3.98
3.10
2.22
1.40
0.66
-0.05
-0.84
-1.85
-3.09
-4.47
-5.75
-6.72
-7.27
-7.45
-7.47
-7.59
-7.99
-8.71
-9.64
-10.57
-11.27
-11.52
-11.22
-10.34
-8.92
-7.05
-4.84
-2.46
-0.08
2.03
3.65
4.55
4.60
3.85
2.52
0.96
-0.46
-1.47
-2.04
-2.35
-2.73
-3.50
-4.83
-6.69
-8.88
-11.11
-13.08
-14.63
-15.79
-16.76
-17.93
-19.68
-22.22
-25.43
-28.81
-31.61
-33.13
-32.94
-31.02
-27.78
-23.83
-19.86
-16.44
-13.85
-11.82
-9.47
-5.33
2.19
14.05
29.96
48.16
65.86
80.20
89.20
92.32
90.37
84.88
77.39
69.02
60.37
51.80
43.68
36.43
30.44
25.87
22.54
20.01
17.71
15.15
12.17
8.93
5.79
3.09
0.87
-1.17
-3.60
-6.87
-11.13
-16.04
-20.91
-25.04
-27.95
-29.54
-30.04
-29.86
-29.41
-29.00
-28.74
-28.56
-28.19
-27.20
-25.20
-21.98
-17.66
-12.73
-7.80
-3.46
0.02
2.64
4.61
6.13
7.31
8.20
8.87
9.50
10.37
11.70
13.57
15.81
18.09
20.02
21.24
21.51
20.69
18.65
15.35
10.83
5.28
-0.94
-7.37
-13.49
-18.87
-23.18
-26.23
-28.01
-28.67
-28.54
-28.01
-27.43
-27.03
-26.80
-26.54
-25.91
-24.66
-22.66
-20.01
-16.96
-13.83
-10.85
-8.07
-5.38
-2.61
0.34
3.33
5.99
7.81
8.33
7.39
5.17
2.14
-1.15
-4.22
-6.81
-8.82
-10.19
-10.86
-10.73
-9.71
-7.82
-5.18
-2.03
1.40
4.85
8.16
11.16
13.71
15.64
16.77
16.97
16.22
14.65
12.54
10.31
8.36
7.00
6.30
6.12
6.15
6.03
5.53
4.56
3.25
1.86
0.62
-0.32
-0.99
-1.53
-2.16
-3.04
-4.25
-5.75
-7.42
-9.05
-10.41
-11.28
-11.48
-10.95
-9.77
-8.11
-6.22
-4.29
-2.48
-0.85
0.52
1.57
2.20
2.35
2.09
1.56
0.99
0.53
0.25
0.12
0.03
-0.15
-0.43
-0.80
-1.22
-1.61
-1.96
-2.26
-2.56
-2.89
-3.30
-3.80
-4.43
-5.18
-6.07
-7.09
-8.20
-9.22
-9.89
-9.91
-9.08
-7.38
-5.03
-2.44
0.02
2.10
3.76
5.07
6.12
6.92
7.36
7.35
6.88
6.12
5.31
4.71
4.42
4.40
4.49
4.53
4.39
4.05
3.56
2.97
2.33
1.63
0.86
0.02
-0.93
-1.98
-3.17
-4.46
-5.80
-7.05
-8.03
-8.56
-8.51
-7.82
-6.51
-4.68
-2.51
-0.20
2.00
3.89
5.32
6.25
6.75
6.93
6.90
6.75
6.50
6.17
5.78
5.36
4.92
4.44
3.85
3.11
2.26
1.42
0.75
0.35
0.20
0.12
-0.15
-0.79
-1.85
-3.17
-4.54
-5.81
-6.95
-8.04
-9.08
-9.96
-10.39
-10.04
-8.74
-6.54
-3.76
-0.85
1.78
3.89
5.44
6.54
7.34
7.93
8.35
8.55
8.48
8.14
7.55
6.79
6.00
5.31
4.84
4.64
4.69
4.83
4.86
4.60
3.95
2.97
1.83
0.72
-0.26
-1.11
-1.93
-2.83
-3.87
-5.04
-6.28
-7.50
-8.55
-9.25
-9.39
-8.79
-7.40
-5.32
-2.82
-0.26
2.07
3.98
5.41
6.41
7.00
7.24
7.16
6.83
6.34
5.81
5.35
5.02
4.79
4.62
4.45
4.20
3.81
3.26
2.55
1.71
0.83
0.02
-0.64
-1.15
-1.59
-2.14
-2.95
-4.08
-5.43
-6.84
-8.08
-8.98
-9.45
-9.45
-8.98
-8.03
-6.61
-4.74
-2.54
-0.20
2.06
4.00
5.45
6.26
6.41
5.96
5.07
3.98
2.91
2.04
1.40
0.92
0.45
-0.11
-0.85
-1.75
-2.78
-3.85
-4.94
-6.02
-7.10
-8.28
-9.66
-11.36
-13.37
-15.64
-18.00
-20.30
-22.46
-24.44
-26.23
-27.75
-28.85
-29.35
-29.13
-28.25
-26.92
-25.35
-23.74
-22.12
-20.48
-18.76
-16.88
-14.73
-12.09
-8.62
-3.96
2.12
9.57
18.01
26.78
35.13
42.38
48.04
51.83
53.68
53.70
52.19
49.62
46.59
43.73
41.53
40.21
39.68
39.52
39.19
38.21
36.38
33.81
30.92
28.18
25.92
24.16
22.64
20.96
18.76
15.93
12.64
9.22
6.04
3.34
1.15
-0.62
-2.15
-3.55
-4.81
-5.87
-6.60
-6.97
-7.03
-6.93
-6.87
-7.01
-7.37
-7.86
-8.35
-8.70
-8.87
-8.95
-9.08
-9.44
-10.16
-11.34
-13.00
-15.11
-17.55
-20.00
-22.04
-23.19
-23.08
-21.65
-19.22
-16.28
-13.39
-10.90
-8.90
-7.32
-6.03
-4.99
-4.22
-3.78
-3.66
-3.77
-3.98
-4.23
-4.57
-5.13
-6.07
-7.39
-8.96
-10.43
-11.38
-11.45
-10.50
-8.61
-6.03
-3.11
-0.13
2.68
5.11
6.97
8.10
8.41
8.01
7.12
6.03
4.88
3.68
2.30
0.66
-1.16
-2.89
-4.08
-4.36
-3.58
-1.87
0.37
2.63
4.53
5.85
6.59
6.82
6.65
6.12
5.27
4.19
3.10
2.26
1.90
2.10
2.76
3.64
4.45
4.98
5.12
4.88
4.29
3.39
2.22
0.82
-0.72
-2.29
-3.75
-5.04
-6.13
-7.06
-7.84
-8.47
-8.88
-8.96
-8.66
-7.97
-6.96
-5.79
-4.65
-3.77
-3.38
-3.68
-4.74
-6.52
-8.84
-11.41
-13.88
-15.93
-17.33
-17.98
-17.90
-17.32
-16.60
-16.11
-16.16
-16.81
-17.92
-19.14
-20.08
-20.47
-20.24
-19.59
-18.89
-18.53
-18.81
-19.73
-20.99
-22.02
-22.19
-20.98
-18.22
-14.07
-8.93
-3.28
2.49
8.19
13.73
19.05
24.07
28.61
32.48
35.51
37.61
38.74
38.92
38.21
36.67
34.43
31.66
28.57
25.35
22.18
19.11
16.15
13.25
10.39
7.65
5.17
3.12
1.57
0.47
-0.38
-1.32
-2.71
-4.84
-7.82
-11.52
-15.56
-19.41
-22.53
-24.50
-25.20
-24.75
-23.45
-21.64
-19.59
-17.45
-15.30
-13.20
-11.22
-9.43
-7.90
-6.63
-5.57
-4.63
-3.72
-2.84
-2.04
-1.45
-1.18
-1.30
-1.75
-2.37
-2.97
-3.44
-3.80
-4.17
-4.70
-5.44
-6.31
-7.05
-7.39
-7.11
-6.14
-4.57
-2.61
-0.50
1.54
3.36
4.90
6.20
7.28
8.15
8.80
9.20
9.32
9.24
9.06
8.90
8.86
8.94
9.10
9.29
9.48
9.67
9.87
10.07
10.24
10.35
10.41
10.49
10.68
11.04
11.55
12.09
12.47
12.47
11.98
11.02
9.70
8.28
6.97
5.90
5.11
4.60
4.30
4.21
4.29
4.47
4.59
4.49
4.00
3.14
2.05
0.96
0.12
-0.33
-0.40
-0.16
0.25
0.75
1.23
1.62
1.81
1.74
1.37
0.80
0.15
-0.45
-0.94
-1.40
-1.99
-2.92
-4.31
-6.15
-8.21
-10.14
-11.57
-12.18
-11.87
-10.75
-9.10
-7.23
-5.37
-3.63
-2.02
-0.49
0.94
2.18
3.11
3.60
3.61
3.24
2.68
2.16
1.88
1.88
2.06
2.24
2.19
1.79
1.09
0.24
-0.55
-1.19
-1.67
-2.12
-2.65
-3.32
-4.12
-4.95
-5.79
-6.62
-7.46
-8.30
-9.01
-9.44
-9.42
-8.85
-7.77
-6.33
-4.76
-3.28
-2.06
-1.16
-0.58
-0.24
-0.08
-0.05
-0.14
-0.35
-0.65
-0.99
-1.31
-1.52
-1.57
-1.36
-0.73
0.56
2.79
6.14
10.57
15.75
21.15
26.15
30.25
33.15
34.72
34.95
33.93
31.79
28.75
25.06
20.96
16.61
12.12
7.54
3.03
-1.13
-4.58
-7.01
-8.36
-8.84
-8.87
-8.88
-9.18
-9.80
-10.59
-11.26
-11.57
-11.40
-10.74
-9.71
-8.43
-7.06
-5.71
-4.46
-3.40
-2.57
-2.03
-1.74
-1.65
-1.63
-1.59
-1.45
-1.25
-1.04
-0.93
-0.94
-1.07
-1.28
-1.54
-1.80
-2.06
-2.29
-2.43
-2.42
-2.25
-1.92
-1.52
-1.11
-0.78
-0.54
-0.42
-0.42
-0.55
-0.77
-1.06
-1.34
-1.58
-1.74
-1.80
-1.78
-1.68
-1.53
-1.35
-1.14
-0.95
-0.83
-0.80
-0.88
-1.07
-1.32
-1.59
-1.83
-2.05
-2.30
-2.62
-3.02
-3.43
-3.73
-3.84
-3.72
-3.43
-3.05
-2.64
-2.21
-1.69
-0.99
-0.13
0.82
1.69
2.34
2.67
2.68
2.45
2.15
1.88
1.72
1.69
1.73
1.76
1.71
1.54
1.24
0.86
0.48
0.12
-0.16
-0.34
-0.45
-0.54
-0.69
-1.01
-1.55
-2.25
-2.95
-3.44
-3.58
-3.32
-2.74
-2.03
-1.31
-0.64
0.02
0.73
1.53
2.35
3.07
3.59
3.86
3.92
3.83
3.64
3.34
2.93
2.42
1.93
1.59
1.49
1.63
1.86
1.97
1.78
1.25
0.49
-0.30
-0.93
-1.32
-1.51
-1.65
-1.85
-2.18
-2.65
-3.17
-3.65
-3.97
-4.04
-3.80
-3.24
-2.40
-1.37
-0.26
0.85
1.89
2.82
3.59
4.14
4.42
4.41
4.17
3.79
3.39
3.03
2.75
2.52
2.34
2.24
2.24
2.34
2.50
2.59
2.49
2.14
1.55
0.79
-0.01
-0.74
-1.31
-1.69
-1.88
-1.95
-2.01
-2.17
-2.50
-2.99
-3.52
-3.93
-4.05
-3.80
-3.17
-2.25
-1.15
-0.01
1.04
1.85
2.35
2.49
2.33
2.02
1.76
1.69
1.86
2.20
2.56
2.79
2.81
2.63
2.33
2.00
1.67
1.33
0.96
0.54
0.11
-0.25
-0.48
-0.55
-0.52
-0.50
-0.61
-0.87
-1.27
-1.72
-2.16
-2.57
-2.96
-3.34
-3.69
-3.96
-4.04
-3.88
-3.46
-2.83
-2.06
-1.24
-0.45
0.27
0.87
1.34
1.66
1.85
1.93
1.95
1.95
1.96
1.98
2.00
2.01
1.98
1.90
1.78
1.63
1.48
1.34
1.25
1.20
1.16
1.08
0.90
0.63
0.27
-0.12
-0.50
-0.89
-1.31
-1.77
-2.20
-2.50
-2.59
-2.45
-2.16
-1.85
-1.58
-1.30
-0.87
-0.21
0.67
1.62
2.41
2.90
3.06
2.97
2.75
2.47
2.13
1.73
1.33
1.00
0.82
0.79
0.83
0.80
0.59
0.19
-0.33
-0.83
-1.24
-1.54
-1.79
-2.05
-2.34
-2.64
-2.92
-3.18
-3.42
-3.67
-3.93
-4.13
-4.18
-3.97
-3.49
-2.79
-1.97
-1.17
-0.46
0.14
0.63
1.00
1.20
1.20
0.99
0.62
0.20
-0.17
-0.41
-0.52
-0.56
-0.61
-0.69
-0.82
-0.97
-1.11
-1.23
-1.36
-1.52
-1.74
-2.04
-2.47
-3.01
-3.62
-4.19
-4.63
-4.84
-4.81
-4.56
-4.13
-3.56
-2.89
-2.15
-1.36
-0.54
0.28
1.08
1.87
2.59
3.16
3.47
3.47
3.18
2.71
2.22
1.81
1.50
1.24
0.95
0.62
0.29
0.01
-0.14
-0.19
-0.21
-0.31
-0.57
-0.99
-1.52
-2.05
-2.54
-2.97
-3.38
-3.78
-4.13
-4.28
-4.06
-3.32
-2.09
-0.53
1.07
2.42
3.38
3.95
4.27
4.47
4.64
4.77
4.78
4.63
4.30
3.88
3.48
3.17
2.95
2.79
2.58
2.28
1.85
1.32
0.76
0.23
-0.23
-0.66
-1.11
-1.64
-2.27
-2.94
-3.59
-4.12
-4.51
-4.73
-4.80
-4.71
-4.46
-3.98
-3.24
-2.26
-1.10
0.13
1.32
2.35
3.15
3.69
3.95
3.97
3.83
3.60
3.37
3.18
3.00
2.79
2.49
2.09
1.65
1.25
0.94
0.73
0.58
0.41
0.18
-0.14
-0.50
-0.85
-1.17
-1.47
-1.81
-2.24
-2.82
-3.53
-4.29
-4.90
-5.18
-4.95
-4.17
-2.90
-1.36
0.21
1.62
2.71
3.45
3.86
3.98
3.86
3.55
3.15
2.75
2.47
2.35
2.36
2.43
2.47
2.42
2.30
2.12
1.93
1.73
1.53
1.31
1.04
0.71
0.31
-0.13
-0.60
-1.06
-1.48
-1.89
-2.35
-2.91
-3.56
-4.23
-4.76
-5.00
-4.85
-4.29
-3.38
-2.18
-0.79
0.69
2.13
3.35
4.20
4.58
4.49
4.02
3.33
2.60
1.97
1.57
1.44
1.53
1.73
1.88
1.83
1.46
0.77
-0.12
-1.01
-1.69
-2.02
-2.03
-1.89
-1.81
-1.95
-2.33
-2.86
-3.36
-3.74
-3.95
-4.03
-3.97
-3.72
-3.17
-2.25
-1.03
0.33
1.58
2.56
3.20
3.54
3.66
3.62
3.41
3.04
2.56
2.07
1.69
1.50
1.48
1.51
1.48
1.27
0.87
0.32
-0.27
-0.80
-1.24
-1.58
-1.89
-2.21
-2.58
-3.01
-3.48
-3.94
-4.34
-4.62
-4.73
-4.62
-4.23
-3.51
-2.46
-1.14
0.30
1.69
2.91
3.84
4.42
4.64
4.54
4.16
3.62
3.02
2.51
2.18
2.09
2.20
2.43
2.66
2.77
2.68
2.35
1.84
1.23
0.64
0.15
-0.21
-0.50
-0.80
-1.18
-1.70
-2.37
-3.16
-4.00
-4.78
-5.34
-5.51
-5.19
-4.37
-3.15
-1.71
-0.23
1.11
2.21
2.99
3.42
3.52
3.38
3.13
2.92
2.83
2.82
2.75
2.49
1.99
1.39
0.89
0.66
0.76
1.03
1.23
1.15
0.71
-0.02
-0.85
-1.62
-2.19
-2.57
-2.83
-3.08
-3.41
-3.82
-4.23
-4.47
-4.41
-3.96
-3.18
-2.21
-1.21
-0.27
0.62
1.52
2.49
3.47
4.31
4.84
4.94
4.66
4.12
3.51
2.99
2.65
2.46
2.36
2.27
2.15
1.96
1.72
1.44
1.10
0.70
0.22
-0.31
-0.80
-1.18
-1.41
-1.53
-1.66
-1.95
-2.49
-3.21
-3.97
-4.52
-4.68
-4.37
-3.62
-2.55
-1.32
-0.11
0.96
1.80
2.39
2.72
2.84
2.80
2.63
2.37
2.05
1.67
1.29
0.95
0.71
0.57
0.49
0.41
0.26
0.01
-0.34
-0.70
-1.03
-1.29
-1.51
-1.77
-2.12
-2.60
-3.15
-3.70
-4.17
-4.51
-4.69
-4.70
-4.50
-4.05
-3.30
-2.26
-1.01
0.32
1.58
2.65
3.42
3.84
3.91
3.69
3.27
2.81
2.43
2.24
2.23
2.33
2.39
2.28
1.95
1.42
0.77
0.14
-0.38
-0.71
-0.89
-0.97
-1.09
-1.33
-1.75
-2.30
-2.94
-3.58
-4.14
-4.55
-4.73
-4.63
-4.18
-3.40
-2.35
-1.13
0.12
1.30
2.31
3.11
3.69
4.08
4.32
4.45
4.48
4.43
4.27
4.01
3.68
3.33
3.00
2.69
2.36
1.97
1.50
0.93
0.32
-0.33
-0.96
-1.55
-2.05
-2.43
-2.70
-2.91
-3.15
-3.47
-3.86
-4.21
-4.38
-4.24
-3.76
-2.99
-2.05
-1.08
-0.12
0.80
1.67
2.47
3.15
3.64
3.90
3.92
3.80
3.62
3.46
3.32
3.17
2.96
2.68
2.36
2.05
1.78
1.50
1.17
0.75
0.26
-0.23
-0.69
-1.10
-1.53
-2.02
-2.56
-3.07
-3.46
-3.66
-3.68
-3.61
-3.52
-3.43
-3.26
-2.92
-2.30
-1.41
-0.31
0.88
2.02
2.98
3.70
4.09
4.15
3.89
3.38
2.70
1.97
1.30
0.80
0.51
0.43
0.47
0.53
0.48
0.29
-0.02
-0.32
-0.54
-0.64
-0.66
-0.73
-0.98
-1.47
-2.18
-2.99
-3.72
-4.21
-4.36
-4.11
-3.49
-2.61
-1.58
-0.50
0.51
1.38
2.05
2.49
2.69
2.67
2.48
2.19
1.88
1.59
1.32
1.03
0.71
0.31
-0.11
-0.49
-0.73
-0.78
-0.68
-0.56
-0.56
-0.76
-1.17
-1.66
-2.10
-2.39
-2.53
-2.60
-2.71
-2.93
-3.24
-3.53
-3.67
-3.51
-3.02
-2.18
-1.10
0.11
1.28
2.30
3.05
3.49
3.60
3.40
2.96
2.38
1.76
1.18
0.71
0.32
-0.02
-0.33
-0.61
-0.81
-0.88
-0.82
-0.70
-0.62
-0.72
-1.03
-1.50
-2.04
-2.55
-2.97
-3.31
-3.58
-3.78
-3.87
-3.79
-3.49
-2.95
-2.18
-1.24
-0.15
1.03
2.24
3.37
4.34
5.07
5.51
5.70
5.68
5.48
5.15
4.75
4.37
4.12
4.07
4.20
4.39
4.45
4.23
3.67
2.82
1.86
0.92
0.07
-0.69
-1.45
-2.27
-3.17
-4.11
-5.04
-5.89
-6.56
-6.97
-7.03
-6.67
-5.88
-4.74
-3.42
-2.07
-0.84
0.19
0.97
1.50
1.77
1.81
1.66
1.41
1.15
0.95
0.86
0.84
0.89
0.92
0.91
0.80
0.56
0.16
-0.38
-0.99
-1.60
-2.12
-2.51
-2.80
-3.03
-3.25
-3.48
-3.69
-3.83
-3.86
-3.74
-3.47
-3.02
-2.36
-1.52
-0.52
0.53
1.50
2.26
2.72
2.88
2.81
2.63
2.42
2.26
2.17
2.16
2.20
2.24
2.23
2.17
2.08
2.02
2.01
2.05
2.05
1.97
1.78
1.54
1.33
1.20
1.15
1.13
1.07
0.97
0.89
0.87
0.96
1.13
1.35
1.60
1.89
2.20
2.52
2.73
2.74
2.47
1.93
1.25
0.60
0.13
-0.09
-0.12
-0.06
-0.03
-0.12
-0.32
-0.57
-0.78
-0.89
-0.88
-0.80
-0.72
-0.71
-0.79
-0.97
-1.28
-1.71
-2.27
-2.89
-3.47
-3.88
-4.04
-3.92
-3.59
-3.12
-2.57
-1.94
-1.26
-0.52
0.21
0.84
1.27
1.47
1.46
1.32
1.12
0.90
0.70
0.53
0.45
0.46
0.57
0.74
0.90
0.96
0.87
0.63
0.31
-0.05
-0.39
-0.73
-1.11
-1.57
-2.12
-2.69
-3.18
-3.46
-3.47
-3.19
-2.65
-1.91
-1.04
-0.12
0.80
1.63
2.31
2.79
3.06
3.10
2.94
2.59
2.11
1.59
1.16
0.94
0.98
1.24
1.57
1.82
1.84
1.60
1.11
0.46
-0.23
-0.88
-1.43
-1.84
-2.12
-2.34
-2.56
-2.88
-3.32
-3.82
-4.24
-4.37
-4.08
-3.35
-2.30
-1.14
-0.04
0.90
1.70
2.38
2.94
3.32
3.42
3.19
2.66
2.01
1.44
1.09
1.03
1.17
1.38
1.48
1.38
1.07
0.62
0.18
-0.14
-0.30
-0.37
-0.45
-0.68
-1.13
-1.75
-2.42
-2.99
-3.37
-3.55
-3.60
-3.56
-3.43
-3.15
-2.64
-1.87
-0.89
0.20
1.26
2.19
2.94
3.49
3.84
3.96
3.85
3.52
3.01
2.45
1.94
1.56
1.32
1.17
1.03
0.81
0.47
0.05
-0.36
-0.65
-0.77
-0.76
-0.72
-0.80
-1.09
-1.60
-2.26
-2.93
-3.49
-3.85
-3.93
-3.69
-3.11
-2.20
-1.04
0.27
1.57
2.71
3.54
3.98
4.00
3.67
3.12
2.56
2.16
2.02
2.10
2.24
2.27
2.06
1.62
1.04
0.47
-0.05
-0.48
-0.87
-1.23
-1.54
-1.76
-1.92
-2.07
-2.33
-2.75
-3.24
-3.62
-3.66
-3.19
-2.25
-1.04
0.17
1.10
1.66
1.87
1.89
1.88
1.90
1.92
1.86
1.64
1.28
0.86
0.50
0.27
0.16
0.09
-0.02
-0.21
-0.45
-0.68
-0.85
-0.99
-1.13
-1.33
-1.59
-1.86
-2.05
-2.12
-2.08
-2.03
-2.08
-2.30
-2.69
-3.13
-3.47
-3.54
-3.30
-2.75
-1.99
-1.12
-0.24
0.62
1.42
2.11
2.65
2.95
3.03
2.92
2.73
2.55
2.44
2.39
2.36
2.27
2.08
1.76
1.31
0.78
0.18
-0.41
-0.90
-1.19
-1.25
-1.15
-1.05
-1.14
-1.56
-2.32
-3.24
-4.08
-4.60
-4.67
-4.26
-3.43
-2.27
-0.91
0.47
1.71
2.64
3.19
3.41
3.42
3.36
3.32
3.25
3.11
2.86
2.55
2.25
2.04
1.90
1.78
1.60
1.33
1.01
0.71
0.45
0.20
-0.13
-0.61
-1.21
-1.87
-2.48
-2.98
-3.39
-3.71
-3.96
-4.09
-4.06
-3.83
-3.42
-2.88
-2.22
-1.40
-0.40
0.78
2.04
3.18
4.01
4.41
4.40
4.10
3.68
3.27
2.96
2.77
2.67
2.66
2.68
2.69
2.62
2.43
2.08
1.62
1.10
0.57
0.07
-0.41
-0.88
-1.33
-1.78
-2.22
-2.66
-3.10
-3.55
-3.97
-4.34
-4.62
-4.76
-4.68
-4.29
-3.55
-2.44
-1.08
0.36
1.67
2.70
3.39
3.76
3.89
3.85
3.68
3.40
3.06
2.74
2.54
2.49
2.56
2.62
2.57
2.34
2.00
1.63
1.33
1.11
0.92
0.68
0.36
-0.04
-0.49
-0.98
-1.53
-2.16
-2.86
-3.52
-4.00
-4.19
-4.09
-3.79
-3.38
-2.91
-2.34
-1.59
-0.59
0.61
1.83
2.85
3.49
3.66
3.43
2.93
2.30
1.70
1.22
0.93
0.81
0.81
0.79
0.67
0.38
-0.02
-0.43
-0.73
-0.88
-0.96
-1.08
-1.39
-1.94
-2.70
-3.52
-4.26
-4.76
-4.94
-4.79
-4.32
-3.63
-2.78
-1.87
-0.97
-0.12
0.66
1.37
2.00
2.52
2.89
3.09
3.13
3.06
2.95
2.84
2.75
2.69
2.64
2.55
2.39
2.15
1.81
1.36
0.83
0.28
-0.20
-0.55
-0.77
-0.88
-1.00
-1.21
-1.59
-2.16
-2.82
-3.47
-3.95
-4.16
-4.05
-3.64
-2.99
-2.21
-1.34
-0.43
0.49
1.40
2.23
2.93
3.45
3.80
3.97
3.99
3.87
3.67
3.38
3.04
2.65
2.21
1.74
1.27
0.87
0.58
0.41
0.34
0.31
0.27
0.14
-0.13
-0.57
-1.19
-1.91
-2.64
-3.27
-3.72
-3.97
-4.08
-4.08
-3.93
-3.58
-2.91
-1.90
-0.63
0.69
1.84
2.66
3.12
3.30
3.31
3.24
3.14
2.98
2.75
2.47
2.17
1.91
1.72
1.60
1.48
1.31
1.07
0.78
0.53
0.36
0.27
0.20
0.07
-0.21
-0.67
-1.29
-2.01
-2.74
-3.42
-3.96
-4.32
-4.43
-4.27
-3.81
-3.09
-2.19
-1.21
-0.27
0.55
1.19
1.66
1.99
2.22
2.37
2.46
2.48
2.41
2.25
2.04
1.80
1.57
1.39
1.27
1.19
1.14
1.08
0.99
0.82
0.59
0.26
-0.15
-0.62
-1.10
-1.54
-1.91
-2.19
-2.38
-2.52
-2.66
-2.81
-2.96
-3.05
-2.99
-2.71
-2.18
-1.45
-0.60
0.24
0.99
1.60
2.11
2.55
2.95
3.27
3.45
3.42
3.15
2.70
2.19
1.76
1.49
1.39
1.39
1.42
1.38
1.25
1.03
0.74
0.41
0.07
-0.26
-0.59
-0.95
-1.35
-1.80
-2.29
-2.78
-3.18
-3.40
-3.40
-3.17
-2.74
-2.20
-1.63
-1.07
-0.57
-0.13
0.23
0.53
0.78
1.01
1.21
1.37
1.46
1.46
1.37
1.23
1.06
0.89
0.71
0.50
0.25
0.02
-0.13
-0.18
-0.17
-0.21
-0.44
-0.91
-1.56
-2.18
-2.62
-2.77
-2.68
-2.49
-2.35
-2.35
-2.48
-2.69
-2.91
-3.07
-3.10
-2.91
-2.42
-1.60
-0.51
0.68
1.74
2.50
2.89
2.96
2.84
2.66
2.48
2.31
2.17
2.07
2.07
2.23
2.51
2.77
2.85
2.60
1.99
1.08
0.01
-1.05
-2.00
-2.77
-3.33
-3.67
-3.82
-3.88
-3.90
-3.94
-3.98
-3.92
-3.71
-3.34
-2.86
-2.33
-1.77
-1.14
-0.37
0.55
1.49
2.29
2.80
2.97
2.91
2.75
2.61
2.49
2.36
2.15
1.86
1.54
1.25
1.01
0.83
0.65
0.46
0.26
0.07
-0.07
-0.16
-0.24
-0.38
-0.64
-1.08
-1.68
-2.40
-3.17
-3.86
-4.37
-4.58
-4.41
-3.84
-2.91
-1.76
-0.56
0.56
1.53
2.34
3.01
3.53
3.87
3.96
3.77
3.32
2.73
2.13
1.64
1.32
1.16
1.11
1.09
1.04
0.94
0.81
0.67
0.52
0.37
0.18
-0.07
-0.36
-0.68
-1.03
-1.42
-1.90
-2.50
-3.17
-3.80
-4.21
-4.25
-3.87
-3.12
-2.14
-1.12
-0.16
0.68
1.41
2.06
2.63
3.10
3.43
3.61
3.64
3.55
3.36
3.11
2.84
2.55
2.26
1.97
1.68
1.39
1.09
0.78
0.47
0.18
-0.07
-0.27
-0.46
-0.64
-0.90
-1.26
-1.74
-2.31
-2.89
-3.41
-3.77
-3.91
-3.79
-3.42
-2.84
-2.11
-1.30
-0.47
0.32
1.02
1.58
1.98
2.18
2.19
2.05
1.85
1.65
1.49
1.35
1.14
0.83
0.42
0.00
-0.32
-0.48
-0.50
-0.47
-0.50
-0.68
-0.97
-1.30
-1.57
-1.75
-1.88
-2.06
-2.37
-2.82
-3.35
-3.86
-4.22
-4.38
-4.26
-3.85
-3.12
-2.08
-0.81
0.55
1.77
2.64
3.03
2.97
2.63
2.25
2.02
1.97
2.05
2.14
2.12
2.01
1.86
1.74
1.67
1.62
1.50
1.25
0.88
0.44
-0.03
-0.54
-1.10
-1.72
-2.35
-2.90
-3.28
-3.42
-3.35
-3.14
-2.87
-2.57
-2.15
-1.53
-0.64
0.45
1.60
2.60
3.32
3.71
3.85
3.83
3.72
3.53
3.25
2.88
2.48
2.14
1.94
1.88
1.90
1.87
1.74
1.49
1.19
0.91
0.68
0.45
0.14
-0.33
-0.97
-1.72
-2.47
-3.13
-3.65
-4.03
-4.26
-4.34
-4.25
-3.92
-3.34
-2.52
-1.52
-0.43
0.63
1.57
2.35
2.92
3.29
3.46
3.45
3.29
3.03
2.77
2.58
2.50
2.47
2.41
2.20
1.83
1.34
0.83
0.39
0.06
-0.23
-0.53
-0.87
-1.24
-1.61
-1.95
-2.33
-2.78
-3.34
-3.93
-4.44
-4.69
-4.63
-4.27
-3.71
-3.06
-2.35
-1.54
-0.57
0.53
1.64
2.59
3.24
3.56
3.66
3.69
3.75
3.85
3.95
3.98
3.91
3.77
3.61
3.44
3.27
3.05
2.79
2.50
2.20
1.92
1.67
1.43
1.19
0.94
0.65
0.29
-0.17
-0.70
-1.23
-1.66
-1.89
-1.89
-1.67
-1.32
-0.87
-0.34
0.30
1.06
1.91
2.78
3.56
4.15
4.54
4.78
4.96
5.15
