1536179782.00
64.000000
-0.00
-0.00
-0.00
-0.00
-0.00
-0.00
-0.00
-0.00
-0.00
-0.00
0.00
0.01
0.01
-0.00
-0.03
-0.05
-0.05
0.00
0.13
0.36
0.66
1.01
1.37
1.72
2.06
2.40
2.79
3.24
3.80
4.43
5.07
5.70
6.27
6.80
7.35
8.00
8.81
9.87
11.09
12.38
13.62
14.75
15.81
16.98
18.47
20.41
23.04
26.15
29.49
32.75
35.78
38.66
41.71
45.37
49.97
55.92
62.86
70.29
77.62
84.47
90.91
97.41
104.71
113.41
124.15
136.48
149.63
162.65
174.90
186.33
197.54
209.92
222.37
237.34
255.60
277.28
301.07
323.86
341.13
348.11
341.51
320.70
288.43
248.80
206.17
163.50
121.84
80.94
40.34
0.45
-37.43
-71.22
-99.72
-122.96
-142.09
-158.78
-174.40
-189.41
-203.07
-213.90
-220.24
-221.62
-218.99
-214.78
-212.11
-213.34
-219.34
-229.00
-239.56
-247.82
-251.70
-251.20
-248.53
-247.05
-249.87
-258.62
-273.04
-291.34
-310.86
-328.49
-340.84
-344.47
-336.85
-318.10
-292.09
-265.86
-246.99
-239.70
-241.91
-245.24
-238.34
-212.27
-165.10
-103.31
-39.16
14.30
48.06
59.63
52.28
32.22
5.48
-23.90
-54.04
-84.02
-112.49
-136.97
-154.55
-163.52
-164.74
-161.56
-157.94
-155.68
-152.46
-142.24
-117.88
-74.81
-13.76
58.86
133.12
199.16
249.88
282.21
296.27
293.71
276.09
243.94
197.17
136.48
64.74
-12.11
-85.50
-146.73
-190.07
-214.82
-224.67
-226.35
-226.00
-226.40
-227.51
-226.36
-220.09
-207.90
-190.60
-170.01
-147.24
-121.78
-92.10
-56.80
-15.29
31.79
82.73
135.21
186.23
232.06
268.75
293.10
303.82
302.38
292.30
277.73
261.77
245.56
228.67
210.56
191.76
174.12
159.84
149.88
143.11
136.78
128.02
115.51
100.26
85.01
72.82
65.31
61.89
60.07
56.95
50.68
41.42
31.12
22.32
16.81
14.67
14.36
13.66
11.00
6.30
0.94
-3.14
-4.59
-3.54
-1.45
-0.27
-1.22
-4.11
-7.44
-9.39
-8.96
-6.72
-4.44
-4.09
-6.58
-11.09
-15.54
-17.72
-16.65
-13.09
-9.21
-7.25
-8.23
-11.36
-14.48
-15.37
-12.98
-8.12
-2.94
0.28
0.42
-1.90
-4.67
-5.64
-3.63
0.88
6.01
9.60
10.45
8.98
6.99
6.56
8.85
13.37
18.29
21.49
21.88
20.03
17.89
17.66
20.43
25.55
30.87
34.02
33.79
30.82
27.26
25.55
26.98
30.95
35.30
37.58
36.50
32.64
28.16
25.44
25.74
28.37
31.18
31.81
29.20
24.17
18.99
16.01
16.21
18.67
21.11
21.26
18.20
12.92
7.65
4.61
4.68
7.00
9.48
10.06
7.89
3.76
-0.36
-2.49
-1.77
1.04
4.03
5.16
3.51
-0.27
-4.23
-6.27
-5.38
-2.17
1.38
3.12
1.96
-1.43
-5.08
-6.84
-5.72
-2.43
1.00
2.46
1.04
-2.48
-6.04
-7.55
-6.12
-2.53
1.19
2.96
1.85
-1.42
-4.87
-6.45
-5.20
-1.84
1.65
3.16
1.71
-1.97
-5.87
-7.82
-6.78
-3.43
0.28
2.21
1.36
-1.65
-4.92
-6.45
-5.27
-2.04
1.37
3.02
2.02
-0.95
-4.06
-5.41
-4.21
-1.25
1.57
2.37
0.43
-3.32
-6.83
-8.13
-6.44
-2.65
1.18
3.03
2.00
-1.15
-4.49
-6.03
-4.84
-1.61
1.78
3.33
2.14
-1.08
-4.37
-5.70
-4.20
-0.70
2.71
3.91
2.00
-2.09
-6.19
-8.12
-6.93
-3.42
0.33
2.22
1.30
-1.70
-4.84
-6.13
-4.68
-1.26
2.22
3.79
2.62
-0.49
-3.55
-4.56
-2.74
1.00
4.50
5.69
3.76
-0.23
-4.05
-5.56
-3.97
-0.32
3.16
4.40
2.67
-1.01
-4.48
-5.72
-4.03
-0.40
3.10
4.53
3.17
-0.09
-3.30
-4.56
-3.14
0.14
3.39
4.71
3.33
0.02
-3.31
-4.70
-3.32
0.02
3.35
4.64
3.03
-0.62
-4.25
-5.74
-4.21
-0.54
3.09
4.50
2.81
-1.05
-4.85
-6.43
-4.94
-1.34
2.16
3.46
1.83
-1.71
-5.01
-6.05
-4.17
-0.42
3.09
4.39
2.88
-0.47
-3.59
-4.59
-2.85
0.66
3.92
5.05
3.38
-0.13
-3.44
-4.61
-2.96
0.54
3.80
4.87
3.04
-0.63
-4.02
-5.16
-3.41
0.14
3.34
4.23
2.26
-1.45
-4.72
-5.67
-3.77
-0.15
3.11
4.13
2.41
-1.00
-4.08
-5.01
-3.24
0.20
3.34
4.31
2.54
-0.96
-4.17
-5.17
-3.30
0.39
3.81
4.95
3.11
-0.64
-4.14
-5.39
-3.73
-0.25
2.91
3.83
1.96
-1.58
-4.64
-5.32
-3.11
0.80
4.20
5.13
3.03
-0.94
-4.52
-5.67
-3.72
0.22
3.92
5.26
3.54
-0.17
-3.66
-4.85
-3.09
0.53
3.79
4.74
2.82
-0.77
-3.83
-4.48
-2.33
1.30
4.15
4.43
1.84
-2.19
-5.39
-5.94
-3.60
0.21
3.27
3.83
1.65
-1.93
-4.77
-5.22
-3.04
0.52
3.43
4.09
2.21
-1.06
-3.81
-4.43
-2.52
0.89
3.89
4.79
3.07
-0.34
-3.52
-4.64
-3.06
0.33
3.55
4.70
3.06
-0.44
-3.74
-4.87
-3.15
0.44
3.77
4.87
3.10
-0.47
-3.69
-4.64
-2.73
0.86
3.98
4.66
2.40
-1.60
-5.08
-6.06
-4.01
-0.12
3.38
4.52
2.77
-0.72
-3.80
-4.61
-2.70
0.73
3.60
4.15
2.05
-1.46
-4.27
-4.70
-2.46
1.13
3.94
4.27
1.90
-1.80
-4.59
-4.68
-1.84
2.44
5.80
6.33
3.71
-0.58
-4.14
-4.96
-2.60
1.54
5.08
6.01
3.82
-0.25
-3.90
-5.17
-3.51
-0.10
2.93
3.72
1.84
-1.49
-4.14
-4.40
-1.98
1.74
4.56
4.73
2.06
-1.96
-5.05
-5.41
-2.81
1.27
4.53
5.13
2.77
-1.15
-4.39
-5.14
-3.02
0.71
3.89
4.74
2.87
-0.55
-3.45
-4.13
-2.29
0.84
3.21
3.23
0.71
-2.96
-5.60
-5.55
-2.65
1.61
4.93
5.53
3.16
-0.76
-4.00
-4.78
-2.77
0.77
3.74
4.48
2.65
-0.53
-3.09
-3.47
-1.46
1.66
3.86
3.63
0.88
-2.96
-5.71
-5.72
-2.86
1.37
4.64
5.16
2.70
-1.25
-4.38
-4.87
-2.43
1.56
4.81
5.53
3.38
-0.31
-3.40
-4.16
-2.30
0.91
3.46
3.78
1.68
-1.52
-3.82
-3.74
-1.18
2.44
5.06
5.17
2.68
-0.95
-3.62
-3.79
-1.39
2.12
4.57
4.41
1.56
-2.45
-5.37
-5.54
-2.86
1.14
4.18
4.56
2.13
-1.60
-4.35
-4.44
-1.77
2.10
4.88
4.89
2.07
-1.99
-4.96
-5.17
-2.56
1.25
3.95
3.92
1.17
-2.63
-5.18
-4.93
-1.98
1.96
4.57
4.32
1.34
-2.67
-5.43
-5.40
-2.65
1.24
4.08
4.36
2.06
-1.41
-4.03
-4.34
-2.28
0.84
3.12
3.15
0.88
-2.40
-4.78
-4.80
-2.33
1.36
4.28
4.88
2.89
-0.44
-3.14
-3.54
-1.37
2.17
5.00
5.42
3.11
-0.64
-3.68
-4.26
-2.12
1.36
3.98
4.04
1.39
-2.47
-5.30
-5.45
-2.85
0.96
3.75
3.93
1.48
-2.06
-4.54
-4.42
-1.71
2.10
4.89
5.13
2.75
-0.87
-3.70
-4.19
-2.15
1.14
3.71
4.00
1.78
-1.75
-4.60
-5.14
-3.07
0.46
3.42
4.11
2.14
-1.31
-4.18
-4.70
-2.46
1.30
4.42
5.03
2.73
-1.20
-4.49
-5.21
-2.89
1.20
4.77
5.85
3.97
0.35
-2.74
-3.42
-1.26
2.41
5.35
5.69
3.09
-1.05
-4.41
-5.09
-2.77
1.12
4.21
4.62
2.03
-2.11
-5.43
-6.03
-3.59
0.50
3.87
4.65
2.44
-1.42
-4.67
-5.47
-3.44
0.13
3.11
3.76
1.83
-1.41
-3.85
-3.93
-1.50
2.00
4.41
4.15
1.20
-2.86
-5.72
-5.64
-2.52
2.03
5.58
6.23
3.74
-0.41
-3.86
-4.74
-2.68
0.98
4.03
4.69
2.62
-0.94
-3.91
-4.65
-2.88
0.17
2.58
2.83
0.76
-2.33
-4.50
-4.26
-1.57
2.14
4.75
4.68
1.91
-2.03
-4.85
-4.84
-1.91
2.38
5.61
6.00
3.32
-0.86
-4.16
-4.68
-2.14
1.99
5.35
6.06
3.74
-0.26
-3.69
-4.67
-2.81
0.70
3.72
4.50
2.64
-0.71
-3.51
-4.09
-2.06
1.39
4.23
4.77
2.65
-0.96
-4.01
-4.80
-2.94
0.44
3.29
3.95
2.03
-1.33
-4.15
-4.78
-2.87
0.45
3.22
3.82
1.91
-1.40
-4.20
-4.88
-3.07
0.20
3.01
3.73
1.94
-1.33
-4.15
-4.84
-2.90
0.61
3.72
4.64
2.86
-0.53
-3.47
-4.12
-2.01
1.68
4.75
5.35
3.07
-0.76
-3.90
-4.54
-2.36
1.25
4.08
4.41
2.07
-1.53
-4.20
-4.30
-1.68
2.20
5.14
5.45
2.90
-1.11
-4.38
-5.10
-2.93
0.86
4.10
4.97
3.04
-0.51
-3.58
-4.40
-2.55
0.78
3.54
4.06
2.00
-1.37
-4.01
-4.25
-1.87
1.84
4.72
5.08
2.66
-1.25
-4.45
-5.16
-3.00
0.79
4.05
4.96
3.07
-0.46
-3.54
-4.39
-2.56
0.82
3.75
4.50
2.69
-0.56
-3.27
-3.80
-1.81
1.50
4.12
4.40
2.04
-1.72
-4.80
-5.50
-3.46
0.08
3.05
3.68
1.59
-2.04
-5.10
-5.80
-3.67
0.12
3.47
4.54
2.79
-0.71
-3.94
-5.04
-3.39
0.03
3.28
4.56
3.23
0.20
-2.68
-3.71
-2.33
0.55
3.10
3.71
1.92
-1.23
-3.81
-4.13
-1.77
2.13
5.45
6.32
4.20
0.21
-3.49
-4.94
-3.46
-0.09
3.10
4.23
2.64
-0.69
-3.76
-4.73
-2.98
0.54
3.84
5.08
3.58
0.25
-2.94
-4.09
-2.50
0.87
4.01
4.94
2.95
-0.95
-4.57
-5.84
-3.98
-0.03
3.80
5.34
3.77
0.08
-3.53
-4.97
-3.41
0.15
3.58
4.84
3.21
-0.30
-3.55
-4.58
-2.78
0.74
3.86
4.64
2.55
-1.26
-4.61
-5.56
-3.57
0.20
3.57
4.58
2.65
-1.11
-4.49
-5.50
-3.52
0.33
3.81
4.91
2.99
-0.81
-4.20
-5.14
-3.01
0.98
4.52
5.57
3.55
-0.32
-3.74
-4.70
-2.65
1.21
4.63
5.65
3.70
-0.09
-3.54
-4.73
-3.11
0.25
3.25
4.05
2.12
-1.42
-4.50
-5.31
-3.37
0.19
3.29
4.11
2.15
-1.46
-4.63
-5.53
-3.59
0.14
3.62
4.96
3.51
0.20
-2.99
-4.14
-2.51
1.03
4.50
5.92
4.46
0.92
-2.68
-4.30
-3.04
0.34
3.80
5.28
3.86
0.35
-3.18
-4.66
-3.19
0.36
3.91
5.32
3.73
-0.01
-3.78
-5.46
-4.14
-0.67
2.88
4.41
3.08
-0.24
-3.50
-4.68
-3.03
0.49
3.79
4.87
3.02
-0.79
-4.43
-5.86
-4.32
-0.71
2.88
4.45
3.19
-0.02
-3.22
-4.45
-2.96
0.40
3.70
5.02
3.59
0.23
-3.17
-4.70
-3.60
-0.64
2.33
3.52
2.19
-0.90
-3.93
-5.07
-3.57
-0.23
3.10
4.55
3.31
0.16
-3.02
-4.29
-2.85
0.55
3.99
5.51
4.22
0.81
-2.82
-4.65
-3.66
-0.46
3.09
4.96
4.10
1.08
-2.27
-3.95
-2.98
0.03
3.22
4.57
3.16
-0.33
-3.95
-5.62
-4.36
-0.83
3.02
5.10
4.34
1.29
-2.24
-4.17
-3.43
-0.51
2.81
4.49
3.50
0.37
-3.05
-4.69
-3.52
-0.17
3.38
5.00
3.59
-0.14
-4.17
-6.26
-5.27
-1.80
2.16
4.44
3.87
0.95
-2.50
-4.43
-3.75
-0.93
2.30
4.01
3.21
0.38
-2.77
-4.29
-3.17
0.08
3.71
5.66
4.80
1.52
-2.41
-4.82
-4.43
-1.49
2.25
4.62
4.24
1.38
-2.23
-4.40
-3.78
-0.67
3.12
5.33
4.65
1.44
-2.42
-4.71
-4.12
-1.10
2.45
4.35
3.44
0.26
-3.26
-4.97
-3.80
-0.45
3.11
4.78
3.55
0.16
-3.41
-5.09
-3.91
-0.56
3.04
4.83
3.86
0.71
-2.79
-4.70
-3.98
-1.11
2.20
4.04
3.33
0.45
-2.95
-4.93
-4.34
-1.48
2.06
4.31
4.04
1.45
-1.89
-4.00
-3.64
-1.00
2.36
4.44
3.96
1.19
-2.25
-4.28
-3.66
-0.69
2.89
4.95
4.22
1.07
-2.71
-4.97
-4.46
-1.53
2.05
4.17
3.58
0.61
-3.06
-5.36
-4.99
-2.19
1.47
3.94
3.91
1.48
-1.84
-4.06
-3.85
-1.31
2.04
4.21
3.86
1.18
-2.24
-4.31
-3.69
-0.61
3.22
5.57
5.03
1.77
-2.45
-5.32
-5.30
-2.50
1.41
4.15
4.20
1.63
-1.91
-4.26
-3.97
-1.15
2.55
5.02
4.86
2.24
-1.25
-3.58
-3.42
-0.93
2.37
4.52
4.23
1.62
-1.82
-4.16
-4.07
-1.62
1.75
4.06
3.95
1.45
-1.98
-4.33
-4.20
-1.64
1.86
4.28
4.21
1.72
-1.72
-4.06
-3.93
-1.37
2.14
4.57
4.48
1.89
-1.80
-4.56
-4.91
-2.78
0.45
2.81
2.86
0.52
-2.83
-5.17
-5.06
-2.46
1.26
4.03
4.35
2.18
-1.13
-3.55
-3.64
-1.33
2.00
4.35
4.31
1.84
-1.63
-4.04
-3.90
-1.19
2.62
5.38
5.50
2.88
-1.04
-4.09
-4.60
-2.37
1.22
4.08
4.56
2.42
-1.08
-3.94
-4.60
-2.81
0.31
2.89
3.45
1.77
-1.10
-3.39
-3.70
-1.83
1.13
3.38
3.56
1.54
-1.51
-3.73
-3.71
-1.35
2.04
4.52
4.59
2.16
-1.44
-4.22
-4.64
-2.56
0.74
3.30
3.66
1.69
-1.36
-3.59
-3.56
-1.21
2.19
4.73
4.92
2.65
-0.86
-3.69
-4.30
-2.47
0.66
3.22
3.66
1.67
-1.65
-4.43
-5.05
-3.11
0.37
3.48
4.56
3.11
0.11
-2.62
-3.43
-1.83
1.20
3.79
4.33
2.41
-0.90
-3.70
-4.33
-2.43
0.85
3.53
3.95
1.72
-1.93
-4.97
-5.63
-3.49
0.27
3.59
4.65
2.95
-0.44
-3.52
-4.53
-2.94
0.30
3.26
4.24
2.75
-0.25
-2.90
-3.59
-1.89
1.19
3.78
4.29
2.33
-1.02
-3.83
-4.43
-2.37
1.22
4.33
5.16
3.17
-0.51
-3.84
-4.92
-3.16
0.38
3.63
4.71
3.00
-0.51
-3.81
-5.05
-3.60
-0.39
2.66
3.77
2.35
-0.66
-3.44
-4.26
-2.58
0.66
3.57
4.43
2.66
-0.76
-3.85
-4.83
-3.09
0.36
3.53
4.61
2.98
-0.38
-3.52
-4.61
-3.04
0.29
3.51
4.86
3.71
0.85
-1.98
-3.11
-1.90
0.89
3.58
4.51
3.04
-0.06
-3.01
-4.07
-2.54
0.75
3.91
5.10
3.54
0.07
-3.38
-4.92
-3.80
-0.82
2.15
3.31
1.97
-1.04
-3.92
-4.95
-3.52
-0.43
2.56
3.76
2.52
-0.42
-3.34
-4.49
-3.13
0.05
3.33
4.86
3.76
0.63
-2.78
-4.51
-3.59
-0.55
2.86
4.67
3.86
0.98
-2.22
-3.81
-2.89
-0.11
2.70
3.69
2.13
-1.14
-4.17
-5.13
-3.40
0.08
3.29
4.41
2.83
-0.52
-3.67
-4.85
-3.40
-0.16
3.07
4.58
3.69
1.07
-1.66
-2.92
-2.04
0.37
2.78
3.67
2.37
-0.49
-3.32
-4.46
-3.17
-0.05
3.26
4.93
4.07
1.21
-1.99
-3.64
-2.79
0.04
3.09
4.45
3.16
-0.15
-3.64
-5.29
-4.12
-0.73
2.95
4.84
3.87
0.58
-3.15
-5.23
-4.52
-1.48
2.11
4.23
3.75
1.09
-2.06
-3.75
-2.96
-0.17
2.91
4.33
3.12
-0.16
-3.72
-5.56
-4.64
-1.45
2.29
4.57
4.24
1.66
-1.56
-3.55
-3.21
-0.85
1.96
3.42
2.55
-0.22
-3.25
-4.68
-3.52
-0.31
3.24
5.16
4.44
1.59
-1.69
-3.47
-2.77
-0.08
2.91
4.33
3.23
0.13
-3.24
-4.96
-4.00
-0.87
2.73
4.81
4.21
1.33
-2.20
-4.41
-4.12
-1.63
1.50
3.37
2.87
0.28
-2.82
-4.55
-3.79
-0.84
2.76
5.07
4.86
2.36
-0.99
-3.28
-3.28
-1.14
1.70
3.40
2.78
0.07
-3.26
-5.31
-4.89
-2.20
1.28
3.61
3.55
1.25
-1.87
-3.93
-3.70
-1.34
1.72
3.62
3.18
0.60
-2.62
-4.54
-3.96
-1.13
2.43
4.71
4.47
1.87
-1.52
-3.74
-3.50
-0.93
2.42
4.59
4.26
1.64
-1.77
-3.98
-3.71
-1.16
2.14
4.19
3.75
1.03
-2.37
-4.45
-3.91
-0.97
2.78
5.26
5.09
2.40
-1.27
-3.79
-3.75
-1.23
2.18
4.36
3.91
0.99
-2.75
-5.17
-4.86
-2.01
1.71
4.14
3.88
1.09
-2.61
-5.10
-4.95
-2.25
1.50
4.23
4.50
2.30
-0.94
-3.20
-3.03
-0.46
3.08
5.47
5.28
2.55
-1.15
-3.62
-3.40
-0.58
3.18
5.65
5.34
2.41
-1.46
-4.06
-3.97
-1.38
2.04
4.13
3.53
0.46
-3.41
-5.96
-5.79
-3.05
0.67
3.27
3.30
0.81
-2.74
-5.25
-5.23
-2.65
1.03
3.68
3.72
1.03
-2.92
-5.90
-6.15
-3.43
0.83
4.35
5.25
3.20
-0.42
-3.34
-3.74
-1.33
2.46
5.31
5.47
2.78
-1.22
-4.17
-4.35
-1.69
2.21
5.00
4.99
2.21
-1.72
-4.50
-4.55
-1.94
1.67
4.02
3.62
0.62
-3.32
-5.94
-5.74
-2.84
1.11
3.91
3.98
1.34
-2.49
-5.35
-5.63
-3.18
0.61
3.66
4.33
2.37
-0.92
-3.45
-3.55
-0.96
2.97
6.04
6.49
4.05
0.08
-3.14
-3.81
-1.63
2.03
4.90
5.21
2.72
-1.14
-4.14
-4.52
-2.11
1.64
4.49
4.74
2.18
-1.73
-4.81
-5.34
-3.07
0.60
3.51
3.97
1.69
-2.00
-5.00
-5.62
-3.52
0.08
3.14
3.96
2.24
-0.89
-3.42
-3.75
-1.60
1.79
4.39
4.59
2.21
-1.37
-4.04
-4.18
-1.65
2.08
4.77
4.75
1.89
-2.27
-5.38
-5.69
-3.01
1.12
4.35
4.87
2.46
-1.42
-4.46
-4.89
-2.51
1.29
4.26
4.67
2.37
-1.24
-3.95
-4.13
-1.68
1.93
4.49
4.39
1.60
-2.34
-5.12
-5.07
-2.14
2.09
5.25
5.61
3.05
-0.89
-3.89
-4.22
-1.72
2.11
5.00
5.24
2.68
-1.24
-4.25
-4.61
-2.14
1.77
4.85
5.33
2.94
-0.97
-4.19
-4.92
-2.88
0.60
3.35
3.65
1.30
-2.32
-5.00
-5.07
-2.40
1.54
4.51
4.82
2.34
-1.48
-4.41
-4.77
-2.41
1.26
4.04
4.25
1.72
-2.13
-5.06
-5.31
-2.65
1.53
4.95
5.74
3.54
-0.36
-3.73
-4.69
-2.83
0.61
3.50
4.09
2.03
-1.40
-4.10
-4.37
-1.93
1.89
4.90
5.32
2.80
-1.35
-4.90
-5.93
-3.91
0.00
3.58
4.83
3.10
-0.55
-3.98
-5.20
-3.53
0.04
3.37
4.54
2.90
-0.50
-3.56
-4.43
-2.56
0.89
3.82
4.44
2.30
-1.38
-4.45
-5.08
-2.81
1.13
4.57
5.61
3.71
-0.02
-3.48
-4.77
-3.27
0.06
3.17
4.22
2.56
-0.86
-4.04
-5.14
-3.50
-0.05
3.23
4.47
2.99
-0.27
-3.34
-4.33
-2.57
0.98
4.28
5.44
3.74
0.19
-3.19
-4.43
-2.85
0.56
3.77
4.88
3.23
-0.15
-3.23
-4.17
-2.38
1.09
4.21
5.10
3.20
-0.46
-3.78
-4.84
-2.98
0.79
4.34
5.67
4.04
0.41
-3.08
-4.40
-2.79
0.80
4.19
5.34
3.46
-0.47
-4.28
-5.87
-4.42
-0.86
2.71
4.21
2.79
-0.65
-4.11
-5.55
-4.13
-0.71
2.71
4.12
2.72
-0.63
-3.90
-5.08
-3.36
0.36
4.03
5.57
4.13
0.62
-2.90
-4.34
-2.81
0.78
4.33
5.69
3.95
0.02
-3.94
-5.71
-4.31
-0.61
3.19
4.88
3.50
-0.05
-3.63
-5.10
-3.59
-0.04
3.43
4.73
3.05
-0.64
-4.21
-5.55
-3.85
-0.06
3.68
5.24
3.73
0.03
-3.76
-5.46
-4.11
-0.52
3.25
5.04
3.83
0.36
-3.34
-5.12
-3.98
-0.64
2.92
4.59
3.39
0.02
-3.52
-5.12
-3.79
-0.24
3.53
5.39
4.32
1.00
-2.60
-4.39
-3.34
-0.14
3.25
4.78
3.46
-0.00
-3.65
-5.43
-4.34
-1.09
2.38
4.05
2.92
-0.34
-3.82
-5.52
-4.45
-1.23
2.31
4.24
3.62
1.00
-1.89
-3.22
-2.15
0.69
3.57
4.66
3.18
-0.21
-3.68
-5.33
-4.23
-0.96
2.68
4.73
4.12
1.34
-1.94
-3.78
-3.11
-0.36
2.77
4.37
3.40
0.34
-3.05
-4.83
-3.90
-0.78
2.74
4.64
3.79
0.70
-2.86
-4.78
-3.91
-0.68
3.11
5.31
4.67
1.53
-2.34
-4.75
-4.34
-1.37
2.48
5.02
4.87
2.25
-1.22
-3.41
-3.03
-0.33
2.96
4.73
3.73
0.37
-3.53
-5.73
-4.93
-1.56
2.47
4.83
4.17
0.88
-3.11
-5.48
-4.82
-1.54
2.46
4.85
4.29
1.18
-2.59
-4.75
-3.95
-0.60
3.42
5.82
5.21
1.91
-2.27
-5.02
-4.88
-2.00
1.89
4.53
4.41
1.64
-2.15
-4.73
-4.56
-1.75
2.06
4.64
4.47
1.64
-2.22
-4.89
-4.82
-2.09
1.70
4.33
4.27
1.62
-2.05
-4.54
-4.30
-1.40
2.54
5.27
5.19
2.35
-1.64
-4.46
-4.51
-1.81
2.01
4.61
4.40
1.45
-2.53
-5.20
-4.96
-1.94
2.13
4.86
4.68
1.70
-2.30
-4.95
-4.66
-1.57
2.58
5.40
5.26
2.26
-1.88
-4.80
-4.86
-2.08
1.87
4.69
4.73
2.01
-1.89
-4.72
-4.86
-2.28
1.49
4.23
4.35
1.77
-2.02
-4.85
-5.09
-2.62
1.15
4.04
4.42
2.06
-1.66
-4.62
-5.13
-2.92
0.65
3.51
4.00
1.89
-1.52
-4.15
-4.38
-1.99
1.68
4.58
5.10
3.02
-0.34
-2.97
-3.28
-1.09
2.28
4.82
4.95
2.48
-1.24
-4.11
-4.47
-2.06
1.75
4.77
5.26
2.91
-0.92
-4.03
-4.60
-2.29
1.57
4.69
5.25
2.87
-1.10
-4.40
-5.18
-3.08
0.58
3.55
4.04
1.70
-2.12
-5.21
-5.74
-3.39
0.48
3.62
4.19
1.82
-2.11
-5.34
-5.96
-3.57
0.52
4.02
5.04
3.13
-0.46
-3.54
-4.27
-2.25
1.24
4.03
4.35
1.90
-1.97
-5.04
-5.52
-3.10
0.88
4.16
4.88
2.66
-1.18
-4.38
-5.04
-2.72
1.29
4.75
5.73
3.76
0.05
-3.18
-4.07
-2.14
1.43
4.46
5.13
2.98
-0.79
-4.07
-5.01
-3.11
0.52
3.83
4.93
3.25
-0.19
-3.39
-4.48
-2.83
0.59
3.78
4.85
3.12
-0.46
-3.85
-5.09
-3.46
0.09
3.49
4.74
3.06
-0.66
-4.31
-5.86
-4.47
-0.96
2.64
4.29
3.16
0.04
-3.09
-4.31
-2.85
0.40
3.44
4.40
2.61
-0.90
-4.08
-5.02
-3.07
0.70
4.20
5.47
3.83
0.25
-3.20
-4.57
-3.08
0.36
3.75
5.12
3.67
0.26
-3.14
-4.51
-3.03
0.48
4.01
5.46
3.93
0.21
-3.64
-5.45
-4.19
-0.57
3.35
5.35
4.32
0.91
-2.88
-4.86
-3.96
-0.81
2.63
4.26
3.10
-0.12
-3.47
-4.90
-3.52
-0.13
3.30
4.72
3.26
-0.27
-3.84
-5.38
-3.95
-0.33
3.41
5.10
3.69
-0.07
-4.11
-6.13
-4.96
-1.23
2.96
5.30
4.55
1.26
-2.54
-4.58
-3.66
-0.32
3.42
5.34
4.26
0.78
-3.12
-5.21
-4.30
-0.96
2.89
5.05
4.37
1.38
-2.06
-3.86
-2.95
0.10
3.41
4.93
3.64
0.18
-3.51
-5.35
-4.27
-0.88
2.93
5.01
4.24
1.10
-2.58
-4.73
-4.19
-1.38
1.93
3.72
2.85
-0.26
-3.81
-5.74
-4.86
-1.58
2.29
4.62
4.15
1.26
-2.22
-4.13
-3.24
0.01
3.73
5.72
4.73
1.28
-2.72
-5.00
-4.34
-1.23
2.44
4.49
3.71
0.63
-2.95
-4.93
-4.17
-1.13
2.43
4.46
3.84
0.94
-2.55
-4.65
-4.16
-1.37
2.11
4.28
3.87
1.12
-2.39
-4.60
-4.17
-1.27
2.48
4.95
4.75
2.02
-1.58
-3.87
-3.41
-0.41
3.42
5.81
5.27
2.03
-2.15
-4.95
-4.81
-1.90
2.07
4.82
4.80
2.12
-1.61
-4.17
-4.07
-1.47
1.99
4.12
3.52
0.45
-3.35
-5.64
-5.03
-1.82
2.18
4.64
4.15
0.97
-3.09
-5.73
-5.45
-2.46
1.56
4.37
4.50
2.07
-1.37
-3.70
-3.51
-0.89
2.64
5.02
4.84
2.23
-1.30
-3.66
-3.44
-0.74
2.87
5.22
4.82
1.77
-2.32
-5.18
-5.23
-2.47
1.51
4.42
4.63
2.08
-1.72
-4.58
-4.87
-2.51
1.06
3.73
3.93
1.56
-1.97
-4.62
-4.82
-2.47
1.07
3.71
3.90
1.51
-2.09
-4.77
-4.90
-2.32
1.56
4.53
4.89
2.38
-1.60
-4.80
-5.42
-3.14
0.71
3.90
4.67
2.71
-0.66
-3.28
-3.49
-1.09
2.49
5.05
4.97
2.17
-1.80
-4.68
-4.81
-2.07
1.98
5.08
5.51
3.03
-0.95
-4.22
-5.01
-3.00
0.58
3.60
4.35
2.51
-0.76
-3.41
-3.81
-1.68
1.72
4.33
4.51
2.06
-1.66
-4.52
-4.86
-2.42
1.44
4.55
5.17
2.95
-0.89
-4.23
-5.30
-3.64
-0.38
2.51
3.33
1.66
-1.40
-3.89
-4.14
-1.83
1.82
4.74
5.17
2.75
-1.21
-4.55
-5.40
-3.29
0.55
3.95
4.96
3.04
-0.68
-4.04
-5.11
-3.31
0.27
3.51
4.51
2.73
-0.75
-3.81
-4.60
-2.62
0.99
4.07
4.76
2.58
-1.28
-4.65
-5.64
-3.72
-0.03
3.30
4.39
2.72
-0.61
-3.50
-4.10
-1.90
1.94
5.25
6.09
3.89
-0.25
-4.06
-5.48
-3.81
-0.08
3.51
4.88
3.32
-0.13
-3.33
-4.33
-2.51
1.00
4.08
4.81
2.69
-1.07
-4.28
-5.04
-2.86
1.05
4.49
5.54
3.62
-0.17
-3.65
-4.88
-3.23
0.27
3.51
4.56
2.79
-0.77
-4.00
-4.97
-3.06
0.66
4.07
5.20
3.44
-0.14
-3.45
-4.60
-2.98
0.36
3.39
4.26
2.39
-1.17
-4.34
-5.28
-3.38
0.28
3.61
4.69
2.92
-0.66
-3.94
-4.99
-3.19
0.40
3.69
4.75
2.99
-0.53
-3.71
-4.66
-2.77
0.86
4.17
5.27
3.55
0.04
-3.25
-4.47
-3.01
0.19
3.16
4.12
2.44
-0.95
-4.09
-5.21
-3.65
-0.31
2.90
4.15
2.78
-0.31
-3.23
-4.14
-2.38
1.12
4.36
5.42
3.56
-0.27
-4.00
-5.59
-4.18
-0.60
3.13
4.94
3.86
0.58
-2.98
-4.78
-3.85
-0.79
2.56
4.22
3.21
0.12
-3.22
-4.85
-3.79
-0.66
2.72
4.37
3.35
0.31
-2.88
-4.24
-2.84
0.58
4.10
5.65
4.30
0.80
-2.87
-4.63
-3.49
-0.16
3.40
5.07
3.81
0.26
-3.62
-5.73
-5.01
-2.03
1.35
3.10
2.25
-0.60
-3.61
-4.83
-3.35
0.15
3.77
5.51
4.43
1.19
-2.32
-4.08
-3.09
0.07
3.59
5.49
4.70
1.77
-1.59
-3.45
-2.80
-0.18
2.73
4.09
2.99
0.02
-3.07
-4.41
-3.11
0.20
3.69
5.35
4.16
0.69
-3.23
-5.48
-4.88
-1.88
1.74
3.86
3.25
0.31
-3.19
-5.12
-4.26
-1.00
2.84
5.09
4.48
1.42
-2.27
-4.43
-3.81
-0.87
2.60
4.48
3.61
0.48
-3.06
-4.91
-3.97
-0.79
2.75
4.59
3.67
0.62
-2.66
-4.12
-2.74
0.81
4.52
6.22
4.79
0.87
-3.47
-5.93
-5.21
-1.77
2.42
5.03
4.65
1.57
-2.42
-5.04
-4.88
-2.11
1.57
3.98
3.71
0.96
-2.63
-4.93
-4.54
-1.69
1.99
4.33
3.98
1.16
-2.48
-4.79
-4.43
-1.63
1.92
4.07
3.49
0.50
-3.16
-5.29
-4.57
-1.30
2.71
5.23
4.84
1.78
-2.20
-4.86
-4.71
-1.86
2.08
4.90
5.07
2.60
-1.01
-3.64
-3.77
-1.41
1.99
4.32
4.10
1.43
-2.13
-4.41
-3.98
-1.00
2.85
5.29
4.87
1.77
-2.27
-4.92
-4.70
-1.79
2.05
4.53
4.18
1.19
-2.71
-5.22
-4.88
-1.83
2.18
4.90
4.81
2.01
-1.83
-4.50
-4.45
-1.75
2.04
4.72
4.78
2.21
-1.48
-4.11
-4.14
-1.53
2.23
4.96
5.05
2.38
-1.61
-4.73
-5.29
-3.04
0.70
3.79
4.52
2.57
-0.84
-3.67
-4.28
-2.36
0.86
3.35
3.52
1.15
-2.42
-5.09
-5.24
-2.72
1.06
3.91
4.15
1.64
-2.16
-5.03
-5.26
-2.67
1.30
4.46
5.13
3.08
-0.31
-2.96
-3.26
-1.07
2.24
4.59
4.46
1.78
-2.02
-4.75
-4.84
-2.21
1.67
4.58
4.85
2.33
-1.55
-4.57
-5.02
-2.69
1.03
3.95
4.36
2.08
-1.54
-4.30
-4.51
-1.96
1.93
4.94
5.34
2.90
-1.01
-4.17
-4.81
-2.60
1.19
4.43
5.36
3.57
0.22
-2.67
-3.41
-1.62
1.55
4.08
4.34
1.99
-1.73
-4.76
-5.37
-3.23
0.45
3.52
4.19
2.05
-1.74
-5.03
-5.98
-4.08
-0.44
2.88
4.02
2.43
-0.85
-3.82
-4.68
-2.89
0.49
3.43
4.15
2.17
-1.38
-4.41
-5.13
-3.02
0.81
4.29
5.55
3.98
0.59
-2.60
-3.74
-2.16
1.15
4.21
5.12
3.27
-0.37
-3.73
-4.86
-3.11
0.52
3.95
5.21
3.58
0.05
-3.35
-4.67
-3.22
0.08
3.25
4.41
2.90
-0.39
-3.49
-4.55
-2.95
0.37
3.43
4.38
2.61
-0.83
-3.90
-4.70
-2.66
1.13
4.54
5.65
3.82
0.11
-3.37
-4.70
-3.21
0.16
3.36
4.48
2.80
-0.77
-4.20
-5.49
-3.84
-0.14
3.53
5.09
3.69
0.17
-3.35
-4.75
-3.15
0.54
4.18
5.66
4.12
0.47
-3.18
-4.76
-3.45
-0.11
3.19
4.50
3.00
-0.45
-3.85
-5.26
-3.87
-0.50
2.89
4.34
3.04
-0.21
-3.46
-4.74
-3.26
0.18
3.56
4.87
3.30
-0.31
-3.91
-5.45
-4.04
-0.54
3.01
4.57
3.27
-0.07
-3.42
-4.74
-3.16
0.52
4.23
5.88
4.51
0.84
-3.10
-5.16
-4.26
-1.03
2.64
4.59
3.72
0.61
-2.85
-4.53
-3.36
0.05
3.68
5.37
4.01
0.31
-3.68
-5.70
-4.62
-1.12
2.72
4.63
3.50
-0.01
-3.81
-5.62
-4.33
-0.63
3.45
5.66
4.90
1.81
-1.67
-3.44
-2.50
0.51
3.67
4.98
3.50
-0.06
-3.77
-5.56
-4.42
-1.02
2.74
4.74
3.90
0.74
-2.86
-4.83
-4.05
-0.97
2.57
4.51
3.71
0.63
-2.97
-5.04
-4.39
-1.46
2.01
3.96
3.25
0.31
-3.07
-4.83
-3.84
-0.54
3.24
5.42
4.80
1.78
-1.88
-4.13
-3.71
-0.94
2.57
4.78
4.44
1.76
-1.69
-3.91
-3.57
-0.90
2.51
4.53
3.83
0.62
-3.34
-5.81
-5.37
-2.24
1.77
4.33
3.96
0.91
-3.02
-5.51
-5.10
-2.06
1.83
4.29
3.92
1.00
-2.68
-4.92
-4.33
-1.27
2.52
4.85
4.39
1.49
-2.11
-4.22
-3.59
-0.54
3.11
5.19
4.44
1.22
-2.61
-4.83
-4.13
-0.93
2.93
5.23
4.64
1.51
-2.37
-4.80
-4.44
-1.56
2.18
4.63
4.44
1.75
-1.87
-4.36
-4.33
-1.84
1.59
3.88
3.58
0.75
-3.05
-5.63
-5.46
-2.55
1.45
4.24
4.20
1.37
-2.56
-5.24
-5.02
-1.97
2.17
5.04
5.00
2.18
-1.71
-4.33
-4.15
-1.32
2.46
4.97
4.79
2.11
-1.41
-3.64
-3.28
-0.55
2.88
4.96
4.46
1.63
-1.87
-4.02
-3.60
-0.90
2.43
4.36
3.72
0.83
-2.65
-4.66
-3.96
-0.86
2.95
5.33
4.89
1.86
-2.12
-4.82
-4.73
-1.89
2.13
5.06
5.26
2.64
-1.32
-4.36
-4.82
-2.53
1.05
3.71
3.82
1.26
-2.51
-5.29
-5.47
-2.95
0.82
3.68
4.04
1.81
-1.58
-4.03
-4.01
-1.50
2.06
4.57
4.55
2.02
-1.51
-3.92
-3.72
-0.96
2.82
5.44
5.35
2.55
-1.42
-4.34
-4.57
-2.00
1.88
4.85
5.19
2.63
-1.45
-4.80
-5.64
-3.56
0.16
3.34
4.19
2.29
-1.15
-4.04
-4.65
-2.64
0.77
3.51
3.93
1.78
-1.65
-4.26
-4.43
-1.96
1.80
4.69
5.02
2.56
-1.29
-4.33
-4.82
-2.46
1.38
4.50
5.14
2.97
-0.70
-3.72
-4.34
-2.21
1.40
4.36
4.89
2.60
-1.31
-4.74
-5.84
-4.10
-0.60
2.62
3.71
2.09
-1.23
-4.22
-5.07
-3.21
0.35
3.56
4.59
2.85
-0.62
-3.75
-4.65
-2.73
1.00
4.45
5.69
4.03
0.45
-3.04
-4.50
-3.24
-0.17
2.70
3.53
1.70
-1.79
-4.86
-5.61
-3.43
0.60
4.30
5.63
3.92
0.21
-3.29
-4.52
-2.75
0.99
4.51
5.77
4.04
0.37
-3.10
-4.34
-2.68
0.87
4.17
5.24
3.37
-0.40
-3.98
-5.35
-3.81
-0.33
3.01
4.26
2.71
-0.66
-3.80
-4.80
-2.99
0.62
3.99
5.20
3.58
0.08
-3.28
-4.60
-3.15
0.21
3.52
4.86
3.43
0.01
-3.45
-4.97
-3.68
-0.31
3.20
4.80
3.57
0.24
-3.25
-4.81
-3.48
0.01
3.65
5.32
4.01
0.43
-3.37
-5.23
-4.10
-0.64
3.15
5.12
4.18
0.94
-2.71
-4.68
-3.96
-1.13
1.97
3.40
2.25
-0.81
-3.89
-5.06
-3.45
0.16
3.79
5.37
3.91
0.17
-3.77
-5.69
-4.50
-0.86
3.16
5.29
4.38
1.03
-2.77
-4.79
-3.92
-0.73
2.83
4.58
3.44
0.04
-3.64
-5.42
-4.18
-0.57
3.40
5.50
4.58
1.22
-2.60
-4.68
-3.88
-0.77
2.75
4.58
3.67
0.60
-2.79
-4.50
-3.51
-0.41
2.99
4.68
3.65
0.47
-3.03
-4.77
-3.65
-0.19
3.72
5.88
5.02
1.54
-2.68
-5.36
-5.11
-2.21
1.59
4.06
3.84
1.20
-2.20
-4.25
-3.66
-0.73
2.84
4.98
4.44
1.59
-1.85
-3.82
-3.10
-0.10
3.41
5.28
4.27
0.80
-3.33
-5.89
-5.53
-2.55
1.29
3.81
3.62
0.98
-2.44
-4.50
-3.84
-0.70
3.17
5.51
4.86
1.42
-3.03
-6.09
-6.11
-3.13
1.15
4.34
4.72
2.22
-1.58
-4.38
-4.52
-1.93
1.83
4.51
4.51
1.89
-1.79
-4.32
-4.18
-1.46
2.25
4.75
4.52
1.60
-2.46
-5.46
-5.83
-3.47
0.19
3.03
3.50
1.44
-1.79
-4.14
-4.10
-1.54
2.13
4.84
5.02
2.57
-1.07
-3.74
-3.82
-1.19
2.70
5.62
5.86
3.24
-0.83
-4.10
-4.78
-2.60
1.08
4.05
4.56
2.39
-1.08
-3.61
-3.57
-0.82
3.07
5.83
5.79
2.89
-1.29
-4.42
-4.79
-2.26
1.65
4.69
5.09
2.65
-1.26
-4.46
-5.22
-3.25
0.16
2.89
3.23
0.90
-2.80
-5.71
-6.11
-3.70
0.16
3.25
3.80
1.50
-2.26
-5.20
-5.47
-2.78
1.45
4.87
5.58
3.27
-0.67
-3.89
-4.52
-2.24
1.56
4.59
5.05
2.68
-1.09
-4.00
-4.31
-1.83
1.98
4.88
5.14
2.58
-1.34
-4.36
-4.78
-2.36
1.54
4.73
5.47
3.45
-0.11
-3.17
-4.05
-2.39
0.70
3.29
3.77
1.77
-1.64
-4.51
-5.17
-3.17
0.44
3.65
4.61
2.71
-1.09
-4.70
-6.16
-4.69
-1.18
2.34
3.88
2.66
-0.42
-3.32
-4.13
-2.18
1.48
4.70
5.53
3.40
-0.54
-4.03
-5.07
-3.06
0.81
4.28
5.34
3.39
-0.43
-3.89
-5.00
-3.15
0.59
4.07
5.37
3.88
0.63
-2.36
-3.23
-1.40
2.12
5.29
6.25
4.36
0.59
-3.03
-4.58
-3.34
-0.16
3.00
4.20
2.64
-0.88
-4.42
-6.00
-4.72
-1.30
2.35
4.15
3.09
-0.22
-3.87
-5.75
-4.77
-1.46
2.28
4.30
3.47
0.35
-3.15
-4.89
-3.79
-0.47
3.08
4.70
3.37
-0.18
-3.86
-5.48
-4.04
-0.35
3.46
5.21
3.94
0.52
-2.92
-4.28
-2.71
0.85
4.29
5.58
3.99
0.50
-2.77
-3.87
-2.11
1.49
4.89
6.13
4.52
0.97
-2.56
-4.17
-3.09
-0.08
3.05
4.48
3.34
0.26
-3.10
-4.94
-4.30
-1.61
1.58
3.47
3.04
0.60
-2.36
-4.08
-3.48
-0.86
2.27
4.04
3.31
0.37
-3.22
-5.46
-5.09
-2.32
1.27
3.63
3.42
0.79
-2.63
-4.76
-4.19
-1.10
2.87
5.54
5.42
2.60
-1.32
-4.18
-4.44
-2.14
1.20
3.45
3.16
0.39
-3.30
-5.80
-5.65
-2.94
0.78
3.42
3.55
1.26
-1.91
-3.93
-3.45
-0.67
2.84
5.00
4.50
1.55
-2.19
-4.60
-4.30
-1.48
2.23
4.66
4.37
1.47
-2.43
-5.10
-5.02
-2.20
1.75
4.60
4.73
2.16
-1.53
-4.08
-3.91
-1.08
2.74
5.29
5.05
2.18
-1.60
-4.02
-3.64
-0.68
3.15
5.64
5.43
2.71
-0.86
-3.21
-3.03
-0.49
2.79
4.76
4.07
0.88
-3.22
-6.06
-6.15
-3.49
0.39
3.28
3.58
1.23
-2.28
-4.77
-4.67
-1.91
2.00
4.87
5.10
2.64
-1.08
-3.91
-4.29
-2.11
1.22
3.68
3.77
1.45
-1.87
-4.16
-3.96
-1.30
2.38
4.99
5.01
2.43
-1.33
-4.15
-4.48
-2.19
1.28
3.87
4.02
1.60
-1.99
-4.64
-4.74
-2.13
1.80
4.82
5.21
2.68
-1.38
-4.70
-5.45
-3.29
0.42
3.44
3.99
1.79
-1.77
-4.52
-4.73
-2.22
1.60
4.52
4.82
2.34
-1.54
-4.59
-5.11
-2.82
0.99
4.18
5.05
3.23
-0.09
-2.90
-3.52
-1.57
1.77
4.48
4.90
2.71
-0.87
-3.77
-4.32
-2.23
1.23
3.94
4.19
1.67
-2.31
-5.56
-6.29
-4.07
-0.14
3.38
4.65
3.16
-0.02
-2.87
-3.63
-1.86
1.35
3.99
4.33
2.00
-1.80
-4.92
-5.53
-3.19
0.87
4.46
5.62
3.78
0.04
-3.44
-4.70
-3.08
0.43
3.74
4.96
3.42
0.11
-2.96
-3.92
-2.16
1.28
4.35
5.15
3.07
-0.82
-4.37
-5.59
-3.79
0.01
3.70
5.21
3.78
0.28
-3.21
-4.70
-3.42
-0.25
2.84
3.92
2.32
-1.05
-4.19
-5.22
-3.49
0.06
3.43
4.70
3.17
-0.23
-3.51
-4.70
-3.03
0.61
4.18
5.67
4.25
0.75
-2.81
-4.36
-3.06
0.31
3.67
4.97
3.31
-0.45
-4.25
-5.95
-4.63
-1.10
2.62
4.42
3.34
0.14
-3.19
-4.59
-3.12
0.46
4.14
5.80
4.44
0.75
-3.27
-5.46
-4.70
-1.58
1.96
3.77
2.77
-0.46
-3.97
-5.61
-4.35
-0.85
2.88
4.73
3.70
0.52
-2.84
-4.32
-2.98
0.42
3.95
5.57
4.32
0.86
-2.91
-4.96
-4.23
-1.25
2.19
4.06
3.32
0.49
-2.61
-3.97
-2.61
0.82
4.35
5.89
4.40
0.62
-3.43
-5.56
-4.64
-1.29
2.52
4.58
3.71
0.41
-3.41
-5.55
-4.77
-1.51
2.37
4.64
4.10
1.21
-2.16
-3.83
-2.69
0.62
4.11
5.59
4.03
0.17
-3.85
-5.81
-4.57
-0.80
3.48
6.03
5.59
2.61
-1.13
-3.53
-3.36
-0.88
2.30
4.18
3.55
0.63
-2.98
-5.26
-4.92
-2.13
1.48
3.81
3.47
0.64
-3.03
-5.36
-4.94
-1.95
1.89
4.34
4.00
1.07
-2.68
-5.00
-4.49
-1.39
2.51
4.99
4.65
1.74
-2.01
-4.39
-4.07
-1.26
2.34
4.61
4.24
1.49
-1.96
-4.02
-3.41
-0.43
3.20
5.38
4.82
1.84
-1.86
-4.15
-3.76
-0.96
2.57
4.72
4.21
1.26
-2.47
-4.88
-4.61
-1.81
1.92
4.46
4.38
1.73
-1.97
-4.58
-4.58
-1.92
1.88
4.66
4.82
2.27
-1.52
-4.36
-4.61
-2.18
1.46
4.11
4.16
1.54
-2.22
-4.94
-5.00
-2.36
1.44
4.18
4.27
1.68
-2.06
-4.76
-4.81
-2.19
1.56
4.22
4.16
1.34
-2.69
-5.63
-5.81
-3.09
0.95
4.02
4.38
1.91
-1.86
-4.63
-4.69
-1.97
1.98
4.81
4.85
2.04
-1.97
-4.79
-4.69
-1.62
2.77
6.03
6.32
3.49
-0.86
-4.31
-4.96
-2.54
1.46
4.68
5.23
2.75
-1.39
-4.89
-5.83
-3.75
0.10
3.56
4.73
3.12
-0.17
-3.10
-3.90
-2.14
1.07
3.75
4.28
2.35
-0.83
-3.27
-3.35
-0.91
2.71
5.37
5.41
2.65
-1.49
-4.76
-5.39
-3.12
0.63
3.59
3.97
1.47
-2.51
-5.71
-6.27
-3.86
0.15
3.48
4.21
1.95
-2.01
-5.42
-6.38
-4.38
-0.62
2.71
3.71
1.84
-1.76
-4.98
-5.93
-4.05
-0.45
2.83
3.93
2.32
-0.93
-3.84
-4.65
-2.93
0.21
2.80
3.17
1.03
-2.43
-5.20
-5.67
-3.66
-0.47
1.82
1.67
-0.99
-4.67
-7.15
-6.85
-3.79
0.33
3.10
2.82
-0.49
-4.96
-7.90
-7.32
-3.02
3.20
8.67
11.41
11.43
10.84
12.86
20.11
33.25
50.59
68.92
85.30
98.31
108.50
117.71
127.94
140.00
153.43
166.83
178.51
187.32
192.83
195.16
194.53
190.78
183.39
171.49
154.80
132.83
105.26
71.88
32.61
-12.61
-63.15
-116.90
-169.71
-215.87
-249.63
-266.62
-266.06
-250.58
-225.93
-198.79
-174.64
-156.63
-145.79
-141.95
-144.40
-151.97
-162.55
-172.64
-177.48
-172.14
-153.47
-122.55
-85.06
-50.81
-30.72
-32.75
-58.16
-100.20
-146.05
-181.66
-196.97
-189.10
-162.16
-124.34
-83.99
-46.87
-15.91
7.94
24.39
33.14
34.34
29.30
20.91
13.39
11.21
17.70
34.05
58.90
88.50
117.70
141.45
156.33
161.66
159.64
154.24
149.34
147.33
147.93
148.45
145.37
135.84
118.58
93.99
63.70
30.75
0.43
-19.97
-22.91
-3.98
34.76
83.51
127.62
153.06
151.14
123.46
80.37
35.46
-0.75
-24.40
-37.65
-45.00
-49.60
-51.75
-49.90
-43.26
-33.37
-23.74
-18.12
-18.37
-23.56
-30.67
-35.95
-36.74
-32.64
-25.49
-18.34
-13.96
-13.59
-16.56
-20.82
-23.96
-24.31
-21.61
-16.98
-12.23
-9.04
-8.14
-9.21
-11.13
-12.64
-12.85
-11.59
-9.36
-7.00
-5.28
-4.57
-4.74
-5.34
-5.85
-5.90
-5.44
-4.64
-3.80
-3.18
-2.86
-2.81
-2.87
-2.92
-2.88
-2.76
-2.63
-2.56
-2.59
-2.71
-2.85
-2.96
-2.96
-2.86
-2.71
-2.59
-2.61
-2.82
-3.21
-3.67
-4.05
-4.21
-4.13
-3.94
-3.85
-4.14
-4.95
-6.19
-7.58
-8.72
-9.27
-9.19
-8.77
-8.55
-9.09
-10.69
-13.20
-16.06
-18.47
-19.83
-19.97
-19.35
-18.86
-19.45
-21.67
-25.38
-29.78
-33.76
-36.44
-37.43
-37.06
-36.14
-35.68
-36.70
-40.12
-46.54
-55.57
-65.13
-71.34
-69.50
-56.15
-31.14
1.54
34.91
61.71
77.43
81.99
78.73
72.51
66.93
63.09
60.30
57.55
54.66
52.08
49.83
46.75
41.04
31.64
19.54
7.76
0.07
-1.07
4.11
12.87
21.52
27.24
29.17
28.21
25.98
23.67
21.70
20.00
18.53
17.51
17.26
17.81
18.77
19.84
20.53
20.77
20.74
20.71
20.87
21.27
21.91
22.76
23.76
24.77
25.54
25.84
25.87
26.41
28.59
32.97
38.21
41.12
37.40
23.79
0.12
-30.23
-61.76
-89.34
-110.00
-123.08
-128.64
-126.09
-114.00
-91.77
-61.37
-28.27
0.11
17.68
22.44
17.26
7.97
0.23
-3.01
-2.24
-0.19
0.32
-1.91
-5.96
-9.53
-10.22
-6.76
0.52
9.56
17.61
22.40
22.99
20.24
16.42
13.99
14.77
19.25
26.96
36.70
46.42
52.90
51.94
39.65
14.85
-18.87
-53.04
-76.81
-81.85
-66.54
-36.88
-3.50
23.40
38.66
43.25
42.08
40.70
42.14
45.85
49.27
50.21
47.77
42.04
33.16
21.14
6.87
-7.50
-19.17
-25.40
-24.77
-17.65
-5.96
7.79
18.66
23.30
21.91
16.67
9.24
0.13
-10.03
-19.14
-24.58
-23.73
-15.30
-0.82
15.49
28.29
33.33
27.92
13.42
-5.70
-23.69
-35.50
-38.81
-35.05
-28.87
-25.97
-30.54
-43.41
-62.20
-82.17
-97.68
-103.46
-95.95
-74.20
-39.73
3.66
50.27
92.48
122.00
132.38
121.76
94.16
57.69
21.81
-6.03
-22.74
-30.47
-34.68
-40.78
-51.08
-60.14
-60.96
-50.44
-32.77
-15.45
-4.16
-0.12
-0.75
-1.91
-0.39
4.14
9.97
15.21
19.25
22.18
24.50
26.38
27.73
28.45
28.14
26.40
23.43
20.17
17.27
15.24
14.43
15.30
18.28
22.98
27.96
31.08
30.18
23.19
9.40
-10.32
-33.56
-57.26
-79.16
-98.28
-114.73
-123.24
-120.49
-104.77
-77.01
-40.69
-1.20
35.39
64.57
84.99
98.79
109.11
117.56
123.21
123.80
117.13
101.71
77.71
47.08
13.05
-18.13
-38.74
-44.89
-39.40
-28.12
-15.79
-3.88
7.99
20.58
33.58
43.34
44.69
37.92
26.07
12.14
-1.23
-12.64
-21.93
-30.24
-42.52
-63.33
-94.95
-130.13
-164.16
-193.72
-217.10
-233.85
-227.37
-193.57
-142.28
-88.76
-42.93
-7.91
17.79
36.81
51.49
63.43
70.83
72.72
70.59
67.32
64.89
64.26
65.45
68.06
71.58
73.49
72.34
68.76
64.40
60.49
57.57
55.60
54.34
53.13
50.85
46.80
41.30
34.91
28.19
21.27
14.09
6.71
-0.61
-8.14
-16.08
-22.11
-27.28
-32.10
-36.82
-41.39
-45.34
-47.96
-48.84
-48.05
-46.14
-44.45
-43.85
-45.00
-47.80
-51.39
-54.43
-55.89
-55.40
-53.50
-51.57
-50.71
-51.64
-54.84
-60.47
-68.24
-76.77
-83.21
-83.67
-74.73
-55.01
-26.65
4.96
33.28
53.25
63.20
64.88
61.80
57.06
52.16
47.17
41.68
36.00
31.30
28.83
28.88
30.36
31.28
29.91
25.69
19.62
13.78
10.32
10.48
13.99
19.33
24.68
28.69
31.39
33.84
37.66
44.38
54.93
69.50
87.19
105.66
120.53
127.39
122.39
104.50
76.66
45.15
17.20
-1.89
-10.69
-11.50
-8.24
-4.35
-1.23
1.60
5.14
9.63
14.03
16.74
16.62
13.85
9.55
5.10
1.58
-1.00
-3.56
-7.39
-13.46
-21.85
-31.65
-41.37
-49.02
-53.96
-56.26
-56.78
-56.79
-57.30
-58.61
-60.20
-61.07
-60.36
-57.29
-51.97
-45.43
-38.57
-32.09
-26.12
-20.18
-13.41
-5.20
4.26
13.84
21.68
25.80
25.03
19.39
10.20
-0.48
-10.82
-19.72
-27.28
-33.79
-40.79
-49.11
-58.95
-70.05
-81.62
-92.00
-98.47
-97.71
-87.05
-66.11
-37.59
-6.74
20.50
39.95
50.65
54.57
54.84
53.69
51.65
48.13
42.77
36.54
31.64
30.58
35.16
45.76
61.11
78.43
93.71
102.70
102.20
91.59
73.66
53.91
38.46
31.60
33.70
41.70
51.13
58.51
62.76
64.82
66.02
66.69
65.58
60.86
51.48
37.97
22.27
6.76
-6.53
-16.90
-24.33
-30.45
-36.53
-43.09
-49.77
-55.54
-59.29
-60.40
-59.39
-56.87
-54.07
-52.02
-51.17
-51.43
-52.25
-53.01
-53.28
-53.05
-52.52
-52.25
-52.64
-53.75
-55.50
-57.64
-59.90
-62.10
-64.27
-66.47
-68.95
-71.85
-75.00
-78.30
-81.50
-84.27
-86.21
-86.92
-85.94
-82.87
-77.74
-69.71
-58.51
-44.16
-27.04
-7.80
12.65
33.33
53.40
71.49
86.86
98.94
107.43
112.19
113.30
110.95
105.66
97.93
88.52
78.45
68.62
59.69
52.09
45.95
41.16
37.51
34.76
32.71
31.37
30.63
30.17
29.36
27.32
23.19
16.58
7.81
-2.10
-11.45
-18.73
-22.82
-23.58
-21.84
-18.90
-16.10
-14.20
-13.09
-12.07
-10.48
-8.12
-5.58
-4.13
-5.11
-9.45
-17.58
-29.62
-45.01
-62.08
-77.61
-87.15
-86.57
-73.91
-51.03
-23.50
1.08
16.28
18.73
9.36
-7.42
-26.67
-45.00
-61.22
-75.12
-86.53
-94.13
-96.04
-90.96
-79.26
-63.25
-44.72
-25.35
-5.59
14.62
36.30
60.14
85.74
111.66
135.31
154.10
166.35
172.05
171.98
169.35
168.36
172.25
181.66
193.31
200.41
195.04
171.37
126.68
64.51
-7.44
-80.24
-145.90
-198.42
-234.54
-253.09
-247.10
-219.47
-178.46
-134.55
-96.32
-68.74
-49.23
-33.78
-18.53
-0.94
19.03
42.36
70.15
100.69
131.32
158.84
179.70
191.29
192.25
175.55
140.60
93.01
41.70
-5.45
-44.25
-74.27
-96.79
-113.48
-126.02
-134.49
-138.87
-139.91
-138.85
-137.20
-136.35
-137.10
-139.59
-143.32
-146.82
-148.82
-148.68
-146.32
-141.87
-135.44
-126.91
-116.63
-103.33
-85.90
-63.95
-37.95
-9.04
21.27
51.57
80.60
104.90
123.87
137.63
146.57
151.12
151.75
148.90
143.30
135.72
126.88
117.85
109.17
101.10
93.71
86.87
80.29
73.94
67.73
61.61
55.94
50.79
46.14
42.04
38.41
34.96
31.63
28.23
24.57
20.59
16.11
10.90
4.97
-0.79
-7.39
-14.94
-23.33
-32.25
-41.08
-49.17
-55.78
-60.02
-61.44
-60.00
-55.67
-48.80
-39.96
-29.76
-18.81
-8.81
0.49
8.92
16.02
21.49
24.94
26.24
25.54
23.49
21.00
19.24
18.80
19.71
21.53
23.42
24.65
24.86
24.37
24.03
24.97
27.73
32.11
37.18
41.56
44.28
44.92
44.03
42.71
42.23
43.46
46.91
53.15
61.63
70.97
78.21
79.32
70.68
51.08
22.95
-8.03
-35.06
-53.03
-60.34
-59.17
-53.47
-46.81
-40.79
-35.12
-28.85
-21.74
-14.61
-8.81
-5.27
-3.84
-3.41
-2.71
-0.82
2.13
4.93
6.21
4.88
0.65
-5.85
-13.36
-20.50
-26.32
-30.16
-32.70
-34.66
-36.58
-38.62
-40.50
-41.62
-41.51
-40.22
-37.81
-34.93
-32.19
-30.05
-28.60
-27.58
-26.61
-25.33
-23.70
-21.87
-20.36
-19.50
-19.41
-19.88
-20.45
-20.63
-20.20
-19.32
-18.49
-18.44
-19.61
-22.01
-25.09
-28.00
-29.94
-30.57
-30.28
-29.98
-30.82
-33.55
-38.17
-43.82
-49.17
-53.15
-55.26
-55.90
-56.15
-57.18
-59.93
-65.08
-72.97
-83.38
-94.93
-104.66
-108.37
-102.14
-84.29
-56.75
-24.80
4.97
27.40
40.81
47.10
50.21
53.63
58.86
65.23
71.15
75.41
77.93
79.26
79.72
78.82
75.42
68.35
56.97
41.88
24.50
7.39
-7.35
-18.61
-26.31
-31.20
-34.23
-36.17
-37.27
-37.03
-34.63
-29.30
-20.98
-10.06
2.62
16.09
29.44
41.94
53.40
63.11
71.29
77.81
82.38
84.60
84.19
81.88
77.18
70.38
62.10
53.03
43.67
34.40
25.58
17.48
10.24
3.93
-1.22
-5.01
-7.28
-8.15
-7.97
-7.15
-6.20
-5.82
-6.59
-8.70
-12.05
-16.33
-21.27
-26.69
-33.05
-39.94
-47.21
-54.58
-61.29
-66.25
-68.30
-66.64
-60.99
-51.78
-40.04
-27.03
-13.66
-0.10
14.07
29.43
46.22
62.66
77.82
90.30
98.84
103.02
103.56
102.00
100.07
99.19
100.29
104.07
110.37
117.68
122.91
121.72
110.14
86.72
53.84
17.49
-14.83
-37.48
-48.68
-50.53
-47.13
-42.17
-37.14
-31.74
-25.17
-17.58
-10.60
-6.47
-6.52
-10.36
-16.26
-21.75
-25.11
-26.44
-27.03
-29.04
-34.11
-42.59
-53.00
-64.00
-73.86
-81.06
-84.32
-82.62
-75.80
-65.13
-53.53
-44.58
-41.59
-45.03
-52.96
-61.71
-67.71
-69.13
-66.34
-61.44
-55.58
-49.10
-41.03
-30.21
-16.35
-0.37
15.95
31.33
44.45
55.27
64.46
72.85
80.76
87.85
93.33
96.30
96.23
93.13
87.77
80.88
73.20
65.01
56.09
45.96
34.30
21.22
7.33
-5.69
-17.03
-26.02
-32.62
-37.41
-41.26
-44.89
-48.54
-52.23
-54.94
-56.11
-55.58
-53.98
-52.46
-52.20
-53.93
-57.49
-61.93
-65.84
-68.30
-69.00
-68.49
-67.91
-68.42
-70.96
-76.15
-84.21
-94.54
-105.40
-113.40
-114.34
-104.84
-84.25
-55.59
-24.90
1.14
17.81
23.89
21.65
14.91
6.98
-0.66
-8.27
-16.53
-25.41
-33.88
-40.60
-44.63
-45.99
-45.54
-44.27
-42.74
-40.59
-36.61
-29.39
-18.06
-2.69
15.64
35.14
53.92
70.48
83.29
92.62
99.09
103.31
105.72
106.47
105.50
102.69
98.58
93.10
86.82
80.31
74.15
68.79
64.42
61.00
58.23
55.67
52.78
49.40
45.55
41.54
37.97
35.44
34.32
34.49
35.34
35.95
35.62
34.05
31.64
29.35
28.31
29.23
32.09
36.00
39.56
41.76
42.08
41.00
39.56
38.95
40.08
43.54
49.63
58.08
67.54
75.03
76.43
67.92
48.02
19.04
-13.31
-41.95
-61.41
-69.83
-69.17
-63.49
-56.58
-50.29
-44.47
-38.23
-31.17
-23.99
-17.98
-14.00
-11.77
-10.20
-7.84
-3.65
2.31
8.98
14.89
18.78
20.05
18.96
16.19
12.72
9.14
5.45
1.23
-4.04
-10.65
-18.37
-26.08
-33.28
-39.29
-43.81
-46.91
-48.90
-50.02
-50.39
-50.23
-49.24
-47.64
-45.81
-44.37
-43.83
-44.32
-45.45
-46.46
-46.54
-45.16
-42.72
-40.08
-38.35
-38.33
-40.07
-42.76
-45.14
-46.21
-45.53
-43.75
-42.10
-41.89
-44.11
-49.34
-57.75
-68.86
-81.08
-91.24
-95.19
-89.16
-71.67
-44.89
-14.30
13.35
32.76
42.08
43.03
39.14
33.61
27.90
21.71
14.48
6.44
-0.94
-5.77
-6.90
-4.86
-1.55
0.97
1.41
0.29
-0.37
2.06
9.46
22.06
38.00
54.14
67.53
76.32
80.45
81.38
81.17
81.71
84.43
89.88
97.91
107.35
115.53
118.69
113.00
96.49
69.74
38.56
9.97
-10.30
-19.91
-20.41
-15.52
-9.03
-2.95
2.45
7.75
12.65
16.15
17.13
15.26
11.55
7.81
5.81
6.30
8.36
9.17
5.30
-5.71
-23.89
-45.69
-64.85
-74.30
-69.04
-47.80
-15.00
22.09
55.58
79.14
89.49
85.93
70.64
47.89
23.09
1.45
-13.05
-18.98
-17.69
-12.40
-7.03
-4.25
-5.02
-9.28
-16.68
-26.90
-39.48
-53.59
-66.73
-77.96
-86.34
-91.38
-93.60
-93.95
-93.33
-92.16
-91.35
-89.60
-86.30
-81.05
-73.94
-65.46
-56.26
-46.93
-37.55
-28.02
-18.03
-7.53
3.59
15.34
27.60
40.69
53.85
66.55
78.03
87.31
93.35
95.50
93.51
87.58
78.42
66.50
52.14
35.44
16.21
-5.17
-27.72
-50.19
-71.81
-92.75
-113.93
-135.71
-154.89
-168.03
-170.06
-157.03
-129.07
-90.98
-50.26
-14.24
14.47
35.89
51.17
60.86
63.66
57.59
42.52
21.39
1.26
-11.18
-13.28
-7.76
-0.48
3.54
3.04
1.91
6.65
22.07
47.90
78.33
105.51
121.93
124.19
113.37
93.99
71.43
49.23
28.45
8.56
-11.00
-30.28
-46.81
-58.13
-63.11
-61.27
-53.30
-40.79
-25.27
-7.85
10.75
30.25
49.97
67.30
81.50
91.78
97.88
100.89
103.07
106.42
111.36
115.37
113.63
101.65
77.33
42.55
2.87
-34.45
-62.93
-78.26
-78.87
-65.33
-39.86
-6.82
28.01
57.95
77.36
83.42
76.96
61.75
42.52
22.62
4.99
-9.67
-21.57
-30.80
-37.28
-41.16
-43.03
-43.77
-44.06
-44.25
-44.29
-43.80
-42.33
-39.70
-36.20
-32.39
-28.97
-26.44
-24.84
-23.94
-23.28
-22.31
-20.72
-18.51
-16.05
-13.72
-11.90
-10.69
-10.05
-9.68
-9.23
-8.46
-7.29
-5.90
-4.52
-3.45
-2.82
-2.62
-2.68
-2.77
-2.69
-2.36
-1.84
-1.27
-0.81
-0.58
-0.58
-0.70
-0.78
-0.70
-0.42
-0.02
0.30
0.31
-0.12
-0.95
-1.90
-2.64
-2.85
-2.47
-1.72
-1.08
-1.11
-2.15
-4.09
-6.38
-8.24
-9.01
-8.50
-7.16
-5.94
-5.89
-7.69
-11.17
-15.37
-18.91
-20.68
-20.35
-18.61
-16.96
-16.85
-19.31
-24.16
-30.26
-36.01
-39.82
-40.27
-36.30
-27.48
-14.68
-0.72
9.86
12.33
3.81
-14.82
-38.43
-59.42
-70.85
-68.92
-55.08
-34.31
-12.31
6.98
22.39
34.50
44.24
51.52
55.45
55.26
51.31
45.19
39.03
34.78
33.15
33.59
34.67
34.81
32.97
29.18
24.38
19.91
16.85
15.56
15.61
16.08
16.01
14.84
12.65
9.97
7.54
5.89
5.14
5.02
5.06
4.85
4.21
3.21
2.14
1.23
0.63
0.26
-0.06
-0.47
-1.00
-1.51
-1.79
-1.73
-1.42
-1.15
-1.31
-2.17
-3.62
-5.22
-6.31
-6.33
-5.17
-3.28
-1.59
-1.10
-2.38
-5.16
-8.44
-10.80
-11.09
-9.06
-5.56
-2.26
-0.90
-2.44
-6.54
-11.57
-15.36
-16.29
-13.94
-9.39
-4.66
-1.57
-1.35
-4.34
-10.29
-18.43
-26.89
-32.08
-29.04
-13.41
15.58
52.88
88.27
110.03
110.35
89.17
54.35
17.80
-10.12
-24.98
-28.64
-26.62
-24.12
-23.37
-23.96
-24.85
-26.52
-30.99
-39.85
-52.35
-64.29
-69.78
-64.39
-47.71
-24.31
-1.61
13.47
17.56
11.92
1.23
-9.08
-15.25
-16.18
-12.75
-6.63
0.88
9.09
17.61
25.96
33.57
39.74
43.98
46.35
47.35
47.65
47.93
48.41
48.93
49.03
47.94
45.14
40.51
34.38
27.23
19.59
11.78
3.08
-5.89
-15.09
-24.43
-33.62
-42.11
-49.37
-55.02
-58.99
-61.44
-62.61
-63.05
-63.12
-62.95
-62.47
-61.54
-59.99
-57.73
-54.86
-51.21
-47.04
-42.57
-38.02
-33.45
-28.99
-24.58
-20.13
-15.48
-10.24
-4.32
2.30
9.66
17.71
26.20
34.94
43.68
50.83
56.79
61.49
64.86
66.88
67.67
67.22
65.75
63.47
60.58
57.42
53.95
50.10
45.80
42.03
37.80
32.84
27.14
20.76
14.06
7.31
0.86
-4.91
-9.36
-12.38
-13.64
-12.97
-10.33
-5.86
0.01
6.68
13.47
19.93
25.18
28.70
30.18
29.50
26.78
22.21
16.11
7.30
-2.50
-12.32
-21.42
-29.29
-35.58
-40.18
-43.24
-45.10
-46.18
-46.57
-46.69
-46.62
-46.24
-45.30
-43.69
-41.55
-39.23
-37.18
-35.27
-33.51
-31.16
-27.68
-22.43
-15.21
-6.46
2.82
11.41
18.75
24.46
28.94
33.12
37.95
43.81
50.19
55.90
59.74
61.32
60.72
58.98
57.69
58.52
62.80
71.40
84.35
98.11
109.99
115.32
108.98
88.10
54.05
12.82
-26.95
-57.29
-74.08
-77.82
-73.07
-65.34
-58.36
-53.14
-48.67
-43.43
-36.32
-27.04
-15.66
-2.85
10.14
21.36
28.48
29.04
21.52
6.77
-12.16
-31.05
-46.32
-56.08
-60.48
-61.09
-60.01
-59.09
-58.70
-58.37
-57.63
-56.27
-54.58
-52.88
-51.33
-50.07
-50.07
-52.26
-57.69
-66.66
-77.48
-86.06
-86.80
-74.93
-46.35
-6.83
34.14
67.40
87.53
94.46
92.09
85.78
79.61
75.29
72.45
71.48
74.31
81.65
92.59
103.49
109.07
104.55
87.83
60.48
28.01
-2.81
-26.36
-39.61
-43.90
-42.75
-39.46
-35.72
-32.16
-28.31
-23.82
-18.95
-14.20
-10.09
-6.74
-4.00
-1.59
0.31
1.84
3.29
4.83
6.49
7.96
8.82
8.30
6.27
2.08
-4.04
-11.25
-18.58
-25.24
-31.01
-36.14
-41.12
-46.41
-52.88
-59.94
-66.11
-70.01
-70.87
-69.09
-66.05
-63.31
-62.25
-64.89
-71.80
-82.69
-96.43
-110.59
-121.31
-124.08
-114.84
-86.83
-46.00
-2.97
32.04
53.11
60.11
57.27
50.02
42.94
37.55
32.19
25.97
19.41
14.12
11.59
12.84
16.60
21.93
27.33
31.00
32.84
33.83
35.31
38.21
42.61
47.63
53.24
59.01
63.90
67.71
70.87
74.42
79.51
87.30
90.62
87.55
78.81
66.12
51.51
36.43
22.00
8.93
-2.36
-11.71
-18.08
-20.87
-20.90
-19.64
-18.69
-18.61
-19.30
-20.15
-19.63
-16.53
-9.65
1.05
15.07
31.13
47.94
63.20
73.80
76.89
68.46
51.27
30.59
13.37
0.59
-8.93
-17.92
-29.04
-42.96
-57.60
-68.83
-73.59
-71.04
-62.82
-51.16
-37.69
-24.10
-11.60
-0.93
7.51
12.46
12.62
7.36
-1.85
-12.18
-20.53
-24.49
-23.25
-17.54
-9.90
-3.30
-0.35
-1.48
-4.68
-7.01
-6.67
-3.76
0.56
5.02
9.36
14.08
19.84
26.41
32.32
35.76
35.92
33.60
30.40
27.99
27.09
27.45
28.07
28.57
28.41
27.70
26.71
24.75
20.39
11.78
-2.37
-21.98
-45.26
-69.30
-90.95
-107.93
-120.10
-128.53
-134.72
-139.71
-143.75
-146.59
-148.27
-149.49
-147.49
-141.19
-128.69
-107.26
-74.35
-29.33
25.18
83.17
136.77
178.35
201.71
204.05
186.04
151.31
105.88
57.66
15.39
-12.88
-21.89
-11.25
14.91
49.43
84.76
115.58
139.82
157.88
170.58
178.11
179.77
175.05
164.31
148.83
130.23
109.96
89.05
68.20
48.50
31.38
18.06
8.57
1.58
-4.36
-9.08
-9.76
-2.30
17.41
51.20
97.13
149.39
199.84
240.65
266.57
276.07
269.20
249.08
221.53
193.47
170.29
154.34
144.99
139.80
135.62
125.49
104.40
71.74
31.06
-12.81
-56.18
-96.89
-134.03
-167.88
-206.19
-255.68
-317.80
-388.04
-459.65
-526.43
-582.94
-624.01
-645.64
-654.65
-659.51
-665.80
-675.14
-688.20
-706.00
-727.81
-749.68
-714.62
-592.08
-397.17
-182.69
1.85
135.05
219.81
270.44
302.52
327.02
340.58
337.75
318.67
290.97
264.60
246.48
238.92
240.43
247.19
248.79
238.07
215.40
187.98
164.06
147.93
139.32
135.38
133.17
127.64
116.77
103.76
93.93
90.76
93.34
97.50
98.57
93.26
78.31
52.60
18.09
-20.08
-54.39
-76.55
-79.66
-61.14
-24.87
18.69
56.93
80.18
85.50
76.43
59.94
42.65
28.80
20.46
19.33
28.22
50.19
86.70
133.84
181.45
215.88
225.52
205.40
158.89
95.54
25.86
-40.59
-96.49
-136.66
-157.32
-156.21
-134.29
-98.26
-59.74
-32.49
-24.62
-35.09
-55.29
-74.36
-84.68
-85.18
-81.11
-71.34
-58.46
-44.31
-25.92
1.71
39.22
80.15
113.48
128.92
120.99
88.77
38.63
-17.95
-68.95
-106.13
-127.73
-131.23
-119.82
-99.97
-79.14
-61.74
-48.56
-38.47
-30.25
-23.21
-17.10
-12.88
-11.54
-14.27
-20.97
-30.46
-41.00
-50.54
-56.82
-57.79
-52.72
-41.58
-24.81
-2.55
25.02
56.92
90.76
122.81
149.07
165.92
171.62
166.82
154.25
137.66
120.69
106.10
95.51
89.62
88.10
89.94
93.57
97.00
98.14
95.37
87.97
76.25
61.24
43.99
25.09
4.57
-17.59
-40.77
-63.15
-81.90
-94.00
-97.19
-90.72
-75.46
-53.52
-27.68
-1.02
23.41
42.74
54.59
57.56
51.83
39.40
23.78
8.86
-2.39
-9.02
-12.34
-15.14
-20.30
-29.46
-42.51
-58.06
-74.49
-90.99
-107.69
-125.18
-143.42
-160.98
-175.08
-182.58
-181.32
-171.15
-154.18
-134.14
-115.01
-99.37
-87.77
-78.89
-70.76
-62.03
-52.35
-42.02
-31.15
-19.20
-5.30
10.85
28.22
44.16
55.35
59.25
55.34
45.13
31.09
15.55
0.09
-14.04
-25.83
-34.42
-39.02
-39.06
-34.75
-27.29
-18.32
-8.93
1.46
13.84
28.44
44.28
59.43
71.62
78.89
80.58
78.07
75.13
75.22
79.61
86.89
93.69
96.17
91.45
79.25
57.89
32.01
10.40
-0.82
-2.52
-0.36
0.36
-2.08
-7.22
-13.39
-18.39
-21.28
-22.62
-22.87
-21.74
-17.00
-6.82
8.75
27.44
45.97
60.88
69.59
71.93
69.59
65.14
59.70
52.68
43.06
31.05
18.52
7.47
-1.09
-10.38
-22.69
-39.46
-59.77
-79.29
-91.65
-90.95
-76.71
-50.61
-17.24
17.60
47.92
69.53
81.78
83.19
76.31
65.79
56.78
52.33
52.72
54.87
54.56
48.78
36.99
21.74
7.10
-2.63
-4.54
2.40
16.02
33.37
51.95
69.67
84.85
95.58
100.33
98.22
89.63
74.26
54.19
34.00
18.21
8.78
4.55
2.85
1.36
-0.74
-6.25
-15.38
-25.22
-32.60
-37.18
-41.58
-49.63
-64.89
-89.87
-130.08
-186.34
-252.31
-317.34
-371.71
-409.17
-427.25
-426.79
-382.18
-290.76
-176.84
-71.99
7.96
62.91
98.65
120.65
132.67
137.48
132.91
119.71
103.38
90.82
85.66
87.53
94.06
103.50
113.99
120.34
119.28
110.95
97.29
79.92
60.23
40.50
23.27
11.62
2.57
-8.01
-21.16
-33.06
-36.75
-25.69
2.30
42.08
84.37
116.68
130.58
125.59
108.39
88.32
72.70
64.11
60.62
58.35
53.79
46.50
38.90
34.06
33.38
35.86
39.28
41.88
43.22
43.91
45.37
49.31
56.89
68.19
81.95
95.59
105.70
109.12
103.98
90.66
71.57
50.14
29.61
12.30
-0.25
-7.17
-8.36
-4.88
0.71
4.54
2.46
-8.35
-28.00
-53.47
-79.80
-102.10
-117.11
-124.11
-124.53
-120.90
-115.57
-109.90
-104.24
-98.38
-92.48
-87.06
-82.85
-80.31
-79.31
-78.93
-77.94
-75.26
-70.58
-65.03
-59.96
-56.14
-53.35
-50.78
-47.27
-42.03
-34.67
-25.37
-15.98
-7.96
-1.65
3.15
5.92
5.14
-1.69
-16.36
-38.88
-69.22
-104.85
-141.04
-172.75
-196.65
-211.12
-216.27
-212.07
-198.58
-179.39
-158.54
-139.14
-123.21
-112.07
-105.45
-102.32
-100.06
-79.40
-34.20
25.52
81.62
121.21
137.73
137.33
125.58
107.75
88.78
71.96
60.75
58.56
66.87
83.69
105.13
126.62
146.02
163.47
177.65
186.88
189.68
185.06
172.65
153.69
130.15
105.10
81.33
59.33
38.93
20.63
5.83
-3.78
-6.53
-1.80
10.36
28.90
50.96
72.80
90.88
102.55
106.41
102.59
92.37
77.97
62.08
46.90
34.02
24.52
18.91
17.20
18.94
23.10
28.31
33.18
36.26
36.21
32.45
25.37
16.16
6.43
-2.88
-11.64
-19.91
-28.11
-36.81
-45.93
-54.90
-63.12
-70.40
-77.73
-86.49
-96.55
-107.19
-117.65
-126.45
-131.83
-132.15
-126.42
-115.64
-102.12
-87.02
-71.86
-58.89
-49.37
-43.11
-38.48
-32.67
-23.79
-11.32
5.55
24.70
40.29
46.25
38.48
16.25
-10.76
-30.84
-49.19
-69.39
-86.58
-98.82
-104.78
-103.94
-97.11
-86.40
-75.47
-67.42
-60.99
-53.44
-43.10
-29.11
-12.03
6.35
23.84
37.87
46.46
50.38
50.85
48.29
43.52
37.66
31.70
26.00
19.43
10.08
-2.49
-17.70
-34.10
-48.93
-59.03
-61.96
-56.60
-43.51
-24.23
-0.17
26.81
54.03
78.57
97.74
110.03
115.59
115.83
112.67
107.67
101.19
92.44
80.34
64.34
44.89
23.62
2.91
-14.52
-26.41
-31.61
-30.69
-26.01
-21.10
-19.54
-23.87
-35.12
-52.88
-75.52
-100.30
-122.89
-137.63
-138.80
-123.10
-91.97
-52.21
-13.89
13.88
26.75
26.85
20.79
15.65
15.18
18.75
23.07
25.62
26.81
29.71
37.73
51.67
68.71
83.53
91.25
89.92
81.29
69.56
58.67
50.65
44.83
38.99
31.10
20.73
9.63
0.94
-1.99
2.45
14.30
31.91
52.67
73.64
91.92
104.81
110.14
107.34
96.94
82.45
69.09
62.17
65.08
77.91
97.60
119.27
138.98
153.22
161.59
165.07
164.78
160.99
153.26
141.05
124.54
105.77
85.74
66.57
49.36
33.66
17.63
-0.94
-23.45
-54.80
-85.74
-115.24
-141.02
-161.67
-177.11
-188.37
-196.69
-202.68
-206.09
-205.17
-200.00
-190.16
-176.30
-160.26
-144.31
-129.97
-116.99
-103.64
-87.16
-67.17
-43.96
-19.11
5.23
26.39
40.76
45.96
41.92
30.59
13.61
-6.27
-25.54
-41.13
-51.57
-57.58
-61.45
-65.74
-71.18
-77.81
-85.42
-92.91
-99.56
-104.68
-107.46
-107.15
-103.34
-95.10
-83.16
-69.67
-57.22
-47.58
-40.87
-35.72
-29.41
-19.08
0.56
32.60
76.46
128.63
184.75
240.81
292.95
336.55
367.18
383.44
385.07
373.60
353.67
332.68
317.44
309.45
302.80
269.10
193.69
85.42
-29.28
-125.47
-191.24
-227.67
-243.67
-254.85
-264.90
-268.45
-259.29
-236.05
-203.24
-169.00
-141.85
-124.89
-120.03
-124.74
-132.73
-135.51
-129.94
-116.41
-95.62
-66.70
-28.85
16.42
65.20
111.65
148.85
170.62
174.55
162.54
142.53
115.63
82.35
44.65
6.78
-25.97
-49.32
-60.75
-60.50
-51.64
-36.59
-22.15
-14.46
-15.14
-21.89
-31.82
-42.54
-53.19
-65.23
-79.46
-95.98
-113.89
-130.86
-144.38
-153.77
-158.44
-157.75
-150.26
-134.55
-105.22
-61.62
-5.46
60.04
130.01
194.83
241.79
262.98
258.30
232.16
189.83
138.39
92.27
55.20
30.61
20.02
22.72
35.76
54.88
73.70
84.15
82.50
72.22
61.96
56.74
54.35
47.25
27.85
-6.38
-49.68
-93.12
-127.11
-144.77
-145.09
-131.70
-110.29
-86.04
-62.68
-39.07
-15.98
4.62
19.55
24.64
17.71
0.41
-20.51
-36.31
-40.37
-30.99
-10.75
15.16
40.86
61.95
76.43
84.57
86.23
81.44
70.76
56.01
39.62
23.63
9.14
-4.22
-16.04
-27.72
-41.64
-60.66
-86.92
-121.00
-160.90
-201.50
-235.62
-256.35
-260.69
-250.64
-232.54
-213.82
-199.55
-190.37
-182.99
-172.86
-157.12
-136.34
-113.35
-90.75
-69.27
-47.81
-25.01
-1.03
21.59
38.94
47.72
47.41
40.97
33.23
28.69
29.58
35.16
42.47
47.59
47.14
39.42
25.14
6.53
-13.78
-33.21
-49.50
-61.02
-67.03
-67.88
-64.80
-58.07
-48.71
-38.86
-30.97
-26.28
-24.35
-23.03
-18.92
-8.11
15.82
56.91
114.69
184.83
261.22
336.73
403.22
452.12
476.12
475.87
455.14
418.57
371.76
321.96
276.23
238.75
209.90
187.55
175.17
174.99
185.30
201.78
221.19
242.12
263.89
285.80
269.95
201.93
100.40
-0.41
-79.67
-134.72
-171.51
-197.05
-216.33
-231.92
-238.61
-232.89
-216.94
-197.05
-178.81
-165.13
-156.81
-153.46
-153.81
-151.46
-141.87
-125.38
-106.05
-88.09
-74.32
-66.45
-64.72
-69.28
-76.30
-82.38
-86.60
-90.22
-94.47
-99.86
-106.28
-113.33
-119.46
-122.85
-122.15
-117.16
-108.15
-94.78
-76.11
-51.61
-22.02
10.27
42.49
71.70
94.88
109.90
116.16
114.20
105.14
90.30
71.09
49.26
27.11
7.19
-8.29
-18.00
-21.72
-20.24
-14.96
-7.67
-0.71
3.76
4.22
0.32
-6.96
-15.42
-22.27
-25.29
-23.61
-17.90
-9.64
-0.68
7.53
14.06
18.50
20.60
20.21
17.24
12.01
5.23
-2.37
-9.86
-16.63
-21.91
-24.70
-23.94
-18.88
-9.18
4.30
19.37
33.14
42.51
46.16
45.43
43.91
45.80
53.59
67.60
85.10
101.35
108.50
100.15
76.19
42.80
8.15
-21.54
-43.52
-60.54
-72.65
-77.93
-74.77
-63.22
-46.25
-28.85
-12.89
-2.31
0.58
-4.16
-14.73
-29.52
-46.71
-64.18
-78.10
-83.66
-78.04
-61.38
-37.29
-11.04
10.64
22.63
22.36
10.98
-4.13
-15.19
-17.73
-21.92
-33.12
-53.85
-78.39
-101.64
-118.00
-123.17
-116.74
-101.82
-83.70
-66.38
-52.82
-43.57
-37.68
-32.93
-27.29
-20.40
-12.84
-5.31
2.78
11.95
22.95
35.84
50.42
66.01
81.08
93.79
102.30
105.37
102.21
93.35
80.09
64.26
47.68
31.85
17.85
6.14
-4.06
-14.23
-25.31
-37.48
-50.08
-61.47
-69.25
-70.81
-59.70
-34.40
-1.06
30.69
54.02
66.36
67.89
60.07
45.10
25.78
5.00
-16.30
-36.34
-52.99
-65.12
-72.68
-76.11
-75.90
-72.59
-67.63
-60.84
-52.48
-42.86
-32.57
-22.16
-11.82
-1.28
9.88
21.35
32.44
42.43
50.84
57.29
61.66
64.21
65.54
66.30
66.78
66.99
66.83
66.25
65.18
63.62
61.67
59.50
57.17
54.46
51.07
46.83
42.00
37.24
33.37
31.01
30.33
30.96
32.20
33.42
34.21
34.60
34.75
34.70
34.11
32.24
28.15
21.19
11.34
-0.63
-13.30
-25.11
-34.91
-42.27
-47.56
-51.53
-54.84
-57.64
-59.57
-60.03
-58.59
-55.30
-50.69
-45.54
-40.51
-35.96
-31.84
-27.93
-24.08
-20.36
-17.09
-14.62
-13.16
-12.60
-12.59
-12.67
-12.43
-11.59
-9.93
-7.23
-3.32
1.87
8.24
15.41
22.78
29.63
35.25
39.11
40.90
40.59
38.46
34.98
30.82
26.71
23.31
21.10
20.28
20.71
21.96
23.41
24.47
24.76
24.28
23.37
22.60
22.48
23.14
24.32
25.42
25.97
25.95
26.01
27.35
31.29
38.73
49.84
64.04
80.23
97.23
114.07
130.08
144.88
158.39
170.91
183.13
195.72
208.77
221.19
230.59
233.86
228.44
213.45
190.29
162.06
132.35
103.75
76.98
51.08
24.27
-5.06
-37.79
-73.96
-112.91
-153.38
-193.34
-229.95
-259.78
-279.41
-286.22
-279.09
-258.74
-227.60
-189.23
-147.64
-106.64
-69.33
-37.92
-13.73
2.73
11.89
15.38
16.35
19.06
27.88
45.49
71.33
101.32
129.37
150.21
162.20
168.46
175.44
189.54
213.54
244.84
276.52
300.48
311.13
307.44
292.58
271.59
248.67
225.57
201.76
175.93
147.68
118.15
89.53
63.57
40.44
18.42
-5.30
-33.20
-66.22
-103.38
-142.27
-180.31
-215.86
-249.21
-281.93
-315.68
-351.53
-389.64
-429.49
-470.18
-510.75
-550.14
-587.37
-620.73
-647.59
-664.79
-669.53
-660.03
-635.84
-597.83
-548.18
-490.97
-430.50
-370.16
-311.88
-256.36
-203.26
-151.41
-99.26
-45.62
7.15
56.09
99.26
135.61
163.98
183.45
194.43
199.19
201.05
198.15
189.12
175.79
162.08
150.41
140.81
132.33
123.90
114.74
95.83
60.88
11.68
-43.81
-98.05
-146.53
-186.50
-215.82
-233.19
-249.62
-274.99
-311.14
-353.68
-399.16
-446.96
-496.73
-546.50
-527.82
-409.98
-223.74
-34.50
113.52
211.53
269.78
302.47
320.60
328.37
318.64
285.08
231.83
171.59
116.61
73.81
45.48
30.87
31.70
38.55
43.36
45.36
49.19
58.35
72.60
89.79
107.88
125.86
138.18
141.59
138.08
133.09
131.01
133.47
140.28
150.68
163.96
176.71
186.67
194.42
202.66
213.82
228.50
245.50
262.08
274.71
278.93
272.00
254.13
228.14
197.69
165.79
134.16
103.38
73.50
44.64
17.27
-8.04
-31.32
-53.67
-77.14
-103.87
-134.89
-169.12
-203.14
-231.84
-249.94
-253.71
-242.26
-217.78
-184.71
-148.15
-112.44
-80.13
-51.89
-27.04
-4.20
18.28
42.06
68.78
99.45
133.70
169.08
201.22
224.97
236.32
234.12
220.95
202.41
185.28
175.06
174.01
180.38
189.24
194.59
192.17
181.54
166.60
153.88
149.54
156.45
172.92
193.90
213.68
228.19
235.71
235.88
228.37
212.54
188.55
158.48
126.43
96.85
72.12
50.95
29.05
1.60
-33.96
-76.54
-121.75
-163.53
-195.92
-214.21
-215.88
-200.98
-172.52
-136.18
-99.01
-67.42
-45.57
-34.75
-33.83
-40.38
-51.76
-65.70
-80.34
-94.35
-107.12
-119.25
-132.25
-147.54
-164.98
-182.23
-195.36
-200.50
-195.85
-182.66
-165.24
-149.45
-140.19
-139.36
-144.99
-151.98
-154.02
-145.56
-122.87
-85.92
-38.39
13.68
64.04
107.84
142.33
166.92
182.60
192.47
198.72
201.44
199.28
191.65
180.05
168.35
161.62
164.31
180.66
210.12
246.61
280.95
304.83
313.29
305.09
281.98
247.55
209.33
173.59
143.20
118.15
97.70
81.46
69.18
60.02
32.29
-21.96
-92.76
-160.81
-212.40
-243.69
-257.28
-258.40
-253.86
-250.53
-250.25
-252.62
-256.14
-258.33
-255.76
-245.20
-224.93
-196.91
-164.98
-137.30
-122.52
-124.00
-138.27
-158.86
-180.48
-199.49
-214.13
-222.01
-218.15
-197.97
-161.67
-113.14
-61.24
-16.09
16.60
35.41
43.20
45.74
49.00
58.11
75.95
104.09
134.84
165.33
193.28
216.06
230.60
234.18
226.83
210.21
186.70
159.43
133.16
111.40
95.55
84.96
77.88
74.18
73.29
73.16
71.73
69.26
67.56
69.22
76.72
79.60
72.42
56.00
34.52
11.67
-10.30
-29.88
-46.08
-57.89
-64.51
-63.92
-54.62
-40.54
-27.11
-19.53
-21.37
-34.31
-57.00
-85.55
-113.37
-131.45
-135.65
-126.92
-111.84
-94.03
-76.22
-60.06
-46.44
-34.71
-24.06
-14.85
-7.04
-0.12
6.92
14.53
22.80
30.92
37.48
40.17
33.79
16.48
-8.60
-34.63
-55.89
-69.44
-75.50
-75.96
-73.05
-69.02
-65.00
-61.51
-58.78
-58.29
-59.45
-61.50
-63.68
-65.05
-65.23
-63.98
-61.28
-57.15
-51.98
-45.65
-38.32
-30.31
-21.38
-11.89
-2.36
6.64
14.70
21.05
25.61
28.07
28.18
26.82
25.34
24.96
26.23
29.08
32.59
36.56
41.04
41.58
36.00
25.53
13.34
1.71
-5.50
-9.83
-11.89
-11.09
-5.98
3.06
16.36
33.23
52.07
71.10
88.40
103.21
115.13
123.77
129.02
130.69
127.98
119.92
106.14
86.96
64.25
40.72
19.21
2.38
-8.17
-12.94
-14.26
-15.20
-18.55
-25.25
-34.57
-44.78
-54.06
-61.28
-66.64
-71.02
-75.13
-79.01
-81.75
-82.27
-79.94
-74.88
-67.81
-59.77
-51.60
-43.69
-36.12
-28.81
-21.86
-15.56
-10.27
-6.07
-2.69
0.47
4.09
8.57
13.79
19.18
23.93
27.42
29.44
30.26
30.46
30.66
31.12
31.66
31.64
30.29
26.96
21.54
14.62
7.44
1.55
-1.69
-1.49
2.08
8.17
15.43
22.37
27.72
30.66
31.00
29.13
25.91
22.42
19.60
17.95
17.44
17.62
17.84
17.53
16.33
14.16
11.14
7.58
3.94
0.79
-1.40
-2.39
-2.19
-1.05
0.87
3.68
7.81
13.79
21.83
31.58
42.00
51.80
59.76
65.19
68.02
68.68
67.82
65.95
63.39
60.21
56.39
51.85
46.55
40.48
33.66
26.20
18.30
10.22
2.28
-5.33
-12.60
-19.75
-27.18
-35.29
-44.21
-53.65
-62.88
-70.89
-76.72
-79.82
-80.16
-78.31
-75.17
-71.74
-68.83
-66.96
-66.35
-66.93
-68.48
-70.59
-72.74
-74.40
-75.07
-74.50
-72.68
-69.85
-66.37
-62.51
-58.38
-53.88
-48.90
-43.38
-37.55
-31.84
-26.77
-22.80
-20.19
-18.89
-18.60
-18.84
-18.97
-18.35
-16.36
-12.62
-7.07
-0.09
7.57
15.01
21.41
26.27
29.50
31.31
32.10
32.29
32.29
32.49
33.18
34.52
36.35
38.19
39.32
39.12
37.32
34.18
30.31
26.45
23.08
20.34
17.96
15.52
12.53
8.62
3.66
-2.18
-8.32
-13.85
-17.74
-19.27
-18.23
-15.14
-11.00
-6.95
-3.89
-2.28
-2.18
-3.33
-5.30
-7.51
-9.28
-9.95
-9.03
-6.38
-2.38
2.25
6.59
9.90
11.74
12.09
11.16
9.31
6.85
3.96
0.75
-2.71
-6.29
-9.69
-12.41
-13.79
-13.19
-10.22
-4.91
2.18
10.03
17.49
23.45
27.19
28.41
27.28
24.36
20.38
16.11
12.20
9.00
6.61
4.94
3.76
2.89
2.17
1.46
0.56
-0.76
-2.73
-5.49
-9.07
-13.42
-18.44
-24.03
-29.93
-35.69
-40.60
-43.80
-44.51
-42.32
-37.40
-30.46
-22.60
-14.97
-8.49
-3.69
-0.65
0.86
1.27
1.07
0.70
0.50
0.70
1.34
2.26
3.08
3.34
2.59
0.67
-2.27
-5.70
-9.03
-11.75
-13.77
-15.41
-17.31
-20.02
-23.76
-28.06
-31.90
-34.01
-33.34
-29.47
-22.85
-14.56
-5.96
1.79
8.05
12.78
16.44
19.71
23.27
27.65
33.01
39.21
45.74
51.88
56.87
60.15
61.48
60.91
58.79
55.56
51.66
47.48
43.26
39.02
34.61
29.79
24.45
18.80
13.44
9.17
6.77
6.58
8.34
11.24
14.21
16.26
16.76
15.47
12.56
8.43
3.60
-1.33
-5.74
-9.13
-11.16
-11.73
-11.05
-9.51
-7.68
-6.11
-5.23
-5.23
-6.09
-7.61
-9.61
-12.03
-15.02
-18.77
-23.33
-28.42
-33.34
-37.17
-39.03
-38.40
-35.30
-30.26
-24.19
-18.05
-12.61
-8.29
-5.17
-3.04
-1.58
-0.49
0.50
1.56
2.85
4.45
6.39
8.52
10.58
12.19
13.02
12.87
11.69
9.62
6.77
3.22
-1.01
-5.77
-10.65
-14.85
-17.45
-17.61
-14.98
-9.87
-3.14
4.06
10.67
15.99
19.68
21.74
22.31
21.67
20.17
18.28
16.47
15.08
14.21
13.68
13.22
12.60
11.75
10.76
9.76
8.77
7.67
6.20
4.12
1.31
-2.13
-5.86
-9.30
-11.76
-12.60
-11.40
-8.12
-3.13
2.84
8.86
14.00
17.57
19.23
18.97
17.10
14.08
10.42
6.57
2.87
-0.44
-3.23
-5.46
-7.14
-8.38
-9.34
-10.19
-11.04
-11.96
-13.01
-14.25
-15.75
-17.51
-19.35
-20.88
-21.50
-20.59
-17.72
-12.82
-6.28
1.18
8.65
15.31
20.53
24.03
25.78
25.98
24.94
23.03
20.64
18.12
15.77
13.82
12.34
11.24
10.26
9.11
7.56
5.53
3.16
0.58
-2.14
-5.05
-8.26
-11.69
-14.94
-17.27
-17.84
-16.04
-11.79
-5.70
1.25
7.94
13.47
17.33
19.41
19.83
18.87
16.88
14.26
11.45
8.82
6.65
5.02
3.84
2.88
1.88
0.59
-1.11
-3.25
-5.74
-8.48
-11.39
-14.50
-17.84
-21.29
-24.47
-26.74
-27.35
-25.70
-21.64
-15.58
-8.36
-1.03
5.48
10.56
13.95
15.73
16.17
15.57
14.27
12.57
10.74
9.01
7.54
6.38
5.50
4.73
3.86
2.70
1.16
-0.75
-2.94
-5.32
-7.94
-10.89
-14.28
-18.01
-21.71
-24.69
-26.16
-25.49
-22.49
-17.50
-11.31
-4.93
0.77
5.14
7.97
9.36
9.73
9.67
9.84
10.81
12.80
15.61
18.68
21.28
22.80
23.06
22.24
20.84
19.38
18.23
17.47
16.90
16.08
14.50
11.69
7.50
2.27
-3.11
-7.37
-9.28
-8.14
-4.04
2.16
9.06
15.28
19.80
22.19
22.54
21.32
19.13
16.58
14.20
12.40
11.36
11.04
11.15
11.23
10.90
10.00
8.66
7.30
6.33
5.95
5.97
5.84
4.92
2.77
-0.57
-4.50
-8.07
-10.29
-10.47
-8.45
-4.61
0.28
5.27
9.45
12.05
12.58
10.80
6.79
0.97
-6.01
-13.29
-20.10
-25.88
-30.38
-33.65
-35.92
-37.40
-38.30
-38.72
-38.71
-38.33
-37.61
-36.62
-35.47
-34.35
-33.47
-32.98
-32.83
-32.69
-31.93
-29.88
-26.09
-20.50
-13.53
-5.91
1.59
8.34
13.90
18.04
20.61
21.55
20.94
19.03
16.28
13.30
10.66
8.71
7.46
6.63
5.77
4.52
2.71
0.42
-2.14
-4.72
-7.14
-9.37
-11.43
-13.39
-15.34
-17.37
-19.51
-21.67
-23.61
-24.95
-25.23
-24.08
-21.37
-17.24
-12.06
-6.34
-0.60
4.69
9.14
12.45
14.47
15.23
14.95
14.01
12.88
11.98
11.59
11.80
12.52
13.47
14.29
14.63
14.23
13.04
11.19
9.01
6.81
4.77
2.85
0.82
-1.60
-4.54
-7.81
-10.87
-13.00
-13.50
-11.93
-8.28
-2.96
3.36
9.92
16.07
21.33
25.41
28.16
29.51
29.47
28.16
25.80
22.72
19.21
15.50
11.64
7.63
3.37
-1.17
-5.92
-10.65
-15.08
-18.94
-22.04
-24.37
-26.04
-27.32
-28.51
-29.85
-31.47
-33.32
-35.13
-36.43
-36.69
-35.41
-32.34
-27.55
-21.47
-14.77
-8.16
-2.30
2.43
5.88
8.07
9.15
9.32
8.82
8.00
7.26
7.00
7.46
8.61
10.09
11.36
11.92
11.56
10.35
8.63
6.71
4.78
2.79
0.57
-2.08
-5.27
-8.96
-13.02
-17.17
-21.00
-23.94
-25.37
-24.77
-21.94
-17.15
-11.06
-4.61
1.30
5.99
9.14
10.81
11.24
10.77
9.74
8.42
7.11
6.07
5.56
5.74
6.49
7.49
8.24
8.26
7.34
5.63
3.61
1.84
0.74
0.39
0.55
0.73
0.45
-0.63
-2.60
-5.28
-8.25
-10.97
-12.82
-13.28
-12.08
-9.28
-5.34
-0.94
3.26
6.68
9.04
10.25
10.39
9.62
8.23
6.63
5.30
4.68
5.01
6.24
8.03
9.89
11.39
12.30
12.61
12.49
12.12
11.64
11.08
10.40
9.52
8.33
6.75
4.71
2.19
-0.65
-3.53
-6.02
-7.62
-7.96
-6.86
-4.46
-1.18
2.33
5.45
7.66
8.75
8.79
8.11
7.10
6.13
5.40
4.97
4.79
4.79
4.90
5.05
5.08
4.75
3.86
2.28
0.18
-2.07
-4.02
-5.36
-6.11
-6.63
-7.48
-9.13
-11.76
-15.20
-18.99
-22.49
-25.06
-26.06
-24.96
-21.42
-15.46
-7.56
1.32
9.99
17.34
22.67
25.79
26.97
26.68
25.43
23.70
21.88
20.39
19.56
19.54
20.20
21.10
21.67
21.46
20.31
18.34
15.94
13.45
11.10
8.92
6.77
4.42
1.65
-1.66
-5.46
-9.36
-12.72
-14.72
-14.69
-12.30
-7.81
-1.97
4.21
9.86
14.43
17.75
19.96
21.27
21.84
21.70
20.79
19.04
16.50
13.37
10.03
6.92
4.44
2.85
2.24
2.45
3.18
3.95
4.11
2.95
-0.12
-5.27
-12.07
-19.52
-26.34
-31.42
-34.16
-34.65
-33.45
-31.26
-28.53
-25.41
-21.76
-17.33
-12.03
-5.99
0.38
6.53
11.83
15.83
18.30
19.27
19.01
17.88
16.36
14.91
13.99
13.92
14.81
16.50
18.53
20.37
21.54
21.82
21.27
20.11
18.60
16.90
15.08
13.14
11.07
8.88
6.57
4.12
1.53
-1.09
-3.41
-4.95
-5.15
-3.67
-0.54
3.79
8.52
12.81
15.93
17.47
17.28
15.42
12.08
7.52
2.17
-3.44
-8.71
-13.10
-16.30
-18.26
-19.16
-19.40
-19.35
-19.32
-19.48
-19.82
-20.25
-20.65
-20.93
-21.06
-21.12
-21.28
-21.78
-22.87
-24.68
-27.16
-29.94
-32.40
-33.76
-33.31
-30.67
-25.88
-19.44
-12.15
-4.89
1.59
6.76
10.29
12.09
12.21
10.88
8.50
5.60
2.76
0.46
-1.03
-1.73
-1.94
-2.03
-2.33
-2.95
-3.77
-4.58
-5.17
-5.54
-5.85
-6.39
-7.38
-8.91
-10.86
-13.03
-15.12
-16.87
-17.96
-18.05
-16.72
-13.65
-8.70
-2.10
5.52
13.28
20.21
25.48
28.55
29.29
27.91
24.89
20.87
16.50
12.33
8.74
5.89
3.71
2.02
0.51
-1.06
-2.91
-5.14
-7.77
-10.69
-13.77
-16.88
-19.94
-22.94
-25.88
-28.74
-31.45
-33.92
-36.02
-37.63
-38.59
-38.78
-38.12
-36.62
-34.40
-31.64
-28.45
-24.88
-20.84
-16.26
-11.18
-5.80
-0.50
4.27
8.17
10.98
12.72
13.65
14.24
15.07
16.72
19.56
23.61
28.49
33.55
38.03
41.26
42.73
42.21
39.61
35.07
28.92
21.70
14.09
6.78
0.38
-4.71
-8.26
-10.13
-10.24
-8.54
-5.06
0.00
6.26
13.13
19.92
25.93
30.53
33.27
33.97
32.70
29.82
25.84
21.36
16.93
12.97
9.78
7.51
6.19
5.66
5.64
5.67
5.27
4.01
1.68
-1.68
-5.72
-9.95
-13.83
-16.97
-19.29
-20.95
-22.35
-23.92
-25.88
-28.19
-30.46
-32.14
-32.69
-31.71
-29.06
-24.88
-19.54
-13.61
-7.75
-2.62
1.20
3.40
3.90
2.93
0.94
-1.51
-3.88
-5.72
-6.76
-6.95
-6.41
-5.44
-4.42
-3.70
-3.50
-3.80
-4.41
-5.06
-5.55
-5.86
-6.15
-6.67
-7.54
-8.68
-9.81
-10.55
-10.62
-9.89
-8.44
-6.43
-4.08
-1.57
0.96
3.45
5.94
8.56
11.42
14.43
17.26
19.26
19.73
18.18
14.64
9.73
4.51
0.11
-2.69
-3.66
-3.11
-1.72
-0.13
1.23
2.22
2.88
3.27
3.39
3.20
2.67
1.79
0.61
-0.85
-2.60
-4.68
-6.99
-9.26
-11.01
-11.69
-10.91
-8.55
-4.83
-0.21
4.78
9.63
13.90
17.15
19.02
19.22
17.68
14.66
10.70
6.57
2.92
0.16
-1.67
-2.88
-3.87
-4.99
-6.35
-7.90
-9.46
-10.87
-12.10
-13.23
-14.39
-15.74
-17.38
-19.39
-21.84
-24.70
-27.70
-30.29
-31.65
-30.90
-27.52
-21.50
-13.53
-4.71
3.82
11.23
17.20
21.79
25.22
27.68
29.25
29.95
29.91
29.40
28.78
28.36
28.32
28.60
28.97
29.12
28.80
28.00
26.94
26.01
25.66
26.16
27.47
29.16
30.53
30.77
29.17
25.38
19.53
12.23
4.47
-2.57
-7.80
-10.52
-10.47
-7.95
-3.66
1.48
6.50
10.57
13.10
13.85
12.87
10.52
7.30
3.72
0.20
-3.08
-6.08
-8.91
-11.67
-14.41
-17.04
-19.31
-21.00
-21.94
-22.15
-21.89
-21.53
-21.42
-21.84
-22.89
-24.62
-27.06
-30.26
-34.22
-38.75
-43.39
-47.35
-49.66
-49.42
-46.00
-39.38
-30.17
-19.57
-9.09
-0.12
6.31
9.77
10.33
8.52
5.03
0.70
-3.54
-6.78
-8.26
-7.65
-5.16
-1.59
2.01
4.69
5.92
5.69
4.41
2.55
0.50
-1.57
-3.58
-5.48
-7.19
-8.68
-10.08
-11.68
-13.73
-16.16
-18.44
-19.72
-19.07
-15.94
-10.40
-3.18
4.60
11.86
17.80
22.04
24.56
25.55
25.33
24.34
23.10
22.12
21.80
22.26
23.30
24.40
24.91
24.24
22.02
18.22
13.16
7.39
1.62
-3.52
-7.55
-10.27
-11.79
-12.48
-12.89
-13.54
-14.79
-16.60
-18.54
-19.86
-19.73
-17.52
-13.08
-6.81
0.54
8.05
14.96
20.73
25.08
27.81
28.83
28.14
25.97
22.82
19.33
16.15
13.69
12.03
10.97
10.13
9.13
7.71
5.79
3.47
0.95
-1.57
-3.89
-5.97
-7.87
-9.71
-11.71
-14.03
-16.82
-20.13
-23.79
-27.37
-30.15
-31.27
-30.00
-26.04
-19.66
-11.62
-2.97
5.38
12.81
19.04
24.06
27.84
30.30
31.31
30.75
28.66
25.33
21.26
17.05
13.33
10.53
8.87
8.32
8.61
9.38
10.21
10.71
10.52
9.38
7.17
3.98
0.18
-3.67
-6.93
-9.11
-10.07
-10.04
-9.52
-8.99
-8.60
-8.15
-7.14
-5.08
-1.78
2.50
7.11
11.25
14.24
15.71
15.64
14.35
12.32
10.08
8.11
6.71
5.99
5.89
6.22
6.81
7.50
8.16
8.67
8.86
8.56
7.65
6.08
3.89
1.15
-2.00
-5.30
-8.39
-10.88
-12.47
-13.24
-13.63
-14.37
-16.04
-18.71
-21.73
-23.94
-24.15
-21.71
-16.83
-10.48
-3.91
1.87
6.54
10.44
14.16
18.19
22.44
26.39
29.28
30.47
29.80
27.60
24.43
20.84
17.18
13.51
9.90
6.53
3.78
2.06
1.47
1.64
1.77
0.95
-1.43
-5.34
-10.13
-14.78
-18.45
-20.80
-22.06
-22.74
-23.23
-23.45
-22.80
-20.43
-15.66
-8.40
0.68
10.34
19.15
25.92
30.05
31.61
31.19
29.58
27.55
25.59
23.90
22.44
21.11
19.83
18.56
17.23
15.65
13.49
10.36
6.06
0.66
-5.34
-11.19
-16.11
-19.67
-21.91
-23.42
-25.04
-27.57
-31.37
-36.16
-41.06
-44.81
-46.22
-44.48
-39.42
-31.50
-21.78
-11.56
-2.20
5.18
9.94
11.99
11.74
9.95
7.50
5.16
3.51
2.96
3.68
5.68
8.72
12.37
16.03
19.05
20.94
21.45
20.57
18.62
16.11
13.67
11.82
10.80
10.32
9.51
7.12
2.00
-6.47
-18.06
-31.77
-46.18
-59.89
-71.83
-81.18
-87.30
-89.60
-87.75
-82.06
-73.56
-63.91
-54.82
-47.37
-41.65
-36.88
-32.03
-26.47
-20.30
-14.30
-9.37
-6.06
-4.36
-3.80
-3.73
-3.63
-3.23
-2.53
-1.80
-1.60
-2.81
-6.55
-13.80
-24.94
-39.33
-55.14
-69.64
-79.91
-83.71
-80.10
-69.61
-53.97
-35.44
-16.27
1.69
17.05
28.82
36.50
40.07
40.17
38.09
35.45
33.68
33.52
34.75
36.31
36.81
35.19
31.16
25.33
18.93
13.18
8.90
6.14
4.35
2.56
-0.13
-4.22
-9.56
-15.34
-20.12
-22.25
-20.27
-13.46
-2.17
12.15
27.31
41.02
51.57
58.19
61.10
61.16
59.36
56.45
52.77
48.33
43.09
37.14
30.80
24.59
18.95
14.18
10.32
7.21
4.58
2.10
-0.50
-3.39
-6.57
-9.88
-13.00
-15.56
-17.25
-17.97
-17.75
-16.73
-15.00
-12.53
-9.16
-4.78
0.54
6.42
12.17
16.94
19.95
20.74
19.26
15.94
11.52
6.89
2.85
-0.05
-1.56
-1.70
-0.72
0.97
2.97
4.87
6.37
7.33
7.77
7.83
7.76
7.72
7.78
7.84
7.66
6.99
5.56
3.22
-0.04
-4.02
-8.23
-11.95
-14.33
-14.64
-12.52
-8.22
-2.52
3.49
8.83
12.94
15.79
17.75
19.26
20.61
21.84
22.79
23.26
23.15
22.40
21.06
19.18
16.90
14.41
11.95
9.69
7.67
5.63
3.15
-0.28
-5.00
-11.06
-18.15
-25.68
-32.82
-38.65
-42.23
-42.73
-39.56
-32.67
-22.69
-10.86
1.22
11.99
20.40
26.05
29.19
30.41
30.33
29.41
27.93
26.12
24.28
22.78
21.97
21.95
22.48
22.99
22.76
21.17
18.00
13.52
8.45
3.66
-0.13
-2.61
-3.91
-4.49
-5.01
-6.10
-8.22
-11.50
-15.65
-19.86
-22.94
-23.60
-20.85
-14.37
-4.62
7.14
19.19
29.80
37.62
42.00
42.88
40.73
36.33
30.69
24.88
19.79
16.05
13.95
13.35
13.75
14.33
14.24
13.09
10.86
7.82
4.40
1.07
-1.78
-4.01
-5.80
-7.48
-8.77
-9.37
-9.16
-8.14
-6.19
-2.95
1.86
8.20
15.66
24.82
35.76
47.59
58.65
67.43
73.20
75.98
76.17
74.36
73.13
74.17
77.21
80.45
82.21
82.11
81.05
80.39
81.32
87.01
98.94
115.82
134.31
151.21
164.76
174.38
179.81
164.64
121.26
55.60
-15.75
-77.51
-122.63
-150.99
-165.71
-170.85
-170.48
-164.66
-153.18
-137.69
-121.54
-107.86
-98.33
-93.20
-91.92
-93.22
-93.67
-91.02
-85.57
-79.37
-74.49
-71.84
-71.10
-71.45
-71.63
-69.29
-63.27
-54.68
-45.68
-38.31
-33.85
-32.83
-35.42
-40.71
-46.08
-48.63
-46.38
-37.94
-23.00
-2.74
20.84
41.73
53.53
54.16
48.19
38.99
28.47
17.43
6.01
-5.03
-14.87
-22.14
-25.55
-24.86
-21.53
-17.42
-14.09
-12.50
-12.71
-14.32
-16.27
-17.51
-17.71
-17.55
-17.78
-18.77
-20.47
-22.49
-24.39
-25.54
-25.37
-23.75
-21.23
-18.49
-16.13
-14.57
-13.91
-13.91
-13.85
-12.81
-10.05
-5.43
0.71
7.62
14.39
20.13
24.22
26.44
27.00
26.33
24.90
23.23
21.70
20.57
19.90
19.56
19.30
18.82
17.81
16.08
13.58
10.44
7.02
3.73
0.98
-0.98
-2.17
-2.85
-3.53
-4.72
-6.88
-10.18
-14.42
-18.95
-22.81
-24.90
-24.28
-20.47
-13.61
-4.46
5.79
15.79
24.32
30.54
34.11
35.19
34.27
31.97
28.81
25.10
21.04
16.86
12.97
10.05
8.84
9.85
13.16
18.31
24.41
30.34
34.96
37.38
36.97
33.54
27.32
18.91
9.18
-0.92
-10.51
-18.96
-25.86
-31.00
-34.27
-35.68
-35.34
-33.56
-30.85
-27.87
-25.28
-23.65
-23.33
-24.40
-26.76
-30.02
-33.57
-36.48
-37.70
-36.25
-31.65
-24.20
-15.05
-5.85
1.75
6.65
8.58
8.02
5.84
2.92
-0.13
-3.05
-5.88
-8.78
-12.00
-15.75
-20.04
-24.62
-28.81
-31.58
-31.86
-28.83
-22.35
-13.08
-2.38
8.04
16.65
22.41
25.03
24.87
22.70
19.47
16.06
13.20
11.39
10.85
11.49
12.92
14.55
15.78
16.19
15.67
14.45
12.94
11.58
10.63
10.13
9.87
9.46
8.44
6.36
3.01
-1.47
-6.49
-11.07
-14.04
-14.37
-11.50
-5.48
3.01
12.87
22.89
31.98
39.27
44.14
46.22
45.39
41.83
36.14
29.25
22.23
16.06
11.31
8.00
5.72
3.83
1.83
-0.48
-2.97
-5.32
-7.21
-8.46
-9.06
-9.11
-8.79
-8.37
-8.14
-8.38
-9.23
-10.55
-11.88
-12.53
-11.78
-9.20
-4.85
0.72
6.58
11.75
15.50
17.46
17.66
16.46
14.34
11.86
9.62
8.22
8.18
9.73
12.63
16.14
19.16
20.60
19.74
16.54
11.57
5.81
0.20
-4.62
-8.47
-11.58
-14.37
-17.26
-20.50
-24.07
-27.65
-30.62
-32.29
-32.05
-29.63
-25.21
-19.41
-13.12
-7.21
-2.40
0.95
2.68
2.85
1.67
-0.47
-3.01
-5.27
-6.66
-6.82
-5.81
-4.03
-2.09
-0.50
0.42
0.62
0.20
-0.72
-2.06
-3.80
-5.92
-8.30
-10.78
-13.19
-15.40
-17.31
-18.74
-19.35
-18.69
-16.30
-11.96
-5.83
1.48
9.10
16.15
21.98
26.24
28.87
29.94
29.64
28.18
25.88
23.16
20.50
18.24
16.57
15.44
14.63
13.89
13.03
12.03
10.96
9.85
8.67
7.17
4.95
1.59
-3.17
-9.25
-16.11
-22.78
-28.07
-30.86
-30.43
-26.70
-20.25
-12.21
-3.90
3.46
9.04
12.46
13.80
13.39
11.75
9.40
6.85
4.53
2.72
1.56
0.96
0.71
0.49
0.06
-0.67
-1.60
-2.56
-3.41
-4.16
-5.05
-6.43
-8.71
-12.11
-16.52
-21.47
-26.19
-29.75
-31.30
-30.26
-26.53
-20.49
-12.90
-4.75
3.04
9.71
14.85
18.25
19.91
19.95
18.61
16.26
13.43
10.70
8.59
7.42
7.16
7.52
7.96
7.92
7.03
5.19
2.66
-0.13
-2.72
-4.88
-6.69
-8.52
-10.82
-13.89
-17.66
-21.56
-24.65
-25.93
-24.64
-20.55
-14.04
-5.95
2.66
10.84
17.86
23.32
26.98
28.75
28.57
26.55
23.04
18.66
14.19
10.38
7.68
6.15
5.41
4.87
3.89
2.13
-0.41
-3.41
-6.36
-8.84
-10.60
-11.69
-12.38
-13.10
-14.31
-16.37
-19.39
-23.06
-26.63
-29.02
-29.19
-26.47
-20.86
-13.04
-4.14
4.66
12.45
18.70
23.16
25.75
26.43
25.27
22.53
18.77
14.70
10.96
7.99
5.83
4.22
2.76
1.14
-0.82
-3.10
-5.61
-8.24
-10.95
-13.66
-16.26
-18.58
-20.50
-22.04
-23.46
-25.17
-27.47
-30.36
-33.32
-35.37
-35.36
-32.38
-26.13
-17.09
-6.39
4.60
14.60
22.76
28.73
32.48
34.12
33.83
31.76
28.28
23.95
19.54
15.86
13.50
12.66
13.09
14.22
15.41
16.16
16.16
15.36
13.87
11.85
9.39
6.58
3.48
0.12
-3.50
-7.38
-11.48
-15.60
-19.28
-21.77
-22.23
-20.00
-14.95
-7.59
1.07
9.89
17.94
24.75
30.20
34.27
36.77
37.38
35.76
31.91
26.30
19.78
13.32
7.62
2.87
-1.25
-5.25
-9.51
-14.02
-18.39
-22.03
-24.47
-25.57
-25.55
-24.94
-24.33
-24.29
-25.24
-27.35
-30.40
-33.76
-36.38
-37.01
-34.64
-28.80
-19.88
-8.95
2.50
13.04
21.68
27.94
31.81
33.52
33.32
31.47
28.30
24.25
20.00
16.31
13.79
12.77
13.05
14.00
14.75
14.47
12.66
9.25
4.65
-0.44
-5.28
-9.28
-12.14
-13.96
-15.12
-16.17
-17.56
-19.43
-21.48
-23.04
-23.27
-21.49
-17.51
-11.66
-4.76
2.22
8.44
13.38
16.89
18.95
19.60
18.82
16.62
13.19
8.96
4.59
0.87
-1.54
-2.29
-1.44
0.57
3.08
5.41
7.04
7.69
7.38
6.31
4.73
2.91
1.01
-0.91
-2.90
-5.14
-7.88
-11.31
-15.27
-19.18
-22.02
-22.63
-20.17
-14.49
-6.18
3.59
13.57
22.73
30.46
36.38
40.19
41.62
40.47
36.90
31.47
25.09
18.74
13.18
8.70
5.14
2.06
-1.05
-4.54
-8.52
-12.84
-17.24
-21.41
-25.09
-28.19
-30.78
-33.05
-35.25
-37.57
-40.06
-42.57
-44.71
-45.98
-45.83
-43.84
-39.83
-33.92
-26.56
-18.43
-10.31
-2.92
3.17
7.67
10.53
11.91
12.10
11.46
10.37
9.25
8.44
8.26
8.82
10.05
11.68
13.29
14.41
14.65
13.88
12.19
9.91
7.44
5.10
3.08
1.40
-0.08
-1.58
-3.31
-5.39
-7.70
-9.82
-11.12
-10.91
-8.77
-4.80
0.35
5.68
10.14
12.99
13.99
13.35
11.47
8.81
5.79
2.78
0.14
-1.79
-2.78
-2.82
-2.19
-1.37
-0.88
-1.10
-2.07
-3.50
-4.91
-5.87
-6.25
-6.26
-6.40
-7.21
-9.08
-12.05
-15.77
-19.52
-22.39
-23.42
-21.87
-17.44
-10.44
-1.78
7.23
15.21
21.07
24.26
24.72
22.87
19.28
14.64
9.62
4.91
1.10
-1.35
-2.32
-2.06
-1.15
-0.36
-0.30
-1.22
-2.94
-4.93
-6.65
-7.75
-8.28
-8.62
-9.32
-10.88
-13.58
-17.34
-21.68
-25.70
-28.27
-28.26
-24.92
-18.24
-9.01
1.35
11.20
19.22
24.70
27.52
28.02
26.68
23.96
20.30
16.16
12.08
8.62
6.18
4.85
4.34
4.13
3.65
2.57
0.89
-1.08
-2.91
-4.30
-5.23
-5.98
-6.99
-8.66
-11.20
-14.52
-18.26
-21.84
-24.52
-25.49
-24.07
-19.90
-13.16
-4.64
4.43
12.73
19.18
23.24
24.90
24.53
22.57
19.42
15.36
10.70
5.87
1.46
-1.96
-4.02
-4.69
-4.29
-3.43
-2.71
-2.61
-3.32
-4.82
-6.91
-9.39
-12.13
-15.15
-18.52
-22.27
-26.31
-30.30
-33.73
-35.95
-36.38
-34.74
-31.17
-26.26
-20.85
-15.75
-11.42
-7.85
-4.49
-0.48
5.11
12.89
22.99
34.90
47.54
59.46
69.13
75.30
77.28
75.02
68.97
59.92
48.72
36.30
23.72
12.20
3.15
-2.27
-3.41
-0.57
4.98
11.23
15.91
17.05
13.46
5.03
-7.22
-21.27
-34.50
-44.23
-48.24
-45.25
-35.27
-19.65
-0.87
17.90
33.39
42.95
45.15
40.01
28.97
14.36
-1.22
-15.47
-26.80
-34.39
-38.07
-38.24
-35.64
-31.22
-25.95
-20.62
-15.72
-11.53
-8.24
-6.14
-5.68
-7.41
-11.71
-18.51
-27.10
-36.15
-43.85
-48.30
-47.96
-42.05
-30.88
-15.84
0.83
16.64
29.44
37.93
41.87
41.86
38.95
34.16
28.35
22.10
16.00
10.62
6.61
4.42
4.19
5.56
7.79
9.99
11.31
11.23
9.62
6.74
3.08
-0.81
-4.54
-7.96
-11.14
-14.33
-17.72
-21.27
-24.62
-27.08
-27.86
-26.21
-21.76
-14.63
-5.53
4.46
14.05
22.03
27.61
30.41
30.54
28.39
24.54
19.68
14.50
9.72
5.96
3.69
3.00
3.58
4.74
5.56
5.26
3.44
0.24
-3.74
-7.65
-10.82
-12.91
-14.00
-14.48
-14.81
-15.42
-16.49
-17.97
-19.52
-20.60
-20.50
-18.63
-14.70
-8.92
-1.94
5.32
11.94
17.25
20.98
23.17
24.09
24.11
23.53
22.53
21.10
19.12
16.50
13.29
9.75
6.23
3.06
0.42
-1.62
-3.00
-3.62
-3.33
-2.13
-0.33
1.41
2.27
1.53
-1.11
-5.46
-10.90
-16.50
-21.27
-24.31
-24.93
-22.87
-18.35
-12.03
-4.91
1.96
7.80
12.15
14.91
16.17
16.10
14.87
12.70
9.93
7.12
4.89
3.69
3.60
4.25
4.98
5.17
4.53
3.29
1.99
1.24
1.31
1.98
2.55
2.15
0.08
-3.83
-9.15
-14.90
-19.79
-22.56
-22.31
-18.73
-12.25
-3.84
5.12
13.25
19.47
23.31
24.94
25.07
24.68
24.59
25.13
26.07
26.71
26.29
24.35
20.84
16.17
10.91
5.59
0.49
-4.21
-8.33
-11.57
-13.60
-14.18
-13.33
-11.43
-9.02
-6.69
-4.95
-4.20
-4.68
-6.45
-9.27
-12.45
-14.94
-15.54
-13.33
-8.15
-0.68
7.71
15.52
21.61
25.49
27.32
27.59
26.77
25.13
22.77
19.75
16.15
11.99
7.02
0.62
-8.01
-19.37
-33.15
-48.01
-61.80
-72.28
-77.90
-78.33
-74.51
-68.11
-60.91
-54.28
-48.99
-45.41
-43.70
-43.82
-45.38
-47.42
-48.43
-46.72
-41.05
-31.10
-17.73
-2.67
12.08
24.90
34.96
42.16
46.91
49.70
50.89
50.78
49.65
47.87
45.87
44.01
42.44
41.02
39.37
37.05
33.69
29.14
23.52
17.18
10.60
4.25
-1.59
-6.80
-11.52
-15.93
-20.19
-24.34
-28.25
-31.65
-34.10
-35.05
-33.97
-30.50
-24.67
-16.99
-8.40
-0.02
7.17
12.61
16.19
18.19
19.00
18.98
18.37
17.34
16.12
14.94
14.10
13.80
14.08
14.75
15.47
15.83
15.52
14.40
12.52
10.11
7.48
4.94
2.74
0.95
-0.54
-2.07
-4.04
-6.83
-10.55
-14.95
-19.42
-23.20
-25.56
-25.99
-24.36
-20.89
-16.07
-10.64
-5.36
-0.91
2.26
4.00
4.48
4.04
3.08
2.02
1.22
1.05
1.77
3.47
5.98
8.80
11.20
12.49
12.22
10.41
7.53
4.32
1.57
-0.22
-0.93
-0.78
-0.21
0.33
0.55
0.37
-0.10
-0.51
-0.35
1.04
4.28
9.70
17.14
25.80
34.38
41.39
45.62
46.47
44.07
39.18
32.88
26.22
19.98
14.51
9.89
5.98
2.59
-0.47
-3.33
-6.13
-9.01
-12.03
-15.12
-17.94
-20.05
-20.98
-20.51
-18.82
-16.43
-14.07
-12.38
-11.76
-12.24
-13.48
-14.88
-15.68
-15.12
-12.62
-7.94
-1.32
6.62
15.04
23.12
30.24
36.03
40.28
42.83
43.50
42.25
39.20
34.82
29.81
24.96
20.88
17.86
15.78
14.22
12.71
10.88
8.65
6.26
4.15
2.82
2.64
3.68
5.64
7.89
9.63
10.11
8.93
6.26
2.85
-0.13
-1.48
-0.41
3.10
8.27
13.73
17.98
19.91
19.14
16.03
11.52
6.66
2.30
-1.21
-4.02
-6.56
-9.35
-12.64
-16.40
-20.30
-23.91
-26.94
-29.33
-31.20
-32.79
-34.27
-35.69
-37.04
-38.29
-39.50
-40.87
-42.65
-45.07
-48.25
-52.10
-56.32
-60.31
-63.35
-64.63
-63.49
-59.64
-53.26
-44.97
-35.71
-26.42
-17.87
-10.51
-4.52
0.06
3.29
5.19
5.90
5.69
5.03
4.51
4.66
5.74
7.66
9.95
11.99
13.23
13.42
12.75
11.69
10.87
10.81
11.71
13.40
15.44
17.24
18.27
18.17
16.87
14.65
12.20
10.56
10.86
13.98
20.17
28.90
39.04
49.17
58.04
64.79
68.97
70.42
69.16
65.43
59.71
52.80
45.67
39.12
33.58
28.94
24.71
20.36
15.53
10.26
4.89
-0.10
-4.36
-7.80
-10.69
-13.52
-16.80
-20.87
-25.77
-31.25
-36.94
-42.42
-47.33
-51.29
-53.91
-54.75
-53.49
-50.18
-45.30
-39.74
-34.40
-29.98
-26.68
-24.31
-22.49
-21.00
-19.83
-19.16
-19.09
-19.54
-20.11
-20.34
-19.91
-18.82
-17.43
-16.23
-15.67
-15.89
-16.74
-17.87
-18.85
-19.47
-19.73
-19.89
-20.34
-21.44
-23.36
-25.88
-28.44
-30.15
-30.06
-27.42
-21.94
-13.92
-4.10
6.49
16.82
26.01
33.38
38.45
40.98
40.98
38.74
34.82
29.89
24.59
19.45
14.81
10.83
7.56
4.98
3.01
1.54
0.46
-0.24
-0.49
-0.07
1.21
3.44
6.49
9.92
13.09
15.32
16.20
15.76
14.57
13.59
13.75
15.57
18.91
23.03
26.84
29.35
30.06
29.03
26.77
23.93
21.04
18.37
15.92
13.62
11.37
9.12
6.78
4.17
1.01
-2.94
-7.73
-13.08
-18.42
-23.02
-26.28
-27.94
-28.19
-27.57
-26.81
-26.63
-27.57
-29.91
-33.65
-38.46
-43.68
-48.33
-51.27
-51.47
-48.30
-41.86
-32.95
-22.86
-13.00
-4.47
2.08
6.44
8.63
8.80
7.22
4.39
1.11
-1.66
-3.03
-2.56
-0.41
2.70
5.88
8.38
9.85
10.40
10.34
10.01
9.56
8.96
8.02
6.54
4.38
1.50
-1.98
-5.89
-9.90
-13.51
-16.07
-16.80
-15.02
-10.35
-2.95
6.42
16.52
25.99
33.67
38.89
41.53
41.87
40.44
37.79
34.46
30.89
27.47
24.46
21.95
19.86
17.97
15.99
13.70
11.03
8.08
5.12
2.47
0.37
-1.15
-2.32
-3.58
-5.42
-8.21
-12.06
-16.75
-21.80
-26.54
-30.20
-32.02
-31.36
-27.84
-21.49
-12.76
-2.54
8.06
17.93
26.17
32.26
35.97
37.37
36.73
34.43
30.95
26.86
22.76
19.15
16.38
14.56
13.58
13.19
13.13
13.16
13.16
13.10
12.97
12.69
12.12
11.07
9.41
7.15
4.39
1.38
-1.57
-4.09
-5.74
-6.07
-4.74
-1.61
3.08
8.77
14.74
20.27
24.91
28.45
30.86
32.14
32.15
30.72
27.79
23.51
18.31
12.83
7.76
3.63
0.67
-1.23
-2.39
-3.27
-4.26
-5.61
-7.35
-9.26
-11.00
-12.25
-12.90
-13.13
-13.42
-14.48
-16.96
-21.20
-26.82
-32.73
-37.27
-38.57
-35.06
-25.89
-11.62
5.86
23.76
39.17
49.82
54.60
53.66
48.24
40.18
30.89
21.19
11.56
2.71
-4.34
-8.55
-9.32
-6.77
-1.73
3.74
7.31
7.32
3.72
-2.24
-8.78
-14.54
-18.80
-21.32
-22.93
-24.96
-28.66
-34.87
-44.53
-58.95
-79.68
-107.51
-136.20
-156.50
-161.34
-151.51
-133.77
-114.79
-96.91
-78.24
-54.64
-22.99
15.44
54.78
87.44
108.69
116.67
113.20
102.29
88.56
75.71
65.20
57.01
51.06
48.33
49.04
53.46
59.57
63.77
62.67
54.34
39.31
20.34
1.44
-14.28
-25.00
-30.10
-30.02
-25.95
-19.70
-13.28
-8.36
-5.92
-6.28
-8.26
-10.98
-13.71
-16.00
-17.77
-19.13
-20.27
-21.21
-21.94
-22.19
-21.90
-21.06
-19.75
-18.13
-16.42
-14.88
-13.75
-13.18
-13.00
-12.92
-12.50
-11.27
-9.00
-5.82
-2.29
0.69
2.27
2.04
0.25
-2.10
-3.60
-2.95
0.56
6.76
14.71
23.01
30.30
35.56
38.29
38.50
36.51
32.82
28.01
22.72
17.53
12.96
9.32
6.60
4.46
2.33
-0.35
-3.80
-7.81
-11.79
-15.08
-17.35
-18.75
-19.91
-21.54
-24.10
-27.53
-31.30
-34.61
-36.82
-37.61
-36.97
-35.08
-32.01
-27.68
-21.96
-14.91
-7.04
0.72
7.31
11.92
14.42
15.35
15.68
16.24
17.32
18.54
19.19
18.70
16.97
14.41
11.68
9.29
7.32
5.43
3.05
-0.29
-4.78
-10.21
-16.13
-21.92
-27.03
-31.04
-33.79
-35.39
-36.16
-36.54
-36.95
-37.64
-38.63
-39.65
-40.20
-39.60
-37.12
-32.21
-24.69
-14.93
-3.79
7.56
17.96
26.57
33.04
37.44
40.04
41.14
40.89
39.45
37.01
33.96
30.83
28.15
26.30
25.40
25.26
25.50
25.71
25.53
24.75
23.34
21.38
19.06
16.63
14.30
12.15
10.09
7.74
4.64
0.39
-4.99
-10.90
-16.21
-19.61
-20.10
-17.37
-11.96
-4.96
2.42
9.27
15.20
20.21
24.40
27.76
29.94
30.46
28.86
24.96
18.95
11.40
3.04
-5.33
-12.98
-19.32
-23.91
-26.45
-26.85
-25.20
-21.86
-17.42
-12.66
-8.41
-5.43
-4.25
-5.18
-8.27
-13.35
-20.06
-27.79
-35.65
-42.54
-47.25
-48.79
-46.71
-41.25
-33.34
-24.30
-15.42
-7.60
-1.22
3.72
7.43
10.08
11.71
12.37
12.21
11.66
11.32
11.82
13.61
16.76
21.00
25.82
30.62
34.88
38.20
40.20
40.56
38.98
35.32
29.74
22.80
15.34
8.30
2.42
-1.93
-4.71
-6.11
-6.35
-5.61
-4.01
-1.67
1.18
4.24
7.19
9.82
12.10
14.10
15.93
17.66
19.17
20.23
20.56
19.92
18.24
15.71
12.70
9.72
7.26
5.60
4.79
4.51
4.31
3.67
2.26
0.08
-2.54
-5.10
-7.16
-8.58
-9.61
-10.74
-12.52
-15.25
-18.79
-22.49
-25.32
-26.20
-24.30
-19.34
-11.77
-2.67
6.55
14.47
20.12
23.07
23.49
21.95
19.16
15.72
12.06
8.40
4.84
1.48
-1.53
-3.99
-5.66
-6.44
-6.41
-5.82
-5.05
-4.50
-4.46
-5.06
-6.31
-8.10
-10.25
-12.61
-14.99
-17.30
-19.50
-21.57
-23.48
-25.02
-25.86
-25.54
-23.61
-19.84
-14.35
-7.63
-0.49
6.19
11.57
15.12
16.65
16.31
14.44
11.47
7.76
3.56
-0.94
-5.56
-10.02
-14.00
-17.19
-19.40
-20.63
-21.12
-21.24
-21.39
-21.84
-22.67
-23.78
-24.97
-26.08
-27.01
-27.76
-28.40
-29.05
-29.83
-30.88
-32.22
-33.76
-35.16
-35.85
-35.09
-32.21
-26.83
-19.01
-9.35
1.24
11.72
21.21
29.15
35.33
39.82
42.86
44.80
46.01
46.85
47.64
48.61
49.83
51.20
52.41
53.04
52.69
51.10
48.29
44.51
40.26
35.98
31.93
28.06
23.96
19.10
13.11
5.93
-2.07
-10.28
-18.05
-24.84
-30.29
-34.13
-36.10
-35.90
-33.35
-28.53
-21.99
-14.60
-7.41
-1.33
3.10
5.76
6.89
6.83
5.94
4.49
2.70
0.78
-1.03
-2.48
-3.39
-3.71
-3.57
-3.15
-2.68
-2.24
-1.85
-1.43
-0.96
-0.49
-0.22
-0.42
-1.32
-3.09
-5.69
-8.96
-12.62
-16.38
-19.93
-22.94
-25.01
-25.56
-23.99
-19.79
-12.88
-3.73
6.67
17.03
26.20
33.46
38.57
41.68
43.11
43.15
42.00
39.84
36.93
33.54
30.01
26.59
23.50
20.91
18.94
17.67
17.02
16.73
16.34
15.35
13.37
10.38
6.66
2.74
-0.89
-3.93
-6.41
-8.60
-10.92
-13.78
-17.54
-22.34
-28.00
-33.87
-38.86
-41.62
-41.07
-36.78
-29.28
-19.96
-10.54
-2.54
3.22
6.63
8.13
8.26
7.47
6.01
4.03
1.70
-0.72
-2.94
-4.76
-6.10
-6.99
-7.53
-7.72
-7.57
-7.07
-6.33
-5.66
-5.45
-6.09
-7.73
-10.24
-13.23
-16.20
-18.74
-20.65
-22.03
-23.22
-24.65
-26.68
-29.37
-32.31
-34.59
-34.96
-32.27
-25.85
-15.92
-3.71
8.81
19.54
26.85
30.18
30.17
28.43
26.94
27.35
30.47
36.07
43.03
49.76
54.61
56.25
53.92
47.50
37.51
24.96
11.06
-3.10
-16.84
-29.85
-41.95
-52.75
-61.39
-66.63
-67.34
-63.14
-54.84
-44.43
-34.55
-27.70
-25.52
-28.31
-35.01
-43.55
-51.47
-56.45
-56.91
-52.31
-43.23
-31.14
-17.94
-5.36
5.48
14.31
21.50
27.71
33.47
39.00
44.18
48.83
52.83
56.21
59.08
61.48
63.44
65.05
66.48
67.99
69.64
71.05
71.42
69.71
65.24
58.13
49.41
40.77
33.80
29.27
26.72
24.55
20.69
13.37
1.95
-12.70
-28.24
-41.40
-48.94
-48.60
-39.97
-24.70
-6.23
11.21
23.81
29.25
27.24
19.37
8.29
-3.20
-13.05
-20.29
-24.96
-27.76
-29.54
-30.95
-32.35
-33.75
-34.91
-35.60
-35.69
-35.26
-34.65
-34.28
-34.49
-35.30
-36.37
-37.14
-37.12
-36.17
-34.63
-33.16
-32.44
-32.78
-33.95
-35.24
-35.77
-34.86
-32.25
-28.16
-23.07
-17.50
-11.80
-6.10
-0.30
5.79
12.40
19.59
27.16
34.50
40.62
44.35
44.77
41.75
36.22
30.05
25.51
24.49
27.67
34.20
41.88
47.91
49.86
46.47
38.04
26.27
13.54
2.22
-6.07
-10.69
-11.91
-10.66
-8.19
-5.78
-4.64
-5.75
-9.66
-16.30
-24.75
-33.41
-40.27
-43.56
-42.28
-36.55
-27.56
-17.09
-6.95
1.51
7.61
11.19
12.46
11.78
9.70
7.03
4.82
4.06
5.37
8.55
12.57
15.91
17.17
15.66
11.76
6.73
2.24
-0.27
-0.07
2.67
6.98
11.46
14.73
15.72
13.92
9.42
2.89
-4.57
-11.49
-16.30
-17.59
-14.60
-7.45
2.68
13.85
23.93
31.31
35.39
36.66
36.34
35.71
35.45
35.37
34.49
31.45
25.18
15.41
2.93
-10.57
-22.95
-32.33
-37.68
-39.08
-37.59
-34.78
-32.17
-30.69
-30.57
-31.54
-33.08
-34.88
-36.87
-39.19
-41.99
-45.29
-48.83
-52.14
-54.53
-55.23
-53.51
-48.87
-41.26
-31.21
-19.85
-8.67
0.97
8.15
12.65
14.90
15.63
15.60
15.32
15.04
14.78
14.49
14.17
13.84
13.50
13.11
12.51
11.47
9.84
7.57
4.77
1.71
-1.31
-4.03
-6.31
-8.10
-9.42
-10.35
-11.02
-11.67
-12.57
-13.92
-15.74
-17.71
-19.21
-19.47
-17.81
-13.88
-7.78
-0.10
8.23
16.18
22.84
27.71
30.73
32.22
32.72
32.74
32.56
32.26
31.76
31.02
30.10
29.16
28.36
27.73
27.10
26.12
24.46
21.86
18.39
14.38
10.39
7.04
4.76
3.72
3.72
4.26
4.70
4.38
2.85
-0.09
-4.15
-8.61
-12.30
-13.89
-12.26
-6.95
1.59
11.97
22.26
30.49
35.27
36.10
33.50
28.66
23.06
17.99
14.27
12.14
11.31
11.19
11.09
10.43
8.89
6.36
3.00
-0.92
-5.02
-8.93
-12.29
-14.83
-16.49
-17.50
-18.35
-19.64
-21.82
-25.01
-28.87
-32.77
-36.03
-38.15
-38.88
-38.21
-36.14
-32.64
-27.66
-21.20
-13.50
-5.12
3.16
10.46
16.00
19.25
20.06
18.66
15.56
11.47
7.21
3.54
1.12
0.39
1.47
4.04
7.40
10.63
12.83
13.42
12.34
9.96
6.98
4.11
1.82
0.27
-0.71
-1.43
-2.24
-3.40
-5.05
-7.21
-9.71
-12.19
-14.09
-14.68
-13.25
-9.37
-3.12
4.90
13.64
21.89
28.67
33.39
35.89
36.27
34.83
31.92
27.92
23.33
18.65
14.39
10.92
8.36
6.63
5.49
4.65
3.84
2.83
1.41
-0.61
-3.36
-6.81
-10.73
-14.72
-18.32
-21.22
-23.33
-24.84
-26.12
-27.54
-29.23
-31.00
-32.28
-32.33
-30.43
-26.13
-19.51
-11.15
-2.09
6.47
13.44
18.15
20.46
20.74
19.67
17.97
16.26
14.92
14.07
13.70
13.65
13.73
13.67
13.20
12.15
10.48
8.36
6.05
3.81
1.74
-0.19
-2.13
-4.19
-6.35
-8.49
-10.41
-12.10
-13.72
-15.60
-18.00
-20.85
-23.63
-25.43
-25.19
-22.17
-16.18
-7.80
1.84
11.32
19.27
24.74
27.38
27.52
26.05
24.21
23.16
23.56
25.38
27.79
29.42
28.72
24.39
15.79
3.27
-11.67
-26.48
-38.11
-43.75
-41.78
-32.40
-17.69
-0.99
14.13
24.93
30.07
29.59
24.52
16.24
6.07
-4.80
-15.26
-24.19
-30.57
-33.70
-33.45
-30.40
-25.66
-20.53
-16.10
-12.98
-11.27
-10.64
-10.71
-11.15
-11.78
-12.58
-13.51
-14.47
-15.28
-15.77
-15.84
-15.54
-15.05
-14.65
-14.58
-14.99
-15.81
-16.83
-17.71
-18.12
-17.82
-16.80
-15.24
-13.45
-11.81
-10.62
-10.07
-10.24
-11.03
-12.09
-12.83
-12.46
-10.19
-5.46
1.78
11.01
21.21
31.08
39.41
45.25
48.08
47.92
45.24
40.82
35.56
30.21
25.18
20.53
16.10
11.73
7.39
3.14
-1.02
-5.21
-9.65
-14.49
-19.50
-24.05
-27.29
-28.49
-27.44
-24.57
-20.87
-17.55
-15.60
-15.48
-17.00
-19.37
-21.46
-22.05
-20.10
-14.82
-5.82
6.86
22.55
39.80
56.54
70.46
79.62
83.07
81.19
75.43
67.65
59.35
51.22
43.18
34.84
25.96
16.68
7.39
-1.61
-10.39
-19.32
-28.93
-39.50
-50.94
-62.79
-74.39
-85.10
-94.40
-101.98
-107.72
-111.73
-114.31
-115.81
-116.50
-116.33
-114.89
-111.46
-105.26
-95.67
-82.56
-66.26
-47.57
-27.67
-7.91
10.27
25.61
37.15
44.37
47.21
46.04
41.57
34.87
27.24
20.09
14.72
12.17
13.00
17.24
24.36
33.37
42.98
51.89
59.15
64.23
67.10
67.91
66.81
63.77
58.69
51.61
42.97
33.63
24.74
17.46
12.76
11.28
13.26
18.45
26.06
34.77
42.94
49.06
52.16
52.06
49.25
44.58
38.81
32.34
25.27
17.51
9.07
0.25
-8.42
-16.23
-22.55
-26.94
-29.33
-29.94
-29.26
-27.83
-26.17
-24.69
-23.69
-23.40
-23.95
-25.34
-27.26
-29.02
-29.66
-28.22
-24.14
-17.60
-9.48
-1.02
6.72
13.33
19.19
25.15
32.08
40.44
50.03
60.13
69.76
77.90
83.73
86.65
86.26
82.42
75.31
65.55
54.19
42.50
31.72
22.61
15.36
9.56
4.51
-0.40
-5.50
-10.75
-15.85
-20.51
-24.53
-27.89
-30.63
-32.84
-34.63
-36.13
-37.48
-38.77
-39.92
-40.70
-40.76
-39.73
-37.45
-34.00
-29.79
-25.40
-21.43
-18.36
-16.39
-15.48
-15.37
-15.76
-16.34
-16.90
-17.30
-17.45
-17.27
-16.72
-15.80
-14.61
-13.32
-12.09
-11.07
-10.28
-9.73
-9.43
-9.42
-9.76
-10.51
-11.66
-13.18
-15.04
-17.19
-19.59
-22.11
-24.43
-26.03
-26.29
-24.65
-20.88
-15.18
-8.22
-0.96
5.64
10.87
14.46
16.53
17.41
17.45
16.89
15.87
14.50
12.96
11.52
10.42
9.75
9.32
8.77
7.67
5.77
3.07
-0.16
-3.48
-6.50
-8.98
-10.90
-12.45
-13.90
-15.56
-17.66
-20.34
-23.60
-27.20
-30.64
-33.11
-33.69
-31.64
-26.70
-19.26
-10.34
-1.20
7.01
13.61
18.47
21.81
23.95
25.16
25.53
25.10
24.01
22.49
20.85
19.36
18.19
17.33
16.65
15.92
14.91
13.44
11.45
8.97
6.13
3.13
0.15
-2.69
-5.40
-8.07
-10.86
-13.98
-17.56
-21.63
-25.96
-30.00
-32.92
-33.76
-31.70
-26.41
-18.18
-7.96
2.91
12.99
21.15
26.79
29.89
30.90
30.46
29.15
27.40
25.44
23.42
21.47
19.73
18.29
17.16
16.17
15.08
13.63
11.67
9.16
6.24
3.07
-0.16
-3.31
-6.32
-9.14
-11.82
-14.44
-17.19
-20.35
-24.21
-28.93
-34.37
-39.94
-44.66
-47.37
-47.12
-43.54
-37.04
-28.66
-19.82
-11.77
-5.33
-0.71
2.34
4.27
5.48
6.19
6.50
6.50
6.37
6.40
6.88
8.03
9.92
12.56
15.86
19.72
23.98
28.41
32.75
36.72
40.12
42.87
45.08
46.99
48.89
51.06
53.61
56.42
59.11
61.07
61.67
60.48
57.48
53.05
47.90
42.83
38.48
35.12
32.71
30.93
29.39
27.80
25.96
23.80
21.32
18.49
15.38
12.15
9.07
6.49
4.67
3.68
3.36
3.38
3.39
3.04
2.10
0.38
-2.20
-5.63
-9.76
-14.29
-18.80
-22.90
-26.26
-28.70
-30.21
-30.85
-30.77
-30.20
-29.43
-28.76
-28.38
-28.25
-28.07
-27.35
-25.65
-22.72
-18.67
-13.90
-8.97
-4.40
-0.55
2.42
4.48
5.67
6.08
5.85
5.19
4.36
3.56
2.88
2.23
1.48
0.56
-0.50
-1.55
-2.47
-3.27
-4.10
-5.20
-6.73
-8.60
-10.61
-12.49
-14.07
-15.33
-16.36
-17.24
-18.02
-18.75
-19.56
-20.62
-22.06
-23.75
-25.21
-25.71
-24.54
-21.32
-16.24
-10.01
-3.63
1.92
6.02
8.44
9.38
9.19
8.25
6.86
5.19
3.41
1.72
0.33
-0.57
-0.90
-0.75
-0.33
0.12
0.43
0.55
0.53
0.45
0.32
0.14
-0.18
-0.68
-1.37
-2.24
-3.26
-4.46
-5.89
-7.67
-9.89
-12.57
-15.60
-18.64
-21.22
-22.76
-22.77
-21.03
-17.58
-12.87
-7.54
-2.36
2.04
5.20
6.98
7.50
7.09
6.15
5.11
4.25
3.72
3.49
3.44
3.44
3.39
3.24
3.00
2.69
2.29
1.83
1.32
0.80
0.31
-0.21
-0.88
-1.85
-3.22
-4.88
-6.64
-8.25
-9.65
-10.97
-12.49
-14.42
-16.68
-18.82
-20.18
-20.14
-18.38
-15.03
-10.62
-5.82
-1.25
2.69
5.83
8.14
9.66
10.39
10.38
9.73
8.66
7.43
6.25
5.26
4.44
3.75
3.08
2.40
1.70
1.04
0.42
-0.14
-0.69
-1.32
-2.14
-3.23
-4.61
-6.19
-7.80
-9.31
-10.67
-11.98
-13.46
-15.25
-17.31
-19.32
-20.85
-21.38
-20.59
-18.38
-14.91
-10.55
-5.76
-0.99
3.31
6.83
9.33
10.74
11.12
10.63
9.57
8.26
6.99
5.98
5.31
4.91
4.66
4.34
3.80
2.94
1.79
0.40
-1.09
-2.52
-3.82
-4.99
-6.11
-7.31
-8.70
-10.36
-12.31
-14.53
-16.99
-19.52
-21.84
-23.49
-23.97
-22.88
-20.05
-15.68
-10.30
-4.59
0.77
5.28
8.71
11.06
12.49
13.20
13.35
13.02
12.28
11.24
10.10
9.11
8.50
8.38
8.58
8.79
8.62
7.83
6.36
4.39
2.20
0.05
-1.93
-3.77
-5.54
-7.32
-9.12
-10.97
-12.93
-15.09
-17.51
-20.08
-22.43
-23.90
-23.84
-21.77
-17.68
-12.03
-5.64
0.61
6.08
10.50
13.89
16.43
18.24
19.34
19.68
19.29
18.31
17.03
15.71
14.56
13.64
12.86
12.14
11.42
10.70
9.97
9.18
8.22
6.91
5.18
3.05
0.68
-1.74
-4.08
-6.37
-8.74
-11.42
-14.49
-17.82
-21.00
-23.42
-24.39
-23.35
-20.11
-14.89
-8.35
-1.39
5.06
10.30
14.01
16.26
17.39
17.81
17.81
17.53
16.94
15.96
14.62
13.07
11.53
10.25
9.37
8.94
8.82
8.82
8.65
8.01
6.54
3.96
0.17
-4.57
-9.62
-14.04
-16.90
-17.61
-16.26
-13.57
-10.67
-8.53
-7.54
-7.36
-7.12
-5.84
-2.97
1.39
6.59
11.78
16.24
19.66
22.04
23.61
24.52
24.87
24.65
23.83
22.44
20.51
17.99
14.84
10.95
6.34
1.16
-4.28
-9.52
-14.05
-17.44
-19.39
-19.83
-18.98
-17.26
-15.17
-13.07
-11.05
-8.91
-6.35
-3.16
0.54
4.36
7.82
10.56
12.59
14.27
16.15
18.70
22.13
26.29
30.84
35.34
39.47
43.01
45.87
48.00
49.39
50.08
50.16
49.83
49.33
48.90
48.66
48.57
48.41
47.87
46.69
44.76
42.12
38.96
35.44
31.66
27.66
23.38
18.78
13.89
8.73
3.38
-2.11
-7.69
-13.35
-18.97
-24.40
-29.35
-33.54
-36.73
-38.75
-39.57
-39.32
-38.17
-36.35
-34.07
-31.54
-28.94
-26.47
-24.27
-22.41
-20.89
-19.64
-18.61
-17.76
-17.06
-16.44
-15.77
-14.96
-13.96
-12.83
-11.74
-10.87
-10.36
-10.21
-10.35
-10.65
-11.06
-11.57
-12.24
-13.11
-14.18
-15.37
-16.57
-17.70
-18.75
-19.84
-21.08
-22.49
-23.91
-24.95
-25.15
-24.12
-21.71
-18.12
-13.85
-9.47
-5.46
-2.09
0.59
2.70
4.38
5.70
6.69
7.34
7.66
7.73
7.64
7.49
7.30
7.07
6.76
6.31
5.72
5.01
4.20
3.28
2.19
0.87
-0.69
-2.43
-4.22
-5.91
-7.42
-8.73
-9.91
-11.10
-12.44
-14.02
-15.83
-17.69
-19.29
-20.15
-19.82
-18.05
-14.90
-10.75
-6.19
-1.84
1.86
4.71
6.70
7.95
8.61
8.80
8.67
8.33
7.85
7.28
6.61
5.86
5.02
4.17
3.33
2.53
1.71
0.82
-0.21
-1.40
-2.72
-4.13
-5.59
-7.06
-8.50
-9.87
-11.21
-12.59
-14.17
-16.10
-18.43
-21.05
-23.63
-25.72
-26.85
-26.68
-25.13
-22.38
-18.81
-14.88
-11.03
-7.62
-4.88
-2.95
-1.90
-1.69
-2.23
-3.30
-4.68
-6.16
-7.58
-8.89
-10.09
-11.19
-12.19
-13.08
-13.88
-14.67
-15.59
-16.72
-18.06
-19.42
-20.49
-20.85
-20.19
-18.37
-15.49
-11.83
-7.77
-3.63
0.39
4.21
7.84
11.29
14.57
17.70
20.74
23.78
26.94
30.27
33.65
36.78
39.26
40.68
40.83
39.74
37.65
34.88
31.76
28.50
25.26
22.12
19.17
16.52
14.26
12.41
10.93
9.64
8.35
6.92
5.28
3.45
1.53
-0.37
-2.18
-3.91
-5.63
-7.39
-9.25
-11.22
-13.34
-15.62
-18.03
-20.50
-22.76
-24.41
-25.00
-24.12
-21.59
-17.52
-12.30
-6.48
-0.68
4.60
9.02
12.45
14.92
16.57
17.53
17.91
17.77
17.15
16.15
14.92
13.69
12.66
11.99
11.71
11.70
11.75
11.64
11.21
10.43
9.40
8.25
7.10
5.93
4.61
2.95
0.76
-2.01
-5.26
-8.70
-11.92
-14.43
-15.78
-15.64
-13.90
-10.74
-6.60
-2.05
2.34
6.14
9.12
11.21
12.44
12.89
12.69
11.99
10.96
9.80
8.73
7.90
7.38
7.12
6.94
6.60
5.87
4.64
2.91
0.87
-1.26
-3.30
-5.13
-6.77
-8.33
-10.02
-12.03
-14.49
-17.38
-20.46
-23.31
-25.41
-26.29
-25.72
-23.72
-20.51
-16.35
-11.56
-6.45
-1.38
3.23
7.00
9.59
10.82
10.74
9.73
8.26
6.83
5.92
6.02
7.49
10.43
14.61
19.43
24.38
28.93
32.81
36.09
38.96
41.52
43.54
44.48
43.76
41.35
37.47
32.50
26.85
20.94
15.21
10.27
6.82
3.71
0.93
-1.17
-2.57
-3.99
-6.49
-10.82
-17.05
-24.71
-32.96
-40.57
-46.92
-51.75
-54.89
-56.21
-55.67
-53.42
-49.83
-45.56
-41.16
-37.30
-34.46
-32.64
-31.77
-31.51
-31.47
-31.42
-31.35
-31.34
-31.67
-32.60
-34.27
-36.58
-39.08
-41.05
-41.61
-39.93
-35.39
-27.86
-17.80
-6.16
5.84
17.05
26.59
33.97
39.05
41.98
43.07
42.66
41.12
38.81
36.14
33.48
31.14
29.29
27.98
27.04
26.20
25.13
23.54
21.29
18.47
15.32
12.15
9.19
6.49
3.92
1.21
-1.89
-5.51
-9.53
-13.54
-16.89
-18.78
-18.48
-15.50
-9.75
-1.55
8.47
19.54
30.89
41.84
51.76
60.05
66.17
69.68
70.37
68.38
64.16
58.41
51.91
45.41
39.45
34.37
30.20
26.81
23.84
20.89
17.56
13.62
9.08
4.18
-0.72
-5.27
-9.31
-12.88
-16.20
-19.53
-23.08
-26.93
-31.02
-35.10
-38.70
-41.15
-41.68
-39.69
-34.95
-27.73
-18.79
-9.14
0.23
8.58
15.46
20.66
24.13
25.93
26.25
25.44
23.92
22.13
20.38
18.76
17.20
15.54
13.69
11.75
9.91
8.33
7.01
5.67
3.89
1.28
-2.25
-6.44
-10.81
-14.85
-18.27
-21.09
-23.58
-26.05
-28.75
-31.71
-34.72
-37.35
-38.97
-38.84
-36.30
-30.99
-23.03
-13.07
-2.19
8.34
17.42
24.35
28.87
31.13
31.52
30.44
28.26
25.29
21.85
18.28
14.94
12.06
9.78
8.04
6.66
5.43
4.13
2.53
0.45
-2.25
-5.60
-9.45
-13.51
-17.47
-21.06
-24.20
-27.00
-29.65
-32.39
-35.40
-38.78
-42.48
-46.23
-49.48
-51.41
-51.08
-47.79
-41.27
-31.92
-20.75
-9.11
1.64
10.43
16.68
20.30
21.52
20.81
18.67
15.65
12.27
9.08
6.54
4.95
4.37
4.57
5.11
5.53
5.44
4.67
3.21
1.19
-1.23
-3.91
-6.78
-9.81
-12.95
-16.13
-19.19
-21.96
-24.31
-26.28
-28.08
-29.98
-32.13
-34.30
-35.81
-35.63
-32.75
-26.56
-17.17
-5.39
7.47
19.99
30.98
39.72
45.99
49.98
52.18
53.13
53.37
53.32
53.18
52.98
52.57
51.66
49.97
47.39
44.11
40.67
37.88
36.46
36.63
37.87
38.94
38.29
34.77
28.10
19.11
9.40
0.64
-6.12
-10.77
-14.02
-16.93
-20.26
-24.04
-27.50
-29.35
-28.28
-23.48
-15.03
-4.00
7.86
18.56
26.44
30.55
30.72
27.46
21.75
14.73
7.63
1.63
-2.35
-3.85
-3.09
-0.98
1.25
2.55
2.52
1.62
0.84
1.17
3.00
5.93
8.94
10.84
10.71
8.18
3.46
-2.82
-9.70
-15.99
-20.59
-22.97
-23.86
-25.44
-30.97
-43.39
-63.82
-90.45
-118.69
-142.50
-156.42
-157.27
-144.92
-121.93
-92.41
-60.75
-30.67
-4.80
15.36
29.26
37.11
39.66
37.99
33.33
26.89
19.66
12.26
4.92
-2.26
-9.08
-14.98
-19.19
-21.04
-20.50
-18.31
-15.79
-14.21
-14.31
-16.01
-18.75
-21.95
-25.35
-28.87
-32.26
-34.73
-35.00
-31.65
-23.70
-10.94
5.95
25.75
46.92
67.90
87.14
103.24
115.08
122.18
124.84
124.10
121.40
118.17
115.50
114.01
113.85
114.70
115.59
114.97
111.00
102.26
88.53
71.33
53.59
38.64
28.79
24.27
23.13
22.15
18.45
10.74
-0.16
-11.78
-21.14
-25.95
-25.48
-20.84
-14.69
-10.53
-11.71
-20.13
-35.38
-54.32
-71.82
-82.42
-82.54
-72.12
-55.05
-37.86
-27.06
-26.33
-34.72
-47.04
-56.06
-55.64
-43.35
-21.32
4.98
29.09
46.24
54.76
56.00
52.75
47.13
39.12
26.63
6.94
-21.10
-55.49
-90.92
-120.47
-138.14
-141.07
-130.33
-110.02
-85.32
-60.61
-38.61
-20.54
-6.93
1.80
5.30
3.66
-2.06
-9.81
-16.84
-20.45
-18.87
-11.87
-1.12
10.22
18.62
21.55
18.65
11.96
4.97
1.01
1.60
5.76
10.26
11.03
4.68
-10.16
-32.37
-58.77
-85.17
-107.59
-123.25
-131.01
-131.25
-125.31
-114.95
-101.88
-87.71
-73.95
-62.10
-53.39
-48.31
-46.25
-45.51
-43.84
-39.36
-31.37
-20.60
-8.84
2.02
10.79
17.37
22.48
27.00
31.32
35.13
37.74
38.58
37.71
35.83
33.96
32.94
32.97
33.49
33.44
31.64
27.20
19.90
10.22
-0.82
-11.91
-21.69
-28.99
-32.90
-33.00
-29.43
-23.03
-15.17
-7.43
-1.06
3.32
5.83
7.04
7.46
7.15
5.71
2.49
-2.89
-10.30
-19.13
-28.56
-37.95
-46.90
-55.08
-61.96
-66.66
-68.16
-65.54
-58.47
-47.17
-32.39
-15.19
3.09
20.68
35.43
45.06
47.88
43.60
33.77
21.46
10.19
2.63
-0.41
-0.10
1.29
1.70
0.50
-1.24
-1.45
1.66
8.36
17.00
24.63
28.27
26.12
18.14
5.74
-8.97
-23.84
-36.97
-46.60
-50.87
-48.07
-37.16
-18.53
5.61
31.51
54.90
72.29
82.02
84.59
82.11
77.31
72.49
68.90
66.62
64.99
63.00
59.70
54.54
47.52
39.31
31.15
24.53
20.79
20.71
24.08
29.71
35.83
40.68
43.11
42.77
40.11
36.05
31.90
28.80
27.38
27.79
29.75
32.69
35.90
38.61
40.18
40.91
41.14
40.77
39.13
35.41
29.11
20.44
10.49
1.18
-3.98
-2.41
6.27
20.15
36.34
52.21
66.08
77.23
85.61
93.45
102.14
111.28
119.30
125.12
128.93
131.49
133.24
133.74
134.71
136.97
139.83
141.69
141.54
139.44
135.84
130.96
108.48
62.06
-1.42
-66.14
-119.35
-156.96
-180.93
-194.99
-202.29
-204.77
-201.26
-190.88
-174.73
-155.62
-135.91
-116.40
-96.69
-76.03
-55.89
-36.00
-16.93
-0.39
11.69
18.55
20.95
20.24
17.43
12.79
7.74
3.33
-0.14
-3.01
-5.71
-8.49
-11.61
-15.46
-20.47
-25.98
-31.09
-35.01
-37.14
-36.98
-34.22
-29.05
-22.34
-15.55
-9.88
-6.22
-4.82
-5.22
-6.37
-7.01
-6.19
-3.56
0.59
5.60
10.77
15.62
20.04
24.17
28.19
32.17
36.05
39.71
43.29
47.29
52.35
58.83
66.35
73.62
78.74
79.93
76.14
67.59
55.67
42.25
28.95
16.59
5.06
-6.14
-17.40
-28.72
-39.30
-47.77
-52.57
-52.61
-47.67
-38.83
-28.41
-19.39
-15.00
-17.05
-24.99
-36.11
-46.82
-53.98
-56.38
-54.65
-50.52
-46.63
-44.50
-43.91
-43.54
-42.27
-39.62
-36.27
-32.88
-29.59
-27.46
-27.07
-28.18
-30.27
-33.40
-37.68
-43.94
-52.28
-61.94
-73.60
-87.46
-102.41
-116.55
-128.43
-136.89
-142.77
-147.35
-140.39
-118.07
-85.14
-50.98
-21.92
-3.43
9.37
19.68
28.52
35.68
40.24
40.90
38.06
33.53
28.93
25.71
23.53
21.99
21.24
20.49
19.54
19.46
21.82
27.40
36.26
46.74
57.05
65.91
71.79
73.98
73.13
70.71
67.88
65.55
63.36
60.62
56.65
50.55
41.82
30.96
19.35
8.54
0.36
-3.96
-3.77
0.78
8.54
17.66
26.20
32.69
35.88
35.53
31.96
25.93
18.42
10.41
2.77
-3.75
-8.39
-11.23
-12.60
-13.40
-14.77
-17.50
-21.52
-25.85
-30.25
-31.66
-30.01
-25.99
-20.93
-16.19
-12.55
-10.15
-8.68
-7.75
-7.00
-6.61
-6.33
-5.64
-3.89
-0.51
4.70
11.49
19.22
27.19
34.43
40.48
45.20
48.54
50.65
51.75
52.17
52.20
52.06
51.63
50.84
49.67
47.92
45.60
43.09
40.93
39.46
38.41
37.05
34.79
31.36
26.57
20.61
14.21
8.38
3.94
0.90
-1.01
-2.07
-2.66
-3.70
-6.13
-10.34
-16.03
-22.40
-28.84
-34.13
-36.50
-32.20
-20.03
-3.88
8.85
12.09
4.13
-13.05
-35.61
-58.99
-79.47
-95.34
-106.58
-114.10
-119.24
-118.90
-112.84
-101.60
-86.15
-67.91
-49.24
-32.99
-21.77
-17.28
-20.10
-30.46
-47.41
-68.95
-92.33
-114.36
-131.36
-139.54
-136.08
-120.47
-95.64
-66.48
-38.25
-14.78
2.40
14.11
22.48
29.76
37.42
45.67
54.38
63.33
72.31
80.94
88.66
94.91
99.28
101.82
102.83
103.03
103.31
104.29
106.20
108.63
110.75
111.46
110.02
106.28
100.98
95.35
90.62
87.39
85.44
83.68
80.43
74.13
63.86
49.77
33.09
15.74
0.05
-11.89
-18.79
-20.86
-19.36
-15.95
-11.98
-7.92
-3.82
0.72
5.90
11.18
14.74
14.54
9.26
-0.87
-14.10
-28.39
-41.74
-52.72
-60.87
-66.91
-71.69
-75.44
-77.84
-78.33
-77.50
-76.39
-75.84
-72.59
-64.15
-50.67
-34.80
-21.45
-10.65
-2.60
2.25
4.69
6.41
10.01
19.02
36.80
65.13
103.10
146.06
187.39
220.13
238.37
237.78
216.82
177.36
124.90
67.75
14.60
-27.38
-54.64
-68.18
-72.85
-74.69
-78.10
-84.43
-92.39
-100.09
-106.31
-111.05
-115.07
-118.89
-122.09
-123.56
-122.36
-118.67
-114.08
-110.63
-109.62
-110.76
-112.17
-111.19
-105.59
-94.40
-78.12
-58.29
-36.64
-14.57
7.00
27.46
46.15
62.24
74.77
82.91
86.18
84.61
78.91
70.37
60.72
51.70
44.67
40.24
38.07
37.03
35.50
31.86
25.00
14.76
2.00
-11.63
-24.18
-34.17
-41.03
-45.28
-48.26
-51.49
-56.14
-62.56
-70.14
-77.47
-82.58
-83.35
-78.15
-66.43
-48.99
-27.87
-5.82
14.43
30.84
42.53
49.77
53.63
55.57
56.96
58.65
60.90
63.33
65.13
65.48
63.79
59.76
53.43
45.35
36.55
28.46
22.62
19.92
20.66
24.12
28.38
30.68
28.41
19.94
5.24
-14.06
-35.41
-55.05
-69.21
-75.56
-73.98
-66.13
-54.69
-42.52
-32.11
-25.69
-23.57
-24.79
-28.44
-34.60
-43.81
-56.53
-72.56
-90.76
-109.51
-125.06
-132.95
-130.36
-117.62
-96.86
-71.04
-42.97
-9.27
25.72
54.60
73.49
83.52
86.73
84.61
77.47
66.30
51.19
32.79
14.58
1.40
-3.27
0.51
11.05
26.47
44.06
60.91
72.58
76.35
73.26
70.68
70.39
71.66
71.04
66.82
58.65
47.15
34.45
22.99
14.05
6.66
-0.30
-7.50
-14.79
-21.24
-25.89
-27.68
-26.08
-21.62
-16.20
-11.47
-8.48
-7.56
-8.14
-9.50
-10.87
-11.56
-10.99
-8.82
-4.45
2.44
11.51
22.03
32.64
41.92
49.05
54.23
58.24
61.79
64.81
62.83
53.34
37.85
21.18
7.79
-0.83
-6.10
-10.78
-16.94
-24.85
-32.47
-37.40
-38.67
-37.29
-35.37
-34.46
-35.10
-36.84
-39.26
-41.97
-45.14
-48.88
-52.43
-53.77
-49.97
-39.95
-23.99
-5.18
12.09
23.31
25.21
16.95
0.57
-18.77
-35.15
-43.47
-41.30
-29.12
-9.98
12.05
33.48
52.59
70.29
87.87
105.83
122.91
136.58
144.07
143.75
136.01
117.82
90.70
57.86
23.38
-9.01
-36.57
-57.98
-73.34
-83.60
-90.14
-93.48
-94.40
-93.91
-93.15
-93.09
-94.00
-95.21
-95.17
-92.27
-85.01
-73.63
-59.94
-46.52
-35.65
-28.37
-24.30
-22.05
-19.99
-16.55
-11.31
-4.91
1.33
5.95
8.01
7.44
5.08
2.21
0.10
-0.83
-1.10
-1.83
-4.05
-8.22
-14.10
-20.95
-27.86
-33.78
-37.56
-37.92
-33.57
-23.73
-8.68
10.03
30.07
49.15
65.92
80.43
93.69
106.78
119.94
132.20
141.79
146.99
146.91
141.99
133.63
123.66
113.54
104.05
95.22
86.79
78.67
71.24
65.09
60.37
56.21
50.74
41.94
28.78
12.02
-6.21
-23.71
-39.36
-53.60
-67.54
-81.50
-94.08
-102.50
-104.05
-97.82
-85.46
-70.56
-56.96
-47.21
-41.89
-40.13
-40.49
-41.84
-43.61
-45.67
-47.88
-49.87
-51.02
-50.66
-48.34
-44.09
-38.49
-32.47
-27.02
-22.83
-20.18
-18.87
-18.44
-18.41
-18.43
-18.42
-18.63
-19.48
-21.45
-24.79
-29.28
-34.16
-38.24
-40.17
-38.90
-33.93
-25.49
-14.44
-2.03
10.47
21.97
31.69
39.25
44.49
47.42
48.18
47.00
44.23
40.39
36.09
31.93
28.34
25.46
23.15
21.05
18.79
16.08
12.90
9.42
5.93
2.71
-0.09
-2.54
-4.83
-7.25
-10.03
-13.34
-17.21
-21.62
-26.47
-31.45
-36.04
-39.41
-40.58
-38.72
-33.45
-25.07
-14.47
-2.90
8.45
18.71
27.40
34.27
39.19
42.00
42.63
41.15
37.94
33.63
28.97
24.70
21.28
18.91
17.46
16.57
15.70
14.32
12.05
8.76
4.67
0.20
-4.16
-8.02
-11.21
-13.79
-15.98
-18.13
-20.59
-23.70
-27.62
-32.16
-36.63
-39.92
-40.81
-38.36
-32.37
-23.47
-12.88
-2.03
7.95
16.39
23.13
28.22
31.74
33.66
33.93
32.60
29.92
26.42
22.70
19.32
16.58
14.45
12.64
10.78
8.56
5.91
2.97
0.00
-2.77
-5.25
-7.51
-9.69
-11.98
-14.53
-17.48
-20.96
-25.00
-29.47
-33.85
-37.31
-38.74
-37.20
-32.22
-24.09
-13.84
-2.88
7.43
16.18
23.03
28.11
31.68
33.93
34.86
34.42
32.64
29.77
26.26
22.62
19.23
16.29
13.75
11.42
9.07
6.49
3.57
0.28
-3.32
-7.06
-10.71
-14.10
-17.09
-19.67
-21.93
-24.06
-26.30
-28.86
-31.86
-35.21
-38.47
-40.88
-41.49
-39.45
-34.33
-26.34
-16.30
-5.44
5.02
14.17
21.50
26.92
30.56
32.59
33.19
32.45
30.57
27.84
24.67
21.54
18.84
16.76
15.24
14.06
12.87
11.41
9.54
7.22
4.54
1.56
-1.63
-4.94
-8.25
-11.42
-14.36
-17.08
-19.78
-22.78
-26.37
-30.67
-35.39
-39.80
-42.90
-43.62
-41.22
-35.51
-26.93
-16.46
-5.34
5.18
14.12
20.85
25.14
27.05
26.88
25.05
22.02
18.28
14.27
10.31
6.67
3.47
0.74
-1.60
-3.70
-5.72
-7.81
-10.07
-12.53
-15.20
-18.14
-21.40
-24.94
-28.55
-31.73
-33.88
-34.53
-33.66
-31.80
-29.75
-28.03
-26.35
-23.53
-17.97
-8.47
5.20
22.23
41.14
60.35
78.43
93.94
105.30
110.79
109.16
100.38
85.99
68.90
52.44
39.36
31.16
28.15
29.70
34.58
41.02
46.70
49.02
45.72
35.82
20.18
1.41
-16.96
-31.69
-40.75
-43.75
-41.59
-35.82
-28.07
-19.84
-12.55
-7.65
-6.54
-10.11
-18.22
-29.34
-40.69
-49.05
-51.82
-47.94
-38.18
-24.68
-10.11
3.28
14.19
22.25
27.74
31.09
32.76
33.22
33.03
32.87
33.31
34.61
36.64
39.04
41.48
43.82
46.15
48.51
50.66
51.83
50.84
46.42
37.72
24.56
7.44
-12.64
-34.47
-56.90
-78.89
-99.56
-117.97
-132.99
-143.13
-146.59
-141.77
-127.96
-106.12
-79.11
-51.19
-26.82
-9.22
0.52
3.50
2.09
-1.31
-5.17
-8.96
-12.72
-16.39
-19.46
-21.18
-20.97
-18.80
-15.35
-11.70
-8.92
-7.67
-7.97
-9.30
-10.88
-12.03
-12.48
-12.46
-12.52
-13.31
-15.21
-18.31
-22.36
-26.98
-31.70
-36.03
-39.33
-40.76
-39.45
-34.78
-26.71
-15.97
-3.89
7.96
18.26
26.22
31.62
34.60
35.39
34.32
31.74
28.16
24.23
20.63
17.86
16.11
15.20
14.68
14.05
12.92
11.09
8.61
5.66
2.50
-0.60
-3.54
-6.32
-9.10
-12.09
-15.55
-19.67
-24.56
-30.15
-35.99
-41.25
-44.76
-45.32
-42.06
-34.78
-24.13
-11.43
1.70
13.75
23.71
31.13
36.03
38.75
39.70
39.26
37.76
35.51
32.86
30.17
27.78
25.92
24.63
23.74
22.91
21.78
20.03
17.54
14.40
10.89
7.30
3.85
0.62
-2.48
-5.65
-9.12
-13.15
-17.87
-23.27
-28.94
-34.05
-37.35
-37.52
-33.63
-25.51
-13.99
-0.64
12.67
24.33
33.34
39.40
42.69
43.67
42.80
40.53
37.30
33.57
29.83
26.55
24.04
22.38
21.38
20.63
19.64
17.99
15.51
12.26
8.49
4.56
0.72
-2.87
-6.28
-9.67
-13.26
-17.27
-21.85
-27.10
-32.96
-39.18
-45.22
-50.24
-53.19
-53.07
-49.20
-41.51
-30.58
-17.56
-3.82
9.37
21.11
30.89
38.46
43.71
46.59
47.14
45.60
42.48
38.51
34.49
31.08
28.60
27.07
26.17
25.48
24.60
23.28
21.47
19.26
16.76
13.99
10.87
7.27
3.05
-1.83
-7.33
-13.40
-19.91
-26.57
-32.81
-37.71
-40.12
-38.98
-33.72
-24.60
-12.73
0.18
12.36
22.41
29.61
33.91
35.69
35.46
33.69
30.76
27.06
23.07
19.38
16.51
14.75
14.02
13.87
13.68
12.83
10.99
8.16
4.64
0.88
-2.74
-6.01
-8.95
-11.70
-14.47
-17.45
-20.85
-24.87
-29.64
-35.03
-40.49
-44.95
-47.01
-45.44
-39.62
-29.90
-17.53
-4.30
8.05
18.28
25.81
30.62
33.02
33.46
32.36
30.12
27.14
23.80
20.46
17.43
14.91
12.98
11.60
10.60
9.71
8.58
6.93
4.56
1.47
-2.22
-6.24
-10.31
-14.15
-17.56
-20.51
-23.17
-25.88
-29.05
-32.95
-37.55
-42.25
-45.96
-47.26
-44.85
-37.96
-26.73
-12.17
4.02
19.92
33.87
44.74
52.03
55.81
56.55
54.95
51.78
47.70
43.28
38.93
34.88
31.31
28.27
25.74
23.61
21.67
19.66
17.37
14.65
11.46
7.91
4.19
0.47
-3.06
-6.34
-9.41
-12.36
-15.36
-18.57
-22.18
-26.36
-31.13
-36.19
-40.77
-43.73
-43.80
-40.11
-32.55
-21.93
-9.74
2.33
12.89
21.14
26.83
30.05
31.05
30.14
27.74
24.36
20.64
17.17
14.33
12.18
10.54
9.12
7.67
6.07
4.33
2.49
0.56
-1.56
-3.97
-6.83
-10.18
-13.98
-18.05
-22.16
-26.01
-29.36
-32.08
-34.25
-36.11
-38.01
-40.14
-42.35
-44.06
-44.37
-42.33
-37.34
-29.38
-19.06
-7.42
4.36
15.33
24.88
32.70
38.74
43.02
45.65
46.76
46.62
45.51
43.70
41.36
38.51
35.08
31.04
26.46
21.53
16.52
11.62
6.93
2.42
-1.91
-5.98
-9.64
-12.71
-15.15
-17.11
-18.94
-21.06
-23.83
-27.41
-31.68
-36.16
-40.00
-42.15
-41.57
-37.57
-30.11
-19.92
-8.32
3.17
13.22
21.04
26.42
29.58
30.90
30.72
29.30
26.89
23.81
20.49
17.43
15.00
13.41
12.57
12.18
11.85
11.23
10.12
8.46
6.29
3.69
0.77
-2.37
-5.60
-8.78
-11.85
-14.80
-17.74
-20.89
-24.47
-28.68
-33.47
-38.48
-42.98
-45.99
-46.47
-43.66
-37.37
-28.12
-16.98
-5.37
5.42
14.43
21.21
25.77
28.39
29.50
29.55
28.88
27.76
26.37
24.83
23.26
21.77
20.44
19.32
18.35
17.39
16.31
14.98
13.37
11.46
9.18
6.50
3.37
-0.09
-3.65
-7.02
-9.96
-12.44
-14.69
-17.12
-20.21
-24.25
-29.22
-34.59
-39.41
-42.46
-42.59
-39.09
-32.01
-22.15
-10.87
0.31
10.18
17.96
23.39
26.54
27.63
26.98
24.98
22.13
19.02
16.18
13.96
12.47
11.58
11.00
10.41
9.58
8.41
6.91
5.21
3.39
1.48
-0.57
-2.87
-5.48
-8.40
-11.52
-14.69
-17.74
-20.57
-23.20
-25.79
-28.63
-32.02
-36.07
-40.51
-44.60
-47.16
-46.97
-43.14
-35.47
-24.62
-11.83
1.40
13.73
24.22
32.27
37.62
40.18
40.11
37.78
33.82
29.05
24.32
20.27
17.25
15.28
14.09
13.29
12.56
11.67
10.53
9.13
7.42
5.32
2.73
-0.35
-3.78
-7.30
-10.67
-13.73
-16.61
-19.62
-23.18
-27.60
-32.91
-38.71
-44.16
-48.13
-49.47
-47.34
-41.50
-32.39
-21.04
-8.81
3.00
13.39
21.70
27.66
31.24
32.58
32.00
30.01
27.18
24.14
21.37
19.17
17.62
16.59
15.93
15.43
14.92
14.20
13.09
11.45
9.19
6.33
2.95
-0.75
-4.57
-8.30
-11.81
-15.05
-18.13
-21.29
-24.85
-29.13
-34.22
-39.82
-45.14
-49.02
-50.18
-47.64
-41.09
-30.99
-18.56
-5.34
7.18
17.95
26.45
32.59
36.51
38.37
38.40
36.89
34.33
31.31
28.45
26.14
24.49
23.27
22.16
20.85
19.23
17.40
15.51
13.61
11.59
9.19
6.16
2.42
-1.85
-6.29
-10.47
-14.11
-17.22
-20.06
-23.04
-26.58
-30.95
-36.13
-41.66
-46.67
-49.98
-50.39
-47.07
-39.93
-29.67
-17.59
-5.16
6.38
16.25
24.15
30.03
33.89
35.77
35.79
34.28
31.77
28.93
26.35
24.41
23.19
22.55
22.22
21.96
21.63
21.21
20.70
20.08
19.16
17.66
15.30
11.94
7.66
2.80
-2.19
-6.86
-10.94
-14.42
-17.52
-20.64
-24.21
-28.51
-33.53
-38.82
-43.48
-46.32
-46.19
-42.35
-34.80
-24.32
-12.31
-0.32
10.31
18.69
24.48
27.77
28.84
28.11
26.03
23.17
20.12
17.44
15.53
14.51
14.22
14.29
14.33
14.06
13.41
12.47
11.37
10.19
8.85
7.20
5.12
2.58
-0.27
-3.22
-6.10
-8.86
-11.62
-14.59
-18.01
-22.10
-26.87
-32.16
-37.47
-42.00
-44.73
-44.67
-41.17
-34.09
-23.94
-11.75
1.17
13.52
24.25
32.64
38.35
41.36
41.90
40.42
37.53
33.88
30.04
26.41
23.23
20.54
18.28
16.34
14.60
12.94
11.24
9.37
7.23
4.77
1.95
-1.22
-4.62
-8.10
-11.45
-14.47
-17.07
-19.32
-21.54
-24.20
-27.71
-32.24
-37.44
-42.41
-45.83
-46.34
-42.98
-35.58
-24.85
-12.20
0.72
12.47
22.12
29.33
34.15
36.77
37.48
36.54
34.41
31.67
28.94
26.73
25.23
24.29
23.54
22.61
21.32
19.73
18.05
16.46
14.97
13.35
11.30
8.54
5.02
0.94
-3.33
-7.41
-11.01
-14.08
-16.75
-19.37
-22.38
-26.23
-31.08
-36.71
-42.32
-46.65
-48.28
-46.10
-39.72
-29.68
-17.25
-4.10
8.21
18.59
26.52
31.91
34.95
35.89
35.07
32.93
30.07
27.17
24.87
23.55
23.16
23.29
23.32
22.74
21.40
19.50
17.46
15.67
14.24
13.01
11.63
9.80
7.37
4.38
1.00
-2.57
-6.17
-9.68
-13.08
-16.45
-19.99
-23.99
-28.62
-33.75
-38.79
-42.69
-44.23
-42.46
-37.01
-28.36
-17.64
-6.30
4.32
13.29
20.22
25.10
28.11
29.41
29.16
27.56
25.01
22.07
19.37
17.37
16.25
15.78
15.58
15.24
14.51
13.41
12.07
10.65
9.17
7.52
5.50
2.95
-0.18
-3.70
-7.28
-10.56
-13.26
-15.34
-17.02
-18.72
-20.96
-24.11
-28.31
-33.32
-38.51
-42.90
-45.36
-44.91
-41.01
-33.75
-23.95
-12.90
-2.02
7.52
15.04
20.30
23.43
24.70
24.39
22.87
20.55
17.92
15.49
13.62
12.42
11.77
11.38
10.94
10.28
9.37
8.33
7.27
6.19
4.93
3.25
0.92
-2.17
-5.83
-9.68
-13.30
-16.37
-18.86
-21.06
-23.41
-26.37
-30.18
-34.77
-39.66
-44.01
-46.76
-46.88
-43.63
-36.88
-27.20
-15.76
-3.96
6.84
15.75
22.36
26.66
28.86
29.23
28.09
25.84
23.01
20.15
17.72
15.97
14.84
14.08
13.37
12.50
11.38
10.06
8.63
7.12
5.44
3.40
0.83
-2.37
-6.13
-10.21
-14.24
-17.91
-21.03
-23.69
-26.21
-29.09
-32.79
-37.51
-42.97
-48.37
-52.50
-54.01
-51.85
-45.62
-35.75
-23.43
-10.23
2.30
13.03
21.36
27.20
30.78
32.41
32.47
31.35
29.50
27.41
25.49
24.01
23.00
22.24
21.45
20.35
18.91
17.24
15.53
13.90
12.29
10.48
8.17
5.12
1.33
-3.03
-7.58
-11.93
-15.79
-19.13
-22.16
-25.30
-29.02
-33.64
-39.22
-45.34
-51.16
-55.46
-56.94
-54.61
-48.10
-37.85
-25.00
-11.08
2.40
14.32
24.03
31.31
36.19
38.83
39.50
38.60
36.70
34.48
32.51
31.12
30.33
29.83
29.25
28.25
26.72
24.74
22.57
20.47
18.58
16.82
14.90
12.47
9.24
5.17
0.52
-4.23
-8.61
-12.37
-15.61
-18.70
-22.15
-26.38
-31.60
-37.69
-44.24
-50.45
-55.24
-57.32
-55.59
-49.46
-39.20
-25.88
-11.11
3.45
16.49
27.27
35.53
41.23
44.49
45.46
44.49
42.12
39.12
36.25
34.12
32.94
32.56
32.52
32.30
31.50
30.03
28.07
25.98
24.07
22.39
20.71
18.61
15.71
11.86
7.23
2.27
-2.52
-6.78
-10.41
-13.61
-16.76
-20.27
-24.49
-29.59
-35.48
-41.68
-47.29
-51.06
-51.67
-48.13
-40.13
-28.28
-13.97
1.01
14.92
26.54
35.28
41.08
44.24
45.14
44.16
41.76
38.46
34.90
31.70
29.34
28.00
27.50
27.45
27.33
26.79
25.68
24.05
22.10
20.01
17.79
15.32
12.38
8.81
4.63
0.10
-4.37
-8.41
-11.81
-14.63
-17.12
-19.65
-22.59
-26.20
-30.63
-35.80
-41.28
-46.23
-49.46
-49.71
-46.09
-38.42
-27.41
-14.47
-1.28
10.69
20.47
27.64
32.19
34.33
34.34
32.60
29.66
26.21
22.98
20.53
19.08
18.49
18.31
18.06
17.42
16.30
14.86
13.32
11.84
10.39
8.81
6.89
4.45
1.50
-1.85
-5.35
-8.77
-11.94
-14.82
-17.51
-20.27
-23.39
-27.15
-31.66
-36.73
-41.73
-45.65
-47.30
-45.64
-40.17
-31.16
-19.63
-7.07
4.97
15.25
23.06
28.20
30.83
31.29
29.99
27.41
24.12
20.69
17.69
15.50
14.21
13.64
13.39
13.07
12.41
11.38
10.07
8.63
7.07
5.24
2.92
-0.05
-3.66
-7.65
-11.64
-15.30
-18.43
-21.09
-23.56
-26.18
-29.34
-33.27
-37.94
-42.90
-47.21
-49.62
-48.87
-44.22
-35.73
-24.34
-11.56
0.99
12.07
20.96
27.49
31.78
34.08
34.71
33.99
32.35
30.26
28.15
26.30
24.81
23.59
22.44
21.15
19.61
17.85
15.99
14.21
12.55
10.94
9.14
6.85
3.91
0.32
-3.69
-7.75
-11.48
-14.66
-17.31
-19.70
-22.30
-25.59
-29.84
-34.86
-39.90
-43.77
-45.17
-43.07
-37.15
-27.92
-16.56
-4.57
6.63
16.04
23.13
27.84
30.37
31.06
30.31
28.54
26.24
23.88
21.86
20.40
19.53
19.08
18.77
18.34
17.64
16.66
15.48
14.16
12.67
10.87
8.56
5.56
1.91
-2.18
-6.34
-10.16
-13.37
-15.97
-18.19
-20.47
-23.25
-26.87
-31.30
-36.12
-40.43
-43.03
-42.79
-38.97
-31.59
-21.48
-10.08
1.01
10.48
17.60
22.24
24.67
25.33
24.62
22.93
20.64
18.13
15.81
13.97
12.70
11.88
11.28
10.64
9.83
8.85
7.81
6.77
5.65
4.24
2.23
-0.53
-3.96
-7.72
-11.30
-14.32
-16.62
-18.36
-19.93
-21.80
-24.33
-27.71
-31.82
-36.22
-40.08
-42.31
-41.84
-37.97
-30.67
-20.73
-9.51
1.44
10.90
18.17
23.10
25.88
26.86
26.32
24.59
22.03
19.11
16.34
14.13
12.66
11.87
11.52
11.25
10.74
9.80
8.36
6.43
4.07
1.35
-1.68
-4.93
-8.24
-11.42
-14.27
-16.75
-18.93
-21.10
-23.65
-26.95
-31.17
-36.10
-41.06
-44.97
-46.65
-45.08
-39.84
-31.25
-20.32
-8.44
2.94
12.73
20.30
25.49
28.46
29.57
29.21
27.85
25.91
23.78
21.77
20.03
18.64
17.53
16.59
15.74
14.88
13.94
12.85
11.54
9.92
7.88
5.30
2.14
-1.52
-5.45
-9.30
-12.73
-15.58
-18.01
-20.45
-23.47
-27.52
-32.66
-38.34
-43.46
-46.61
-46.50
-42.35
-34.17
-22.83
-9.78
3.33
15.05
24.47
31.25
35.49
37.55
37.81
36.67
34.52
31.84
29.14
26.85
25.17
24.03
23.14
22.18
20.96
19.44
17.76
16.02
14.22
12.26
9.98
7.29
4.21
0.82
-2.71
-6.24
-9.66
-12.91
-15.98
-19.03
-22.30
-26.10
-30.51
-35.18
-39.25
-41.46
-40.54
-35.72
-27.07
-15.59
-2.91
9.24
19.53
27.28
32.45
35.36
36.41
35.91
34.15
31.46
28.35
25.40
23.08
21.60
20.77
20.20
19.46
18.35
16.91
15.37
13.92
12.54
11.00
8.94
6.12
2.58
-1.39
-5.34
-8.87
-11.80
-14.20
-16.41
-18.87
-22.00
-26.08
-31.03
-36.34
-41.06
-43.91
-43.67
-39.54
-31.51
-20.48
-8.01
4.12
14.46
22.18
27.17
29.78
30.52
29.81
27.99
25.30
22.11
18.90
16.17
14.28
13.25
12.86
12.71
12.44
11.85
10.95
9.83
8.53
7.01
5.11
2.68
-0.32
-3.72
-7.26
-10.62
-13.59
-16.20
-18.68
-21.45
-24.93
-29.28
-34.21
-38.93
-42.19
-42.72
-39.61
-32.65
-22.54
-10.60
1.56
12.53
21.35
27.63
31.37
32.82
32.37
30.50
27.77
24.80
22.13
20.07
18.69
17.76
16.93
15.93
14.63
13.10
11.50
9.93
8.36
6.64
4.55
1.94
-1.17
-4.61
-8.11
-11.43
-14.44
-17.19
-19.86
-22.75
-26.20
-30.38
-35.20
-40.08
-44.02
-45.75
-44.15
-38.68
-29.68
-18.29
-6.07
5.46
15.22
22.72
27.90
30.93
32.04
31.48
29.64
27.04
24.28
21.87
20.05
18.79
17.82
16.88
15.79
14.51
13.15
11.80
10.50
9.19
7.69
5.81
3.41
0.43
-3.02
-6.69
-10.30
-13.58
-16.45
-19.04
-21.71
-24.92
-29.00
-34.00
-39.42
-44.24
-47.14
-46.85
-42.59
-34.46
-23.37
-10.88
1.36
12.04
20.44
26.37
30.02
31.71
31.73
30.39
28.10
25.39
22.83
20.86
19.69
19.17
18.92
18.47
17.51
16.01
14.17
12.32
10.69
9.24
7.71
5.70
2.96
-0.50
-4.36
-8.18
-11.58
-14.39
-16.73
-18.92
-21.36
-24.39
-28.23
-32.83
-37.78
-42.25
-45.13
-45.24
-41.77
-34.58
-24.31
-12.27
-0.03
11.05
20.05
26.62
30.84
32.98
33.38
32.38
30.35
27.74
25.01
22.62
20.82
19.65
18.94
18.38
17.66
16.59
15.14
13.45
11.67
9.95
8.28
6.56
4.56
2.07
-0.98
-4.47
-8.14
-11.59
-14.53
-16.91
-18.92
-21.02
-23.71
-27.34
-31.89
-36.85
-41.29
-44.02
-43.99
-40.52
-33.60
-23.93
-12.71
-1.33
8.98
17.38
23.49
27.28
28.90
28.62
26.80
23.94
20.67
17.66
15.42
14.17
13.79
13.86
13.92
13.64
12.96
11.97
10.82
9.56
8.11
6.28
3.94
1.13
-2.03
-5.28
-8.41
-11.30
-13.94
-16.36
-18.70
-21.11
-23.83
-27.11
-31.09
-35.54
-39.82
-42.82
-43.31
-40.37
-33.72
-23.94
-12.31
-0.38
10.42
19.11
25.23
28.77
29.99
29.31
27.24
24.38
21.36
18.73
16.82
15.68
15.08
14.71
14.22
13.46
12.40
11.15
9.78
8.25
6.40
4.02
0.97
-2.67
-6.66
-10.64
-14.29
-17.44
-20.11
-22.52
-25.06
-28.11
-31.97
-36.63
-41.63
-46.01
-48.49
-47.82
-43.27
-34.89
-23.60
-10.88
1.68
12.80
21.71
28.12
32.06
33.72
33.40
31.51
28.64
25.48
22.66
20.57
19.26
18.52
17.96
17.25
16.28
15.12
13.91
12.69
11.33
9.54
7.03
3.65
-0.44
-4.86
-9.11
-12.77
-15.69
-18.02
-20.19
-22.74
-26.14
-30.59
-35.85
-41.20
-45.51
-47.53
-46.18
-40.94
-32.02
-20.36
-7.36
5.45
16.82
25.97
32.59
36.75
38.69
38.78
37.39
34.98
32.06
29.12
26.57
24.59
23.19
22.19
21.34
20.45
19.37
18.07
16.55
14.77
12.63
10.05
6.95
3.44
-0.28
-3.94
-7.33
-10.44
-13.45
-16.66
-20.40
-24.92
-30.23
-36.03
-41.64
-46.08
-48.16
-46.75
-41.27
-31.87
-19.56
-5.93
7.24
18.56
27.24
33.12
36.51
37.80
37.41
35.74
33.23
30.45
28.00
26.23
25.19
24.54
23.76
22.43
20.51
18.29
16.21
14.59
13.36
12.11
10.30
7.51
3.68
-0.90
-5.68
-10.12
-13.89
-16.89
-19.38
-21.81
-24.74
-28.64
-33.57
-39.06
-43.98
-46.87
-46.33
-41.56
-32.74
-20.95
-7.89
4.71
15.51
23.79
29.44
32.66
33.84
33.33
31.57
28.99
26.13
23.46
21.31
19.78
18.73
17.92
17.14
16.26
15.26
14.17
12.93
11.42
9.47
6.94
3.83
0.29
-3.45
-7.16
-10.66
-13.87
-16.88
-19.87
-23.17
-27.07
-31.68
-36.71
-41.30
-44.18
-44.01
-39.88
-31.65
-20.17
-6.95
6.23
17.88
27.03
33.26
36.63
37.42
36.09
33.23
29.58
25.89
22.79
20.60
19.29
18.58
18.10
17.60
16.94
16.14
15.22
14.09
12.60
10.61
8.03
4.93
1.52
-1.94
-5.24
-8.29
-11.10
-13.81
-16.63
-19.80
-23.58
-28.03
-32.85
-37.29
-40.23
-40.46
-37.09
-29.99
-19.85
-8.05
3.82
14.32
22.55
28.11
31.10
31.87
30.90
28.72
25.84
22.74
19.83
17.45
15.73
14.69
14.11
13.72
13.26
12.54
11.47
10.06
8.33
6.25
3.79
0.93
-2.27
-5.65
-8.96
-12.00
-14.67
-17.03
-19.30
-21.87
-25.09
-29.15
-33.81
-38.30
-41.45
-41.99
-39.02
-32.33
-22.58
-11.12
0.43
10.60
18.43
23.62
26.32
27.03
26.26
24.49
22.06
19.25
16.32
13.54
11.18
9.41
8.27
7.60
7.09
6.38
5.21
3.48
1.25
-1.33
-4.09
-6.95
-9.90
-12.96
-16.11
-19.27
-22.36
-25.40
-28.57
-32.18
-36.36
-40.88
-44.95
-47.36
-46.88
-42.73
-34.98
-24.50
-12.80
-1.46
8.26
15.65
20.53
23.05
23.48
22.17
19.53
16.09
12.52
9.38
7.06
5.61
4.80
4.27
3.69
2.86
1.75
0.34
-1.39
-3.55
-6.23
-9.49
-13.26
-17.41
-21.72
-26.02
-30.25
-34.42
-38.65
-43.19
-48.20
-53.65
-59.17
-63.90
-66.69
-66.35
-62.15
-53.94
-42.26
-28.12
-12.66
3.07
18.18
31.92
43.60
52.62
58.60
61.49
61.62
59.60
56.14
51.92
47.47
43.18
39.32
36.05
33.42
31.36
29.65
28.04
26.28
24.19
21.71
18.88
15.86
12.78
9.78
6.87
3.90
0.62
-3.35
-8.30
-14.25
-20.82
-27.11
-31.85
-33.68
-31.60
-25.26
-15.16
-2.47
11.21
24.28
35.43
43.84
49.15
51.41
51.00
48.48
44.52
39.79
34.86
30.14
25.88
22.18
19.11
16.61
14.58
12.81
11.05
9.04
6.60
3.70
0.41
-3.08
-6.57
-9.92
-13.04
-15.96
-18.72
-21.46
-24.40
-27.84
-32.05
-37.04
-42.33
-46.92
-49.41
-48.49
-43.40
-34.27
-22.20
-8.89
3.88
14.71
22.88
28.27
31.21
32.16
31.57
29.79
27.17
24.02
20.73
17.69
15.20
13.40
12.19
11.30
10.40
9.23
7.63
5.55
3.04
0.16
-2.97
-6.20
-9.37
-12.31
-14.96
-17.37
-19.76
-22.48
-25.90
-30.26
-35.43
-40.75
-45.08
-46.96
-45.15
-39.06
-29.07
-16.45
-3.03
9.44
19.68
27.11
31.74
33.95
34.20
32.96
30.61
27.57
24.26
21.15
18.61
16.81
15.72
15.10
14.56
13.72
12.28
10.11
7.23
3.83
0.14
-3.59
-7.19
-10.58
-13.82
-17.05
-20.51
-24.50
-29.27
-34.90
-41.07
-46.90
-51.05
-51.99
-48.58
-40.51
-28.53
-14.25
0.36
13.59
24.34
32.25
37.47
40.33
41.17
40.32
38.10
34.97
31.42
27.97
24.98
22.62
20.81
19.33
17.90
16.26
14.27
11.90
9.27
6.46
3.57
0.60
-2.50
-5.76
-9.18
-12.73
-16.39
-20.32
-24.76
-29.93
-35.79
-41.79
-46.77
-49.25
-47.84
-41.79
-31.35
-17.81
-3.10
10.78
22.31
30.74
36.11
38.92
39.84
39.36
37.82
35.42
32.40
29.08
25.88
23.14
21.02
19.45
18.15
16.76
15.04
12.89
10.37
7.61
4.69
1.63
-1.63
-5.12
-8.74
-12.31
-15.63
-18.66
-21.57
-24.75
-28.63
-33.33
-38.50
-43.11
-45.73
-44.94
-39.88
-30.61
-18.20
-4.43
8.77
19.88
28.11
33.35
35.98
36.53
35.48
33.28
30.37
27.28
24.51
22.44
21.14
20.39
19.81
19.06
18.02
16.72
15.27
13.67
11.79
9.44
6.51
3.08
-0.58
-4.14
-7.31
-10.01
-12.38
-14.69
-17.29
-20.51
-24.55
-29.36
-34.51
-39.11
-41.92
-41.68
-37.58
-29.58
-18.60
-6.24
5.74
15.89
23.42
28.20
30.53
30.86
29.61
27.18
23.99
20.58
17.47
15.09
13.57
12.78
12.39
12.02
11.45
10.55
9.35
7.90
6.20
4.22
1.85
-0.94
-4.06
-7.28
-10.33
-12.96
-15.12
-16.96
-18.84
-21.17
-24.26
-28.08
-32.10
-35.40
-36.84
-35.42
-30.70
-22.95
-13.17
-2.70
7.06
15.08
20.83
24.24
25.54
25.13
23.45
20.93
17.95
14.88
12.04
9.65
7.86
6.74
6.19
6.04
5.98
5.69
4.95
3.66
1.88
-0.25
-2.56
-4.96
-7.37
-9.75
-12.06
-14.28
-16.53
-19.03
-22.06
-25.80
-30.07
-34.22
-37.22
-37.97
-35.71
-30.31
-22.42
-13.20
-3.93
4.37
11.09
16.10
19.50
21.40
21.87
20.98
18.84
15.76
12.23
8.77
5.87
3.81
2.61
2.04
1.73
1.28
0.39
-1.06
-3.00
-5.21
-7.49
-9.70
-11.86
-14.05
-16.40
-19.04
-22.08
-25.59
-29.54
-33.72
-37.62
-40.44
-41.33
-39.59
-34.99
-27.84
-19.01
-9.55
-0.52
7.33
13.59
18.14
21.05
22.45
22.53
21.49
19.60
17.18
14.59
12.16
10.13
8.54
7.32
6.22
5.02
3.56
1.80
-0.21
-2.36
-4.53
-6.66
-8.75
-10.87
-13.20
-15.97
-19.39
-23.53
-28.10
-32.42
-35.50
-36.31
-34.15
-28.91
-21.16
-11.91
-2.31
6.72
14.61
21.10
26.02
29.22
30.49
29.76
27.23
23.42
19.12
15.12
11.95
9.78
8.36
7.25
5.95
4.17
1.89
-0.69
-3.26
-5.60
-7.65
-9.55
-11.55
-13.90
-16.80
-20.36
-24.64
-29.61
-34.94
-39.97
-43.63
-44.73
-42.33
-36.11
-26.61
-15.07
-3.07
7.99
17.18
24.16
29.02
32.01
33.41
33.43
32.20
29.92
26.85
23.40
19.99
17.01
14.64
12.82
11.30
9.71
7.72
5.19
2.18
-1.12
-4.51
-7.84
-11.05
-14.17
-17.25
-20.35
-23.53
-26.94
-30.76
-35.15
-40.01
-44.83
-48.62
-50.09
-48.02
-41.76
-31.50
-18.35
-4.01
9.78
21.67
30.95
37.49
41.47
43.19
42.95
41.08
38.08
34.57
31.19
28.42
26.43
25.09
24.07
23.07
21.93
20.68
19.39
18.09
16.62
14.68
11.99
8.47
4.26
-0.24
-4.63
-8.63
-12.22
-15.63
-19.23
-23.36
-28.27
-33.87
-39.61
-44.46
-47.11
-46.22
-41.02
-31.55
-18.81
-4.42
9.86
22.64
33.09
40.94
46.19
49.00
49.58
48.28
45.65
42.37
39.11
36.37
34.28
32.70
31.30
29.78
27.97
25.97
23.93
22.01
20.23
18.40
16.27
13.57
10.22
6.29
2.03
-2.25
-6.26
-9.80
-12.83
-15.50
-18.12
-21.15
-25.02
-29.89
-35.40
-40.66
-44.35
-45.09
-41.94
-34.71
-24.05
-11.30
1.92
14.12
24.30
31.96
37.04
39.71
40.28
39.10
36.64
33.45
30.16
27.30
25.19
23.85
23.04
22.38
21.54
20.36
18.89
17.30
15.73
14.22
12.61
10.65
8.10
4.85
1.04
-3.02
-6.89
-10.20
-12.81
-14.80
-16.55
-18.55
-21.28
-25.02
-29.70
-34.75
-39.19
-41.83
-41.55
-37.73
-30.42
-20.41
-8.94
2.55
12.85
21.13
26.97
30.30
31.27
30.21
27.63
24.20
20.63
17.57
15.40
14.16
13.63
13.36
12.98
12.27
11.25
10.11
9.09
