1529684100.00
64.000000
-0.00
-0.00
-0.00
-0.00
-0.00
-0.00
-0.00
-0.00
-0.00
-0.00
0.00
0.01
0.01
-0.00
-0.03
-0.05
-0.05
0.00
0.13
0.36
0.66
1.01
1.37
1.72
2.06
2.40
2.79
3.24
3.80
4.42
5.06
5.66
6.20
6.68
7.15
7.68
8.31
9.14
10.09
11.04
11.88
12.56
13.14
13.76
14.65
15.96
17.91
20.32
22.90
25.38
27.58
29.57
31.68
34.32
37.81
42.54
48.15
54.10
59.83
64.97
69.58
74.14
79.34
85.71
93.76
103.00
112.62
121.73
129.77
136.75
143.30
150.75
157.77
166.64
177.95
191.79
206.97
220.57
228.25
225.36
208.53
176.87
132.76
80.05
23.07
-34.94
-92.44
-149.16
-205.23
-260.37
-313.74
-363.87
-409.83
-450.91
-486.50
-515.74
-537.23
-549.22
-549.96
-538.37
-514.21
-478.67
-433.88
-382.45
-327.02
-269.84
-212.63
-156.66
-102.95
-52.37
-5.91
35.58
71.42
101.35
125.50
144.38
158.71
169.18
176.42
180.83
182.69
182.23
179.72
175.50
169.98
163.57
156.60
149.32
141.87
134.30
126.66
118.99
111.36
103.85
96.55
89.49
82.68
76.09
69.72
63.57
57.69
52.14
47.00
42.29
38.01
34.10
30.46
27.05
23.83
20.84
18.17
15.88
14.01
12.52
11.30
10.20
9.10
7.95
6.85
5.96
5.47
5.45
5.80
6.24
6.43
6.06
5.10
3.80
2.63
2.11
2.47
3.54
4.75
5.31
4.58
2.37
-0.95
-4.64
-8.01
-10.87
-13.74
-17.77
-24.31
-34.32
-47.63
-62.99
-78.35
-91.74
-101.77
-108.03
-111.06
-111.77
-111.15
-110.00
-109.07
-108.84
-108.41
-105.79
-97.22
-78.67
-48.22
-7.99
36.02
75.77
104.54
119.50
122.34
117.63
110.10
103.01
96.50
89.80
82.51
75.30
69.47
65.88
64.40
63.80
62.58
59.54
54.73
49.10
44.09
40.73
39.22
38.96
38.87
38.00
35.95
33.18
30.60
29.21
29.37
30.72
32.53
33.67
33.46
31.83
29.48
27.72
28.28
32.09
38.56
45.10
47.97
43.92
32.25
16.19
1.16
-6.58
-3.01
12.14
35.16
59.57
77.91
84.05
74.74
50.00
15.37
-21.54
-53.00
-73.91
-83.21
-83.58
-79.84
-76.19
-75.03
-77.05
-81.32
-85.34
-85.15
-76.07
-54.79
-21.89
16.64
50.68
70.09
69.05
49.07
18.10
-13.33
-36.97
-49.70
-53.30
-51.66
-47.87
-42.91
-36.12
-27.02
-16.44
-6.54
0.85
4.22
4.39
3.70
4.83
9.41
17.11
25.97
33.27
36.76
35.52
30.35
22.70
14.89
8.39
3.49
-0.39
-4.50
-9.84
-16.90
-24.43
-32.04
-38.80
-44.02
-47.39
-48.86
-48.85
-47.85
-46.51
-45.29
-44.64
-44.58
-44.93
-45.93
-46.18
-44.86
-41.58
-36.75
-31.20
-26.10
-22.32
-20.15
-19.19
-18.36
-17.02
-14.88
-12.76
-11.93
-13.79
-19.37
-29.39
-44.15
-63.16
-84.69
-103.72
-115.38
-114.56
-98.56
-69.02
-32.05
4.05
32.24
49.41
57.13
60.00
62.56
67.21
73.80
80.64
86.01
89.59
92.37
95.87
100.91
107.48
114.69
121.15
125.59
127.39
127.00
125.71
125.08
126.15
129.48
135.24
143.70
154.90
168.31
182.46
194.26
199.11
192.26
171.59
138.69
99.24
59.89
26.28
1.93
-12.64
-19.25
-21.31
-21.54
-22.61
-26.51
-33.63
-45.18
-61.23
-80.75
-101.92
-123.72
-144.64
-164.24
-181.68
-198.29
-215.46
-233.26
-250.91
-267.15
-282.28
-295.99
-308.96
-304.41
-271.96
-212.04
-135.74
-57.80
11.03
57.36
82.20
87.14
74.55
44.91
-0.94
-56.26
-113.41
-155.94
-171.53
-156.28
-120.18
-80.73
-56.57
-57.52
-80.55
-112.52
-136.28
-140.01
-120.03
-82.39
-37.14
4.89
37.06
58.37
71.53
80.39
86.32
89.12
87.31
81.89
75.95
74.26
81.26
98.53
123.97
151.88
176.33
190.53
194.21
190.66
184.81
181.00
181.63
186.92
194.89
202.03
203.70
195.66
174.67
140.42
96.52
49.94
8.75
-21.13
-37.97
-44.38
-44.86
-43.69
-42.74
-41.54
-38.66
-33.41
-26.67
-20.38
-16.41
-15.19
-16.04
-17.37
-17.47
-15.48
-11.59
-6.88
-2.92
-1.21
-2.62
-7.54
-15.25
-24.64
-34.45
-43.73
-52.18
-60.01
-67.83
-75.55
-83.74
-92.35
-101.30
-110.68
-120.46
-129.65
-135.74
-135.01
-124.00
-101.71
-70.60
-36.43
-6.10
15.15
25.69
27.49
24.41
20.00
15.83
11.76
7.05
1.48
-4.13
-8.54
-10.97
-11.74
-11.98
-13.09
-15.95
-20.29
-24.96
-28.35
-29.08
-26.53
-20.95
-13.19
-4.38
4.62
13.53
22.47
31.80
41.68
51.85
61.01
68.56
73.86
76.60
76.93
75.33
72.54
69.20
65.66
62.32
58.85
54.93
50.38
45.50
40.11
34.36
28.44
22.45
16.49
10.64
5.01
-0.27
-5.08
-9.32
-12.88
-15.72
-17.90
-19.50
-20.63
-21.39
-21.83
-22.05
-22.12
-22.07
-21.93
-21.79
-21.71
-21.76
-21.92
-22.14
-22.38
-22.68
-22.93
-23.18
-23.56
-24.25
-25.34
-26.84
-28.62
-30.52
-32.48
-34.22
-35.78
-37.36
-39.24
-41.54
-44.17
-46.79
-49.00
-50.62
-51.23
-51.02
-50.54
-50.43
-51.05
-52.31
-53.66
-54.36
-53.87
-51.45
-47.15
-41.44
-34.88
-27.58
-18.89
-7.30
9.65
30.18
54.54
82.98
115.12
149.34
182.40
209.85
227.16
231.29
221.92
202.35
177.56
152.47
130.42
112.49
97.97
85.58
74.36
64.06
55.29
48.30
42.68
37.56
32.18
26.24
20.09
14.50
10.08
7.28
5.79
4.74
3.21
0.57
-3.18
-7.51
-11.64
-14.97
-17.21
-18.62
-19.82
-21.40
-23.62
-26.35
-29.20
-31.80
-33.93
-35.59
-36.86
-37.83
-38.48
-38.79
-38.75
-38.40
-37.84
-37.07
-36.04
-34.64
-32.82
-30.68
-28.44
-26.38
-24.69
-23.39
-22.36
-21.38
-20.31
-19.09
-17.86
-16.80
-16.08
-15.74
-15.66
-15.64
-15.54
-15.30
-14.99
-14.67
-14.27
-13.62
-12.50
-10.83
-8.73
-6.51
-4.56
-3.12
-2.27
-2.06
-2.63
-4.25
-7.15
-11.27
-16.03
-20.43
-23.40
-24.27
-23.07
-20.50
-17.57
-15.16
-13.65
-12.92
-12.51
-12.01
-11.23
-10.27
-9.38
-8.73
-8.38
-8.26
-8.26
-8.33
-8.46
-8.51
-8.16
-6.79
-3.79
1.12
7.55
14.33
19.89
22.87
22.70
19.80
15.34
10.58
6.36
2.87
-0.21
-3.22
-6.25
-9.03
-11.12
-12.20
-12.27
-11.59
-10.55
-9.53
-8.77
-8.42
-8.60
-9.35
-10.66
-12.36
-14.10
-15.47
-16.10
-15.76
-14.39
-12.18
-9.50
-6.79
-4.44
-2.72
-1.66
-1.04
-0.43
0.57
2.25
4.54
7.02
9.13
10.32
10.34
9.33
7.68
5.87
4.27
3.08
2.32
1.98
2.01
2.41
3.07
3.79
4.29
4.30
3.75
2.78
1.75
1.11
1.22
2.21
3.93
5.94
7.69
8.70
8.78
8.06
6.98
6.03
5.59
5.76
6.33
6.96
7.35
7.42
7.20
6.79
6.22
5.51
4.64
3.61
2.51
1.55
1.01
1.00
1.45
2.09
2.69
3.16
3.46
3.66
4.00
4.67
5.67
6.70
7.32
7.14
6.00
3.76
0.46
-3.60
-7.89
-11.78
-14.65
-16.02
-15.56
-12.14
-5.83
1.67
7.82
10.86
10.38
7.74
4.50
1.82
0.11
-0.72
-1.43
-2.84
-5.41
-9.07
-13.15
-16.76
-19.03
-19.51
-18.48
-16.62
-14.53
-12.37
-10.01
-7.26
-4.12
-0.91
1.73
2.79
1.41
-2.62
-8.78
-16.03
-23.13
-28.98
-32.69
-33.96
-33.00
-30.09
-25.05
-17.37
-6.78
6.28
20.61
34.69
46.75
55.33
59.83
60.94
60.21
59.27
59.41
61.55
66.50
74.23
83.45
91.69
95.79
92.43
78.85
53.88
17.74
-23.78
-61.14
-86.37
-97.35
-97.23
-90.95
-82.36
-73.26
-63.85
-53.67
-43.11
-33.60
-26.71
-23.03
-21.89
-21.88
-21.49
-19.68
-16.04
-11.17
-6.47
-3.25
-2.03
-2.33
-3.16
-3.51
-2.73
-0.60
2.38
5.26
7.14
7.73
7.35
6.72
6.51
7.13
8.62
10.52
12.13
12.86
12.60
11.69
10.82
10.62
11.36
12.87
14.45
15.28
14.71
12.62
9.38
5.83
2.69
0.05
-2.33
-5.30
-9.78
-16.36
-24.88
-34.52
-43.79
-51.48
-56.87
-60.05
-61.80
-63.02
-64.72
-67.92
-73.58
-81.72
-90.99
-98.17
-98.79
-88.83
-66.76
-35.07
0.62
31.68
52.31
61.04
60.65
56.62
53.05
51.95
52.98
54.63
55.62
55.94
56.02
55.92
54.79
51.73
46.34
39.28
32.50
28.31
28.40
32.75
39.70
46.71
52.25
55.79
57.62
58.27
57.68
55.29
50.51
43.65
36.67
33.80
39.41
55.91
82.07
112.53
139.21
153.67
150.13
122.06
70.85
3.84
-68.00
-132.90
-180.82
-205.22
-204.02
-179.76
-138.96
-89.95
-41.86
-2.47
23.73
36.10
37.12
30.75
20.81
10.12
1.06
-4.95
-7.25
-6.09
-2.70
0.66
1.48
-1.89
-9.42
-18.85
-26.86
-30.51
-28.52
-21.79
-13.17
-6.41
-4.88
-10.48
-22.66
-38.72
-54.71
-66.58
-71.84
-70.80
-66.92
-66.07
-75.04
-99.57
-142.60
-202.93
-274.66
-347.78
-410.19
-450.66
-462.02
-443.21
-399.22
-338.92
-271.81
-205.24
-143.14
-86.69
-35.59
10.72
52.85
91.87
129.72
168.49
209.19
250.58
289.03
319.90
339.28
345.81
341.22
329.38
314.61
300.10
287.02
274.91
262.51
248.74
233.27
216.50
199.22
182.19
165.98
150.87
136.90
123.93
111.70
99.92
88.30
76.65
64.89
53.15
41.71
30.98
21.34
12.94
5.68
-0.82
-7.02
-13.26
-19.60
-25.81
-31.52
-36.35
-40.15
-42.95
-44.97
-46.45
-47.56
-48.42
-49.09
-49.64
-50.11
-50.51
-50.74
-50.62
-49.91
-48.46
-46.24
-43.44
-40.37
-37.43
-34.84
-32.64
-30.70
-28.79
-26.79
-24.69
-22.58
-20.54
-18.49
-16.21
-13.40
-9.86
-5.63
-0.96
3.79
8.24
12.13
15.26
17.52
18.88
19.41
19.29
18.79
18.15
17.53
16.93
16.27
15.40
14.24
12.79
11.13
9.39
7.70
6.28
5.31
4.99
5.40
6.47
7.93
9.42
10.58
11.30
11.78
12.46
13.84
16.02
18.54
20.42
20.53
18.08
13.08
6.33
-0.91
-7.42
-12.46
-15.88
-17.93
-18.96
-19.23
-18.91
-18.17
-17.32
-16.74
-16.75
-17.48
-18.89
-20.91
-23.56
-27.05
-31.66
-37.53
-44.51
-52.07
-59.40
-65.60
-69.81
-71.40
-70.07
-65.91
-59.41
-51.41
-42.89
-34.75
-27.65
-21.89
-17.48
-14.23
-11.82
-9.92
-8.19
-6.33
-4.09
-1.34
1.94
5.64
9.54
13.34
16.70
19.35
21.10
21.90
21.83
21.04
19.63
17.59
14.84
11.37
7.31
2.97
-1.32
-5.36
-9.25
-13.25
-17.61
-22.25
-26.65
-30.01
-31.57
-30.99
-28.50
-24.80
-20.75
-17.02
-13.96
-11.58
-9.79
-8.54
-7.89
-7.84
-8.27
-8.86
-9.19
-8.95
-8.07
-6.77
-5.38
-4.20
-3.32
-2.60
-1.87
-1.06
-0.31
0.08
-0.14
-1.05
-2.51
-4.21
-5.79
-6.97
-7.58
-7.53
-6.88
-5.82
-4.69
-3.90
-3.75
-4.28
-5.16
-5.82
-5.60
-4.03
-1.01
3.14
7.87
12.53
16.63
19.94
22.45
24.27
25.56
26.37
26.67
26.43
25.69
24.66
23.63
22.93
22.76
23.14
23.91
24.83
25.65
26.22
26.45
26.34
25.90
25.13
24.00
22.45
20.42
17.92
15.04
11.99
9.04
6.51
4.67
3.74
3.78
4.66
6.11
7.71
9.01
9.62
9.23
7.67
4.84
0.77
-4.38
-10.32
-16.67
-22.97
-28.88
-34.08
-38.39
-41.66
-43.84
-44.99
-45.31
-45.21
-45.08
-45.20
-45.52
-45.73
-45.43
-44.34
-42.54
-40.41
-38.55
-37.51
-37.63
-38.91
-41.00
-43.22
-44.69
-44.53
-42.05
-36.96
-29.46
-20.18
-9.98
0.26
9.89
18.58
26.22
32.88
38.60
43.34
46.98
49.41
50.61
50.65
49.68
47.74
44.75
40.47
34.65
27.25
18.59
9.53
1.29
-4.77
-7.56
-6.66
-2.51
3.73
10.52
16.48
20.77
23.20
24.04
23.78
22.83
21.55
20.21
19.19
18.85
19.48
21.13
23.55
26.31
28.95
31.13
32.63
33.41
33.47
32.81
31.46
29.44
26.85
23.78
20.35
16.66
12.83
8.92
5.02
1.17
-2.59
-6.29
-9.96
-13.58
-17.09
-20.39
-23.36
-25.96
-28.23
-30.34
-32.47
-34.74
-37.15
-39.51
-41.58
-43.15
-44.18
-44.82
-45.35
-46.03
-46.89
-47.66
-47.79
-46.66
-43.83
-39.24
-33.31
-26.80
-20.65
-15.70
-12.51
-11.19
-11.39
-12.35
-13.14
-13.06
-11.95
-10.29
-8.99
-9.04
-10.98
-14.75
-19.72
-25.12
-30.40
-35.41
-40.38
-45.65
-51.41
-57.63
-63.90
-69.35
-72.67
-72.27
-66.77
-55.63
-39.57
-20.64
-1.60
14.84
26.84
33.73
35.81
33.93
29.07
22.12
13.93
5.37
-2.67
-9.45
-14.48
-17.63
-19.07
-19.11
-18.08
-16.21
-13.56
-10.15
-6.07
-1.56
2.94
6.87
9.69
11.02
10.69
8.80
5.69
2.02
-1.31
-3.39
-3.61
-2.02
0.62
3.14
4.49
4.20
2.54
0.19
-2.15
-4.14
-5.79
-7.31
-8.83
-10.36
-11.88
-13.54
-15.60
-18.35
-21.81
-25.59
-28.98
-31.09
-31.13
-28.55
-23.16
-15.09
-4.74
7.27
20.16
33.06
45.08
55.42
63.51
69.10
72.27
73.34
72.75
70.98
68.58
66.17
64.46
64.02
65.07
67.39
70.29
72.91
74.47
74.56
73.09
70.25
66.32
61.57
56.24
50.40
44.12
37.48
30.71
24.15
18.13
12.71
7.54
1.95
-4.73
-12.72
-21.56
-30.17
-37.33
-42.17
-44.50
-44.68
-43.31
-40.87
-37.61
-33.62
-29.02
-24.02
-18.97
-14.14
-9.73
-5.69
-1.83
2.08
6.24
10.70
15.41
20.17
24.72
28.65
31.52
32.90
32.63
30.91
28.29
25.51
23.15
21.34
19.73
17.75
14.94
11.30
7.23
3.33
-0.01
-2.75
-5.16
-7.61
-10.40
-13.62
-17.10
-20.46
-23.16
-24.62
-24.37
-22.22
-18.45
-13.65
-8.57
-3.84
0.14
3.11
4.86
5.15
3.86
1.23
-2.10
-5.19
-7.20
-7.78
-7.12
-5.84
-4.54
-3.56
-2.88
-2.26
-1.53
-0.70
0.07
0.63
0.94
1.05
1.01
0.80
0.27
-0.70
-2.16
-4.02
-6.06
-8.02
-9.52
-10.11
-9.35
-6.90
-2.72
2.89
9.32
15.87
21.92
27.05
31.07
33.91
35.54
36.02
35.51
34.28
32.68
31.04
29.50
28.05
26.50
24.68
22.48
19.93
17.14
14.28
11.49
8.80
6.17
3.39
0.27
-3.36
-7.57
-12.32
-17.37
-22.29
-26.44
-29.27
-30.54
-30.56
-30.14
-30.27
-31.61
-34.10
-36.84
-38.45
-37.68
-34.01
-27.84
-20.32
-12.79
-6.26
-1.11
2.86
6.17
9.31
12.45
15.40
17.68
18.70
18.12
15.96
12.67
9.00
5.72
3.31
1.82
0.85
-0.14
-1.53
-3.35
-5.23
-6.61
-7.06
-6.51
-5.29
-4.01
-3.41
-4.10
-6.37
-10.07
-14.64
-19.11
-22.28
-23.05
-20.75
-15.47
-8.04
0.19
7.91
14.35
19.52
24.01
28.47
33.03
37.11
39.64
39.50
36.17
30.00
22.26
14.82
9.57
7.92
10.35
16.34
24.57
33.36
41.15
46.75
49.47
48.98
45.21
38.45
29.34
18.92
8.43
-1.02
-8.78
-14.73
-19.09
-22.14
-23.92
-24.30
-23.05
-20.05
-15.37
-9.39
-2.72
3.76
8.97
11.85
11.66
8.29
2.36
-4.97
-12.40
-18.93
-24.10
-27.90
-30.38
-31.42
-30.70
-27.87
-23.09
-17.24
-11.79
-8.29
-7.60
-9.36
-11.99
-13.31
-11.40
-5.35
4.35
16.11
27.72
36.97
42.08
41.92
36.19
25.55
11.56
-3.59
-17.54
-28.35
-34.96
-37.21
-35.74
-31.54
-25.73
-19.39
-13.48
-8.59
-4.84
-1.77
1.41
5.31
10.05
15.05
19.36
22.16
23.18
22.78
21.64
20.51
19.75
19.38
19.11
18.62
17.83
16.95
16.34
16.28
16.69
17.03
16.55
14.65
11.25
6.77
1.86
-3.16
-8.55
-14.92
-22.68
-31.39
-39.71
-45.93
-48.72
-47.86
-44.17
-39.10
-33.93
-29.31
-25.30
-21.68
-18.43
-15.76
-14.02
-13.40
-13.77
-14.82
-16.32
-18.14
-20.20
-22.22
-23.48
-23.06
-20.18
-14.62
-7.00
1.37
8.89
14.18
16.38
15.27
11.13
4.58
-3.57
-12.49
-21.41
-29.70
-36.88
-42.54
-46.22
-47.36
-45.35
-39.82
-30.81
-18.83
-4.86
9.84
23.87
35.78
44.32
48.62
48.43
44.31
37.44
29.20
20.74
12.66
5.05
-2.11
-8.69
-14.06
-17.16
-16.83
-12.22
-3.24
9.15
23.03
36.01
45.82
50.98
51.14
47.02
40.02
31.66
23.11
14.96
7.38
0.31
-6.37
-12.67
-18.53
-23.85
-28.50
-32.32
-35.09
-36.46
-35.92
-32.89
-26.98
-18.25
-7.40
4.20
14.85
22.94
27.45
28.20
25.82
21.47
16.43
11.63
7.52
4.03
0.80
-2.63
-6.59
-11.27
-16.63
-22.31
-27.28
-29.83
-27.88
-19.80
-5.44
13.22
32.26
47.10
54.11
51.99
42.06
27.46
11.62
-3.09
-15.78
-26.66
-36.09
-43.95
-49.62
-52.49
-52.52
-50.49
-47.65
-45.13
-43.41
-42.16
-40.53
-37.68
-33.19
-27.34
-20.85
-14.63
-9.27
-4.84
-0.95
3.03
7.58
12.80
18.34
23.58
27.95
31.05
32.82
33.52
33.63
33.71
34.16
34.97
35.62
35.16
32.62
27.59
20.52
12.55
4.88
-1.90
-8.10
-14.66
-22.40
-31.39
-40.71
-48.96
-54.85
-57.74
-57.64
-54.95
-50.03
-43.09
-34.40
-24.51
-14.50
-5.66
0.87
4.58
5.73
5.09
3.58
1.79
-0.03
-1.91
-3.80
-5.44
-6.42
-6.45
-5.61
-4.47
-3.71
-3.78
-4.57
-5.48
-5.80
-5.15
-3.70
-2.05
-0.85
-0.48
-0.86
-1.51
-1.72
-0.79
1.79
6.20
12.18
19.10
26.14
32.62
38.31
43.47
48.56
53.88
59.17
63.75
66.93
68.62
69.63
71.60
76.33
85.00
97.36
111.46
123.92
130.76
128.67
116.18
94.35
66.57
37.54
11.73
-7.96
-20.88
-28.33
-32.78
-36.84
-42.61
-51.34
-63.34
-77.81
-92.80
-105.39
-112.30
-111.02
-100.78
-83.27
-62.19
-42.01
-26.31
-16.61
-12.12
-10.52
-9.33
-7.14
-4.06
-1.35
-0.56
-2.58
-7.29
-13.81
-21.01
-27.99
-34.05
-38.53
-40.66
-39.92
-36.61
-32.24
-29.07
-29.20
-33.52
-41.13
-49.88
-57.38
-62.14
-64.11
-64.36
-64.32
-64.92
-66.28
-67.69
-67.85
-65.28
-58.65
-47.16
-30.98
-11.35
9.64
29.54
46.30
58.65
66.18
69.18
68.33
64.50
58.56
51.31
43.40
35.32
27.42
20.03
13.49
8.20
4.52
2.69
2.81
4.75
8.23
12.74
17.66
22.30
26.13
28.89
30.75
32.18
33.73
35.76
38.18
40.43
41.71
41.26
38.81
34.81
30.34
26.77
25.27
26.29
29.47
33.76
37.90
40.87
42.13
41.64
39.65
36.45
32.24
27.23
21.66
15.99
10.76
6.51
3.61
2.06
1.55
1.56
1.57
1.21
0.39
-0.75
-1.97
-3.08
-4.11
-5.19
-6.47
-7.98
-9.51
-10.71
-11.27
-11.09
-10.37
-9.52
-8.87
-8.50
-8.04
-6.90
-4.53
-0.73
4.25
9.79
15.24
20.12
24.26
27.70
30.57
32.93
34.76
36.01
36.66
36.70
36.12
34.92
33.11
30.78
28.09
25.21
22.22
19.05
15.56
11.62
7.24
2.62
-1.86
-5.73
-8.52
-9.90
-9.76
-8.31
-6.06
-3.77
-2.13
-1.52
-1.72
-1.97
-1.30
1.04
5.12
10.11
14.55
16.86
15.92
11.52
4.37
-4.10
-12.37
-19.38
-24.86
-29.51
-34.59
-41.39
-50.46
-61.07
-71.24
-78.41
-80.58
-77.27
-69.85
-61.11
-54.13
-51.20
-53.15
-59.30
-67.95
-76.87
-83.73
-86.38
-83.26
-73.81
-58.86
-40.60
-21.92
-5.55
6.77
14.60
18.54
19.76
19.56
19.15
19.58
21.69
25.90
32.00
39.15
46.10
51.71
55.42
57.40
58.43
59.46
61.16
63.69
66.68
69.38
71.07
71.45
70.80
69.85
69.45
70.30
72.67
76.41
80.96
85.63
89.83
93.05
94.89
94.97
93.06
89.12
83.27
75.48
65.55
53.13
37.95
20.04
0.08
-20.35
-38.89
-52.88
-60.88
-62.60
-58.84
-51.07
-41.17
-31.13
-22.53
-16.28
-12.69
-13.00
-18.17
-28.12
-41.27
-55.12
-67.24
-75.76
-79.64
-78.82
-76.36
-75.73
-79.06
-86.11
-95.31
-105.22
-114.87
-123.50
-130.12
-136.42
-144.21
-154.58
-167.61
-183.50
-203.42
-228.39
-258.18
-272.91
-257.01
-207.51
-137.42
-65.16
-3.20
44.39
79.46
105.87
127.16
142.69
150.74
150.84
145.19
137.48
130.73
127.00
126.88
129.96
133.01
132.79
127.74
118.78
108.20
97.13
87.04
78.32
70.74
62.40
51.63
37.92
22.31
8.71
-2.26
-10.31
-15.72
-19.00
-21.34
-23.64
-26.09
-28.19
-29.24
-29.36
-28.79
-28.18
-28.17
-29.17
-31.05
-33.11
-34.41
-34.34
-33.31
-32.11
-31.84
-33.33
-36.62
-40.89
-44.81
-47.27
-47.71
-46.72
-45.31
-44.67
-45.75
-49.19
-55.37
-64.06
-73.92
-81.93
-83.87
-75.71
-55.73
-25.98
7.89
38.76
60.89
72.15
74.24
71.07
66.38
62.10
58.19
53.84
48.76
43.65
39.81
38.07
38.17
38.84
38.61
36.38
32.22
27.13
22.53
19.53
18.45
18.68
19.07
18.54
16.59
13.53
10.28
7.82
6.70
6.73
7.11
6.89
5.49
3.08
0.50
-1.19
-1.32
-0.03
1.73
2.64
1.67
-1.25
-5.12
-8.29
-9.22
-7.40
-3.63
0.18
2.08
0.96
-2.76
-7.18
-9.79
-8.47
-2.10
9.26
24.57
41.87
58.15
69.59
72.30
63.58
43.54
15.50
-14.96
-42.13
-62.63
-76.71
-87.61
-99.07
-112.55
-125.64
-132.93
-128.83
-110.80
-81.08
-46.00
-13.13
11.95
27.60
36.15
41.65
47.31
54.06
60.75
65.78
68.83
71.49
76.46
85.78
99.53
115.73
131.28
143.37
150.84
154.52
156.89
160.98
169.42
183.39
202.09
222.61
240.53
250.84
249.60
235.36
209.68
176.53
140.92
107.27
78.44
55.59
38.50
26.29
18.28
13.87
12.18
11.81
10.81
6.96
0.34
-9.01
-21.36
-36.43
-53.68
-72.46
-92.13
-112.15
-132.12
-151.66
-170.64
-189.98
-210.25
-231.47
-253.13
-274.29
-293.91
-311.27
-326.04
-338.61
-350.99
-364.74
-380.40
-397.32
-413.70
-427.21
-435.78
-438.02
-423.23
-384.86
-320.89
-235.06
-136.07
-34.23
61.86
146.81
218.20
274.91
315.52
339.76
348.96
345.67
333.61
316.81
298.37
279.91
260.42
236.99
207.21
170.66
128.45
83.26
38.50
-3.24
-36.78
-61.48
-79.78
-95.21
-110.62
-128.03
-146.84
-162.89
-169.49
-158.81
-125.89
-70.38
-0.11
77.68
153.13
215.91
258.11
275.68
270.24
246.87
213.31
177.90
147.76
126.10
112.21
102.72
92.43
77.47
54.01
19.51
-27.11
-85.70
-153.65
-228.38
-303.08
-371.69
-428.02
-470.09
-499.54
-519.89
-533.53
-539.74
-533.99
-509.33
-468.28
-408.27
-331.11
-243.13
-152.46
-65.45
15.24
90.64
164.18
235.18
301.37
357.76
399.54
424.41
433.22
429.10
415.56
395.37
369.81
340.60
308.81
275.77
243.35
213.55
187.81
166.46
148.66
132.56
117.20
101.77
86.18
71.09
57.47
46.11
37.14
30.03
23.73
17.65
11.38
4.94
-1.30
-6.80
-11.18
-14.38
-16.66
-18.51
-20.19
-21.86
-23.47
-24.86
-25.85
-26.33
-26.35
-26.01
-25.46
-24.87
-24.21
-23.47
-22.58
-21.54
-20.37
-19.16
-17.95
-16.78
-15.68
-14.56
-13.36
-12.05
-10.66
-9.29
-8.07
-7.06
-5.94
-4.85
-3.68
-2.24
-0.48
1.55
3.61
5.37
6.63
7.36
7.65
7.88
8.34
9.19
10.28
11.46
12.01
11.53
10.03
7.90
5.87
4.65
4.63
5.70
7.32
8.77
9.60
9.76
9.64
9.94
11.32
14.25
18.99
25.55
33.36
41.03
46.26
46.39
39.50
25.57
6.97
-12.22
-27.74
-36.98
-39.78
-38.11
-34.74
-31.78
-29.78
-27.83
-24.56
-19.02
-11.33
-2.73
4.88
9.47
9.57
4.84
-3.85
-14.88
-26.76
-38.58
-50.25
-61.98
-73.82
-85.29
-95.62
-104.44
-112.23
-119.76
-126.94
-131.72
-130.46
-119.51
-97.54
-66.99
-34.27
-7.95
4.10
-2.97
-29.30
-68.88
-111.27
-144.34
-157.88
-146.62
-111.59
-59.06
1.92
62.22
114.19
151.52
170.04
168.77
150.87
123.68
97.31
81.24
80.13
91.20
104.16
107.35
93.92
65.73
32.15
5.56
-4.19
6.45
34.89
71.07
102.64
120.82
125.75
123.62
120.20
117.10
112.79
109.51
107.14
109.00
120.00
143.29
177.50
216.87
253.84
277.49
282.45
268.13
239.62
204.88
171.53
143.85
121.88
102.64
82.21
58.67
32.06
5.47
-16.57
-30.07
-33.25
-26.93
-13.83
2.55
19.48
34.10
44.20
47.90
43.79
31.29
10.86
-15.98
-47.07
-79.30
-109.11
-132.11
-143.87
-141.56
-125.64
-100.72
-74.45
-54.94
-47.74
-54.51
-73.23
-99.87
-130.78
-163.60
-197.41
-231.88
-266.64
-301.48
-337.22
-376.33
-422.19
-477.00
-539.05
-601.32
-652.53
-680.70
-677.98
-644.03
-586.17
-516.33
-446.08
-382.46
-326.75
-275.71
-224.62
-169.77
-109.71
-45.74
17.93
74.10
113.63
128.22
114.29
76.17
25.91
-20.40
-48.65
-51.94
-32.09
2.96
44.11
85.43
125.40
165.42
207.06
250.32
293.85
336.20
376.71
415.04
450.13
479.23
498.35
503.89
494.27
470.88
437.63
399.46
360.94
325.43
295.03
270.76
252.57
239.18
228.05
215.85
199.38
176.53
146.58
110.07
68.32
23.07
-23.68
-69.76
-113.05
-152.00
-186.04
-215.58
-241.50
-264.14
-282.72
-295.40
-300.43
-297.44
-287.97
-274.78
-260.17
-244.13
-223.68
-194.03
-151.24
-95.11
-30.43
33.97
88.38
125.81
144.47
147.69
141.84
133.47
127.06
124.35
124.97
127.54
130.48
132.08
130.20
122.15
105.30
78.17
41.61
-0.90
-44.31
-83.88
-117.29
-145.68
-172.72
-202.10
-234.80
-267.65
-294.21
-307.43
-302.84
-280.42
-244.56
-202.17
-160.15
-123.43
-94.18
-72.10
-55.18
-40.42
-24.45
-4.18
22.39
55.55
93.44
132.32
167.58
195.05
212.28
219.14
217.54
210.48
200.78
190.20
179.26
167.91
156.45
146.14
138.91
136.43
139.05
145.26
152.08
156.33
156.02
151.00
142.70
133.06
123.42
113.92
103.84
92.49
79.87
66.87
54.61
43.65
33.57
23.26
11.68
-1.58
-16.24
-31.59
-46.84
-61.18
-73.67
-83.12
-88.32
-88.53
-83.90
-75.48
-64.70
-52.80
-40.50
-28.19
-16.36
-5.95
2.12
7.42
10.64
13.42
17.49
23.65
31.18
38.24
42.64
42.94
38.99
31.77
22.86
13.56
4.42
-4.85
-15.28
-28.28
-45.10
-66.32
-91.22
-117.37
-140.87
-157.17
-162.69
-156.20
-139.57
-117.14
-94.15
-74.81
-61.03
-52.35
-46.82
-42.47
-38.11
-33.46
-28.73
-24.02
-19.17
-14.04
-8.79
-3.92
0.05
2.94
5.12
7.20
9.55
11.84
13.02
11.74
6.98
-1.36
-12.19
-23.39
-32.33
-36.68
-35.00
-27.28
-14.95
-0.42
13.66
25.24
33.44
38.51
41.40
43.05
43.98
44.25
43.65
42.00
39.15
34.98
29.28
21.91
13.12
3.83
-4.35
-9.59
-10.48
-6.58
1.38
11.76
22.56
32.00
38.81
42.43
42.96
41.11
38.03
34.93
32.68
31.49
30.80
29.57
26.86
22.49
17.23
12.63
10.31
11.18
15.06
20.75
26.62
31.11
33.18
32.22
27.98
20.50
10.25
-1.73
-13.94
-24.77
-33.04
-38.37
-41.29
-42.84
-43.98
-45.20
-46.32
-46.89
-46.60
-45.70
-44.90
-45.00
-46.23
-47.87
-48.34
-45.91
-39.69
-30.20
-19.33
-9.48
-2.51
0.92
1.34
-0.06
-2.02
-3.52
-3.80
-2.34
0.92
5.40
9.74
12.15
11.10
6.05
-2.28
-12.16
-21.53
-28.64
-32.41
-32.47
-29.01
-22.80
-15.11
-7.53
-1.59
1.73
2.40
1.42
0.37
0.85
3.85
9.47
16.91
24.83
31.83
36.88
39.56
40.09
39.13
37.44
35.63
34.10
33.07
32.69
33.03
34.05
35.44
36.65
37.01
36.02
33.60
30.17
26.54
23.53
21.70
21.12
21.37
21.70
21.31
19.62
16.42
11.95
6.72
1.36
-3.51
-7.37
-9.84
-10.63
-9.60
-6.82
-2.61
2.44
7.62
12.29
16.04
18.80
20.79
22.36
23.81
25.21
26.43
27.13
27.04
26.01
24.18
21.90
19.61
17.69
16.31
15.40
14.70
13.87
12.63
10.83
8.52
5.88
3.20
0.76
-1.24
-2.76
-3.92
-5.01
-6.36
-8.30
-10.96
-14.09
-17.11
-19.16
-19.40
-17.31
-12.92
-6.79
0.17
7.02
13.04
17.86
21.38
23.67
24.87
25.10
24.56
23.47
22.09
20.60
19.12
17.64
16.19
14.88
13.95
13.65
14.06
14.98
15.87
16.06
14.97
12.28
8.08
2.75
-3.14
-9.01
-14.37
-18.88
-22.35
-24.76
-26.33
-27.45
-28.54
-29.97
-31.83
-33.91
-35.69
-36.57
-35.96
-33.54
-29.37
-23.95
-18.17
-13.11
-9.72
-8.54
-9.53
-12.05
-15.15
-17.99
-20.02
-21.13
-21.53
-21.48
-21.18
-20.68
-19.96
-19.03
-17.96
-16.78
-15.44
-13.75
-11.56
-8.93
-6.18
-3.83
-2.35
-1.95
-2.45
-3.47
-4.61
-5.70
-6.84
-8.29
-10.29
-12.89
-15.93
-19.05
-21.81
-23.75
-24.43
-23.52
-20.80
-16.31
-10.28
-3.19
4.43
11.97
18.92
24.84
29.42
32.58
34.43
35.35
35.78
36.10
36.43
36.64
36.42
35.46
33.60
30.83
27.27
23.03
18.23
12.97
7.33
1.43
-4.64
-10.76
-16.82
-22.64
-27.91
-32.30
-35.51
-37.45
-38.38
-38.86
-39.54
-40.99
-43.43
-46.73
-50.41
-53.74
-55.88
-55.89
-52.95
-46.52
-36.63
-24.07
-10.19
3.44
15.58
25.80
34.48
42.40
50.04
57.16
62.65
65.06
63.29
57.24
47.97
37.31
27.14
18.75
12.51
7.95
4.29
0.83
-2.76
-6.53
-10.51
-14.89
-20.06
-26.28
-33.57
-41.47
-49.19
-56.03
-61.71
-66.53
-71.01
-75.40
-79.19
-81.30
-80.73
-77.37
-72.44
-67.88
-64.97
-63.00
-59.13
-49.50
-31.48
-5.15
26.59
59.42
89.58
114.98
135.09
149.78
158.28
159.00
150.63
133.62
110.88
87.06
66.81
53.11
46.63
46.10
48.74
51.45
51.94
49.46
44.86
39.86
36.12
34.60
35.18
36.14
35.07
30.13
21.20
9.87
-1.72
-11.83
-19.44
-24.03
-26.07
-26.73
-27.61
-30.45
-37.14
-49.80
-70.05
-98.02
-127.13
-147.79
-152.57
-141.64
-121.43
-99.00
-78.42
-60.62
-44.67
-29.39
-15.14
-3.71
3.15
5.10
3.68
1.46
0.95
3.76
10.13
18.36
25.48
28.89
27.71
23.01
17.18
12.82
11.54
13.50
17.08
18.83
16.80
10.50
0.72
-10.94
-22.72
-32.80
-39.04
-39.34
-32.68
-19.27
-1.42
16.03
27.90
31.35
27.66
22.01
20.73
27.21
41.17
58.46
72.35
76.97
69.70
50.95
23.40
-9.66
-46.25
-84.23
-116.30
-136.27
-140.16
-127.05
-100.05
-64.13
-18.36
30.55
73.08
102.40
116.63
118.53
113.45
106.00
100.88
99.09
98.85
97.62
92.80
82.03
64.18
39.46
7.74
-29.16
-68.03
-105.89
-140.15
-169.37
-193.57
-213.40
-216.78
-198.49
-162.92
-121.14
-83.21
-53.53
-32.13
-17.15
-6.31
2.28
7.93
10.06
9.38
7.60
6.88
8.82
13.94
21.73
31.00
38.85
43.28
44.18
43.05
42.02
42.80
46.46
53.00
61.36
68.75
72.31
70.32
62.17
47.80
27.30
1.15
-29.03
-59.83
-86.59
-104.01
-108.05
-98.33
-79.30
-58.99
-46.24
-47.71
-66.27
-101.19
-149.47
-204.80
-258.64
-301.70
-326.02
-327.03
-305.15
-265.75
-217.28
-168.24
-124.25
-87.08
-55.52
-26.98
0.71
28.58
56.90
86.10
117.18
151.28
188.39
226.37
261.04
287.31
301.18
301.36
289.70
270.34
247.96
226.00
205.71
186.73
168.28
150.32
133.82
120.11
109.88
102.56
96.48
89.83
81.67
72.55
64.23
58.71
57.06
58.66
61.16
61.33
56.37
45.02
28.08
8.05
-11.85
-28.77
-40.90
-47.66
-49.40
-46.98
-41.49
-34.22
-26.63
-20.20
-16.14
-14.90
-16.16
-18.88
-21.85
-24.10
-25.09
-24.85
-23.71
-22.13
-20.55
-19.27
-18.41
-17.94
-17.64
-17.31
-16.77
-15.96
-14.93
-13.86
-12.90
-12.17
-11.72
-11.45
-11.28
-11.07
-10.74
-10.27
-9.70
-9.11
-8.59
-8.18
-7.91
-7.75
-7.62
-7.47
-7.26
-6.97
-6.63
-6.29
-6.00
-5.79
-5.67
-5.60
-5.55
-5.49
-5.40
-5.26
-5.10
-4.93
-4.78
-4.64
-4.51
-4.40
-4.30
-4.20
-4.10
-4.01
-3.91
-3.83
-3.74
-3.66
-3.58
-3.50
-3.43
-3.36
-3.29
-3.22
-3.15
-3.09
-3.03
-2.97
-2.91
-2.85
-2.80
-2.75
-2.70
-2.65
-2.60
-2.55
-2.50
-2.46
-2.41
-2.37
-2.33
-2.29
-2.25
-2.21
-2.18
-2.14
-2.10
-2.07
-2.04
-2.01
-1.97
-1.94
-1.91
-1.88
-1.85
-1.83
-1.80
-1.77
-1.75
-1.72
-1.69
-1.67
-1.65
-1.62
-1.60
-1.58
-1.56
-1.53
-1.51
-1.49
-1.47
-1.45
-1.44
-1.42
-1.40
-1.38
-1.36
-1.35
-1.33
-1.31
-1.30
-1.28
-1.27
-1.25
-1.24
-1.23
-1.21
-1.20
-1.18
-1.17
-1.16
-1.15
-1.13
-1.12
-1.11
-1.10
-1.09
-1.08
-1.07
-1.06
-1.04
-1.03
-1.02
-1.01
-1.00
-0.99
-0.98
-0.97
-0.97
-0.96
-0.95
-0.94
-0.93
-0.92
-0.91
-0.90
-0.90
-0.89
-0.88
-0.87
-0.87
-0.86
-0.85
-0.84
-0.84
-0.83
-0.82
-0.81
-0.81
-0.80
-0.79
-0.79
-0.78
-0.78
-0.77
-0.76
-0.76
-0.75
-0.75
-0.74
-0.73
-0.73
-0.72
-0.72
-0.71
-0.71
-0.70
-0.70
-0.69
-0.69
-0.68
-0.68
-0.67
-0.67
-0.66
-0.65
-0.64
-0.64
-0.64
-0.65
-0.67
-0.70
-0.74
-0.79
-0.83
-0.85
-0.87
-0.89
-0.91
-0.95
-0.99
-1.04
-1.09
-1.13
-1.16
-1.19
-1.22
-1.28
-1.36
-1.47
-1.60
-1.72
-1.81
-1.88
-1.94
-2.01
-2.13
-2.34
-2.61
-2.94
-3.26
-3.52
-3.72
-3.88
-4.05
-4.32
-4.75
-5.34
-6.03
-6.75
-7.38
-7.88
-8.29
-8.70
-9.25
-10.00
-11.00
-12.17
-13.36
-14.45
-15.33
-16.00
-16.53
-17.10
-17.91
-19.15
-20.92
-23.10
-25.33
-26.97
-27.28
-25.63
-21.77
-15.93
-8.87
-1.61
4.85
9.87
13.30
15.39
16.59
17.31
17.81
18.12
18.26
18.29
18.34
18.59
19.14
19.92
20.70
21.26
21.40
21.08
20.35
19.24
17.74
15.77
13.28
10.32
7.06
3.71
0.44
-2.75
-6.06
-9.75
-13.92
-18.35
-22.39
-25.20
-25.96
-24.29
-20.36
-14.85
-8.62
-2.48
3.06
7.80
11.68
14.69
16.73
17.69
17.57
16.53
14.91
13.08
11.36
9.93
8.84
8.04
7.42
6.85
6.20
5.35
4.22
2.82
1.18
-0.57
-2.37
-4.17
-5.98
-7.93
-10.17
-12.89
-16.28
-20.36
-24.89
-29.25
-32.58
-33.97
-32.78
-28.93
-22.89
-15.52
-7.76
-0.26
6.66
12.90
18.38
22.84
25.90
27.22
26.77
24.94
22.39
19.85
17.81
16.45
15.62
14.99
14.17
12.84
10.79
7.92
4.36
0.44
-3.30
-6.32
-8.30
-9.30
-9.75
-10.32
-11.67
-14.18
-17.83
-22.18
-26.47
-29.79
-31.32
-30.59
-27.62
-22.86
-17.06
-10.92
-4.97
0.55
5.53
9.87
13.41
15.93
17.36
17.83
17.66
17.22
16.77
16.39
16.00
15.49
14.80
13.94
13.00
12.05
11.08
10.02
8.74
7.15
5.23
3.01
0.59
-1.89
-4.35
-6.68
-8.78
-10.50
-11.62
-12.00
-11.55
-10.26
-8.20
-5.40
-1.83
2.52
7.50
12.73
17.61
21.49
23.89
24.65
23.92
22.13
19.73
17.11
14.55
12.21
10.15
8.45
7.18
6.47
6.45
7.17
8.51
10.10
11.42
11.97
11.49
10.05
8.03
5.91
4.01
2.42
0.94
-0.75
-2.99
-5.99
-9.75
-14.11
-18.69
-22.99
-26.37
-28.26
-28.18
-25.91
-21.57
-15.61
-8.72
-1.70
4.71
10.01
13.98
16.64
18.16
18.68
18.36
17.28
15.61
13.59
11.54
9.77
8.48
7.67
7.11
6.53
5.66
4.37
2.76
1.01
-0.64
-2.12
-3.51
-5.04
-6.93
-9.28
-12.03
-15.06
-18.23
-21.42
-24.44
-26.89
-28.20
-27.71
-24.97
-20.03
-13.40
-6.00
1.24
7.63
12.86
16.93
19.96
21.99
23.00
22.92
21.76
19.75
17.27
14.82
12.81
11.46
10.80
10.59
10.51
10.26
9.63
8.54
7.03
5.21
3.18
1.01
-1.26
-3.67
-6.26
-9.07
-12.16
-15.57
-19.30
-23.27
-27.15
-30.46
-32.49
-32.57
-30.24
-25.54
-18.97
-11.36
-3.65
3.43
9.45
14.21
17.67
19.83
20.75
20.62
19.78
18.70
17.75
17.14
16.79
16.53
16.11
15.39
14.37
13.15
11.86
10.62
9.50
8.52
7.63
6.71
5.59
4.10
2.18
-0.12
-2.63
-5.14
-7.56
-9.95
-12.59
-15.75
-19.57
-23.85
-28.01
-31.16
-32.44
-31.27
-27.59
-21.91
-15.09
-8.02
-1.43
4.32
9.12
13.01
16.04
18.22
19.47
19.80
19.31
18.22
16.85
15.53
14.48
13.77
13.29
12.84
12.22
11.36
10.35
9.35
8.53
7.87
7.21
6.29
4.90
3.00
0.73
-1.69
-4.01
-6.08
-7.84
-9.34
-10.66
-11.97
-13.49
-15.45
-18.03
-21.20
-24.62
-27.67
-29.57
-29.63
-27.46
-23.15
-17.18
-10.32
-3.39
2.97
8.36
12.65
15.86
18.09
19.43
19.93
19.71
18.88
17.66
16.31
15.04
14.00
13.21
12.59
11.99
11.30
10.49
9.58
8.58
7.47
6.17
4.57
2.63
0.38
-2.02
-4.38
-6.53
-8.38
-9.98
-11.46
-12.99
-14.77
-16.99
-19.73
-23.01
-26.62
-30.13
-32.99
-34.57
-34.47
-32.60
-29.26
-25.00
-20.45
-16.10
-12.21
-8.83
-5.84
-3.12
-0.56
1.83
4.01
5.94
7.57
8.94
10.09
11.10
11.99
12.78
13.43
13.96
14.39
14.77
15.13
15.43
15.61
15.54
15.11
14.24
12.93
11.26
9.37
7.45
5.68
4.15
2.83
1.60
0.23
-1.51
-3.73
-6.41
-9.26
-11.80
-13.45
-13.70
-12.29
-9.37
-5.41
-1.11
2.80
5.72
7.25
7.23
5.63
2.67
-1.29
-5.62
-9.62
-12.67
-14.37
-14.72
-14.07
-12.98
-12.00
-11.51
-11.61
-12.13
-12.79
-13.32
-13.65
-13.91
-14.36
-15.26
-16.72
-18.54
-20.33
-21.58
-21.86
-21.02
-19.20
-16.83
-14.40
-12.40
-11.10
-10.53
-10.44
-10.33
-9.59
-7.57
-3.88
1.55
8.34
15.73
22.87
29.05
33.93
37.54
40.23
42.35
44.14
45.60
46.60
47.00
46.75
45.93
44.66
43.01
40.85
37.97
34.14
29.34
23.78
17.94
12.35
7.41
3.27
-0.21
-3.30
-6.30
-9.36
-12.48
-15.48
-18.19
-20.51
-22.44
-24.10
-25.59
-26.92
-27.96
-28.42
-27.99
-26.45
-23.77
-20.12
-15.82
-11.24
-6.75
-2.65
0.80
3.45
5.18
5.92
5.67
4.54
2.85
1.04
-0.42
-1.13
-0.99
-0.21
0.75
1.46
1.66
1.46
1.17
1.06
1.20
1.34
1.09
0.13
-1.51
-3.48
-5.24
-6.32
-6.55
-6.11
-5.45
-5.07
-5.34
-6.55
-8.80
-12.09
-16.24
-20.72
-24.66
-26.94
-26.59
-23.19
-17.13
-9.56
-1.94
4.46
8.99
11.70
13.15
13.88
14.16
13.85
12.66
10.31
6.85
2.69
-1.53
-5.11
-7.53
-8.55
-8.32
-7.18
-5.53
-3.57
-1.30
1.41
4.54
7.76
10.47
11.99
12.00
10.71
8.80
7.06
5.95
5.39
4.85
3.67
1.44
-1.77
-5.49
-9.06
-11.87
-13.46
-13.60
-12.23
-9.46
-5.61
-1.11
3.57
8.03
12.09
15.68
18.80
21.35
23.06
23.64
22.92
21.02
18.41
15.71
13.51
12.09
11.39
11.10
10.89
10.53
9.95
9.17
8.22
7.07
5.68
4.02
2.16
0.20
-1.77
-3.68
-5.49
-7.20
-8.75
-10.09
-11.21
-12.14
-13.01
-13.94
-15.07
-16.42
-18.02
-19.73
-21.31
-22.38
-22.49
-21.24
-18.47
-14.32
-9.25
-3.90
1.06
5.16
8.15
10.04
10.99
11.22
10.97
10.38
9.49
8.29
6.79
5.07
3.31
1.73
0.56
-0.12
-0.38
-0.41
-0.42
-0.57
-0.96
-1.60
-2.48
-3.62
-5.01
-6.61
-8.27
-9.82
-11.07
-11.97
-12.59
-13.10
-13.69
-14.34
-14.82
-14.62
-13.11
-9.78
-4.52
2.30
9.84
17.08
23.13
27.45
29.92
30.76
30.36
29.05
27.05
24.51
21.52
18.25
14.84
11.39
7.90
4.32
0.59
-3.21
-6.87
-10.10
-12.65
-14.48
-15.71
-16.66
-17.56
-18.54
-19.52
-20.30
-20.73
-20.76
-20.48
-20.01
-19.45
-18.82
-18.18
-17.64
-17.43
-17.82
-18.93
-20.67
-22.67
-24.44
-25.55
-25.79
-25.21
-23.99
-22.26
-19.82
-16.20
-10.84
-3.39
5.97
16.53
27.23
37.09
45.49
52.33
57.86
62.43
66.17
68.87
70.16
69.66
67.32
63.54
59.09
54.89
51.63
49.62
48.66
48.20
47.55
46.02
43.10
38.39
31.58
22.53
11.28
-1.80
-15.93
-30.09
-43.24
-54.57
-63.75
-70.94
-76.55
-81.02
-84.50
-86.75
-87.27
-85.64
-81.80
-76.24
-69.85
-63.53
-57.65
-51.78
-44.88
-35.74
-23.76
-9.28
6.40
21.54
34.57
44.61
51.60
56.05
58.70
60.15
60.83
60.97
60.77
60.33
59.65
58.56
56.71
53.66
49.01
42.46
34.02
24.04
13.19
2.44
-7.23
-15.06
-20.77
-24.57
-27.10
-29.14
-31.36
-34.11
-37.47
-41.30
-45.34
-49.31
-52.90
-55.68
-57.18
-56.99
-54.85
-50.79
-45.12
-38.33
-31.03
-23.76
-17.01
-11.06
-6.07
-1.99
1.28
3.86
5.84
7.25
8.10
8.51
8.71
8.97
9.54
10.46
11.55
12.51
13.06
13.05
12.52
11.58
10.35
8.81
6.86
4.39
1.36
-2.12
-5.83
-9.48
-12.84
-15.74
-18.10
-19.97
-21.40
-22.54
-23.48
-24.34
-25.17
-25.97
-26.59
-26.73
-25.97
-23.85
-20.07
-14.61
-7.83
-0.34
7.12
13.86
19.38
23.37
25.74
26.55
26.04
24.54
22.39
19.95
17.45
15.05
12.91
11.15
9.88
9.12
8.79
8.69
8.60
8.35
7.85
7.04
5.87
4.24
2.13
-0.37
-3.06
-5.63
-7.86
-9.71
-11.41
-13.33
-15.88
-19.29
-23.43
-27.74
-31.37
-33.35
-32.93
-29.84
-24.39
-17.31
-9.54
-1.90
5.06
11.13
16.22
20.33
23.33
25.08
25.57
24.88
23.38
21.57
19.92
18.73
18.04
17.70
17.48
17.19
16.81
16.44
16.17
16.00
15.76
15.14
13.82
11.66
8.71
5.26
1.71
-1.61
-4.47
-6.83
-8.79
-10.56
-12.37
-14.48
-17.15
-20.55
-24.63
-28.97
-32.72
-34.85
-34.39
-30.96
-24.86
-17.04
-8.74
-1.03
5.50
10.76
14.99
18.43
21.13
22.94
23.71
23.47
22.54
21.41
20.55
20.18
20.20
20.27
20.01
19.26
18.11
16.89
15.90
15.24
14.71
13.93
12.50
10.30
7.47
4.36
1.35
-1.31
-3.58
-5.63
-7.66
-9.89
-12.42
-15.30
-18.59
-22.27
-26.28
-30.34
-33.89
-36.15
-36.32
-33.87
-28.75
-21.53
-13.18
-4.77
2.81
9.10
14.00
17.63
20.15
21.70
22.32
22.15
21.45
20.53
19.71
19.19
18.93
18.75
18.40
17.72
16.74
15.66
14.72
14.06
13.53
12.81
11.51
9.45
6.75
3.79
1.02
-1.30
-3.18
-4.85
-6.58
-8.60
-11.04
-13.99
-17.52
-21.63
-26.05
-30.16
-33.01
-33.64
-31.43
-26.40
-19.22
-10.94
-2.69
4.66
10.59
14.95
17.77
19.20
19.45
18.77
17.47
15.88
14.30
12.94
11.90
11.15
10.62
10.16
9.66
9.11
8.55
8.05
7.60
7.07
6.18
4.60
2.20
-0.91
-4.30
-7.46
-10.05
-11.98
-13.56
-15.27
-17.60
-20.79
-24.71
-28.82
-32.32
-34.28
-33.94
-30.94
-25.44
-18.12
-9.96
-1.96
5.14
10.99
15.58
19.05
21.53
23.02
23.51
23.03
21.75
20.03
18.29
16.88
15.99
15.65
15.69
15.86
15.90
15.59
14.82
13.60
12.04
10.30
8.50
6.66
4.71
2.57
0.23
-2.21
-4.64
-6.99
-9.25
-11.58
-14.13
-17.03
-20.34
-24.04
-27.96
-31.79
-35.02
-37.03
-37.25
-35.32
-31.20
-25.20
-17.92
-10.03
-2.20
5.00
11.15
15.95
19.27
21.17
21.85
21.58
20.68
19.47
18.24
17.24
16.62
16.37
16.32
16.18
15.69
14.72
13.34
11.75
10.18
8.75
7.41
6.01
4.33
2.22
-0.37
-3.39
-6.68
-10.04
-13.29
-16.35
-19.28
-22.24
-25.48
-29.16
-33.29
-37.60
-41.51
-44.26
-45.07
-43.30
-38.74
-31.61
-22.58
-12.59
-2.69
6.28
13.78
19.65
24.04
27.17
29.27
30.43
30.71
30.19
29.10
27.79
26.59
25.72
25.14
24.60
23.83
22.64
21.09
19.38
17.76
16.30
14.90
13.26
11.07
8.21
4.78
1.16
-2.22
-5.02
-7.13
-8.71
-10.14
-11.84
-14.18
-17.31
-21.16
-25.36
-29.34
-32.36
-33.66
-32.62
-29.03
-23.11
-15.57
-7.38
0.47
7.25
12.60
16.52
19.18
20.78
21.51
21.47
20.81
19.71
18.39
17.06
15.88
14.92
14.16
13.56
13.10
12.70
12.28
11.73
10.86
9.56
7.75
5.44
2.74
-0.20
-3.26
-6.30
-9.23
-12.03
-14.69
-17.33
-20.19
-23.49
-27.38
-31.66
-35.68
-38.43
-38.89
-36.36
-30.83
-22.97
-13.92
-4.89
3.22
9.97
15.30
19.32
22.10
23.61
23.86
23.01
21.44
19.72
18.33
17.54
17.31
17.34
17.21
16.63
15.57
14.20
12.82
11.68
10.87
10.24
9.51
8.35
6.52
4.00
0.92
-2.43
-5.75
-8.80
-11.54
-14.07
-16.59
-19.36
-22.56
-26.23
-30.21
-34.07
-37.18
-38.76
-38.15
-34.95
-29.28
-21.71
-13.18
-4.71
2.92
9.27
14.27
18.05
20.71
22.23
22.59
21.85
20.35
18.61
17.20
16.46
16.34
16.49
16.42
15.87
14.85
13.66
12.66
12.01
11.59
11.03
9.91
7.97
5.26
2.05
-1.20
-4.15
-6.66
-8.83
-10.92
-13.25
-16.08
-19.51
-23.49
-27.76
-31.83
-35.01
-36.51
-35.63
-32.05
-25.97
-18.16
-9.65
-1.49
5.58
11.20
15.38
18.28
20.08
20.94
20.95
20.22
18.91
17.23
15.46
13.87
12.65
11.89
11.55
11.49
11.51
11.45
11.14
10.48
9.37
7.75
5.62
3.06
0.31
-2.38
-4.78
-6.85
-8.74
-10.81
-13.45
-16.97
-21.31
-25.98
-30.06
-32.47
-32.27
-29.07
-23.20
-15.55
-7.32
0.45
7.13
12.52
16.72
19.87
21.98
22.95
22.77
21.63
19.95
18.26
16.94
16.09
15.52
14.91
14.04
12.90
11.71
10.73
10.09
9.63
9.05
7.96
6.17
3.72
0.88
-2.02
-4.80
-7.44
-10.08
-12.87
-15.89
-19.14
-22.58
-26.24
-30.10
-33.98
-37.35
-39.41
-39.27
-36.36
-30.68
-22.93
-14.19
-5.58
2.13
8.64
14.02
18.38
21.71
23.85
24.62
24.04
22.42
20.32
18.38
17.07
16.55
16.66
17.02
17.20
16.94
16.21
15.21
14.17
13.24
12.31
11.13
9.40
6.99
4.04
0.89
-2.09
-4.67
-6.90
-9.05
-11.47
-14.43
-18.04
-22.19
-26.64
-31.02
-34.80
-37.36
-38.03
-36.25
-31.86
-25.12
-16.77
-7.83
0.72
8.15
14.13
18.67
21.94
24.09
25.18
25.22
24.30
22.69
20.84
19.25
18.29
17.97
18.06
18.14
17.85
17.07
15.91
14.61
13.36
12.18
10.91
9.32
7.26
4.73
1.92
-0.90
-3.51
-5.82
-7.92
-10.05
-12.45
-15.31
-18.67
-22.41
-26.38
-30.29
-33.77
-36.29
-37.21
-35.92
-32.10
-25.93
-18.03
-9.40
-1.01
6.41
12.46
17.03
20.15
21.89
22.33
21.66
20.19
18.31
16.39
14.69
13.34
12.34
11.69
11.36
11.30
11.35
11.29
10.89
9.99
8.56
6.68
4.56
2.30
0.01
-2.27
-4.54
-6.78
-9.02
-11.40
-14.15
-17.50
-21.49
-25.81
-29.70
-32.18
-32.33
-29.66
-24.27
-16.89
-8.55
-0.31
7.05
13.11
17.75
21.07
23.14
24.03
23.81
22.66
20.91
19.00
17.37
16.23
15.57
15.11
14.52
13.62
12.46
11.25
10.25
9.48
8.79
7.84
6.36
4.21
1.48
-1.62
-4.83
-7.94
-10.86
-13.56
-16.15
-18.83
-21.87
-25.50
-29.78
-34.44
-38.84
-42.06
-43.15
-41.42
-36.73
-29.53
-20.75
-11.46
-2.61
5.22
11.84
17.26
21.56
24.69
26.54
27.04
26.32
24.78
22.97
21.45
20.54
20.22
20.16
19.91
19.14
17.85
16.30
14.90
13.90
13.20
12.39
10.91
8.43
4.97
1.00
-2.85
-6.05
-8.44
-10.32
-12.22
-14.73
-18.20
-22.63
-27.72
-32.86
-37.32
-40.30
-41.04
-39.01
-34.10
-26.72
-17.76
-8.38
0.40
7.89
13.90
18.59
22.19
24.86
26.56
27.20
26.78
25.54
23.87
22.22
20.91
20.05
19.54
19.21
18.84
18.32
17.65
16.88
16.10
15.31
14.40
13.16
11.36
8.82
5.57
1.85
-1.98
-5.52
-8.58
-11.16
-13.50
-15.91
-18.66
-21.89
-25.64
-29.83
-34.20
-38.27
-41.31
-42.50
-41.09
-36.76
-29.71
-20.76
-11.05
-1.73
6.37
12.87
17.76
21.22
23.44
24.47
24.40
23.36
21.69
19.86
18.31
17.27
16.67
16.18
15.44
14.30
12.87
11.46
10.35
9.58
8.90
7.90
6.21
3.73
0.68
-2.54
-5.52
-8.03
-10.13
-12.16
-14.54
-17.65
-21.64
-26.29
-30.99
-34.86
-36.91
-36.38
-32.98
-26.97
-19.11
-10.40
-1.76
6.14
12.90
18.36
22.44
25.06
26.22
26.01
24.72
22.76
20.67
18.88
17.68
17.05
16.76
16.47
15.86
14.81
13.42
11.96
10.70
9.76
9.00
8.06
6.49
3.97
0.47
-3.74
-8.10
-12.04
-15.16
-17.45
-19.23
-21.10
-23.67
-27.26
-31.73
-36.50
-40.62
-43.09
-43.17
-40.52
-35.33
-28.15
-19.73
-10.81
-2.10
5.86
12.61
17.86
21.50
23.64
24.59
24.71
24.41
23.88
23.26
22.53
21.69
20.74
19.70
18.58
17.37
16.09
14.80
13.60
12.55
11.58
10.50
9.02
6.93
4.18
0.95
-2.41
-5.53
-8.24
-10.58
-12.85
-15.49
-18.88
-23.23
-28.43
-33.94
-38.85
-42.09
-42.72
-40.24
-34.80
-27.11
-18.26
-9.29
-0.98
6.27
12.34
17.19
20.82
23.20
24.36
24.48
23.85
22.85
21.77
20.80
19.98
19.26
18.61
17.95
17.27
16.55
15.79
14.98
14.12
13.13
11.90
10.28
8.15
5.53
2.50
-0.71
-3.88
-6.86
-9.63
-12.35
-15.26
-18.65
-22.69
-27.36
-32.24
-36.60
-39.45
-39.80
-37.06
-31.26
-23.11
-13.79
-4.65
3.31
9.59
14.18
17.37
19.47
20.70
21.06
20.58
19.37
17.70
15.94
14.46
13.44
12.87
12.58
12.37
12.07
11.60
10.93
10.01
8.71
6.92
4.56
1.65
-1.62
-4.97
-8.15
-11.06
-13.76
-16.53
-19.69
-23.46
-27.77
-32.10
-35.61
-37.28
-36.27
-32.23
-25.52
-17.02
-7.87
0.88
8.57
14.90
19.84
23.44
25.71
26.66
26.38
25.17
23.43
21.66
20.23
19.35
19.01
19.01
19.09
19.00
18.55
17.67
16.41
14.89
13.18
11.28
9.05
6.35
3.07
-0.75
-4.86
-8.90
-12.52
-15.56
-18.12
-20.62
-23.56
-27.39
-32.23
-37.71
-43.06
-47.14
-48.87
-47.47
-42.78
-35.26
-25.88
-15.81
-6.05
2.76
10.35
16.69
21.85
25.80
28.47
29.83
30.02
29.36
28.22
26.96
25.76
24.66
23.64
22.69
21.85
21.19
20.74
20.41
20.03
19.35
18.14
16.27
13.68
10.43
6.63
2.46
-1.83
-5.93
-9.57
-12.60
-15.11
-17.42
-19.96
-23.18
-27.25
-31.99
-36.81
-40.85
-43.16
-43.01
-40.06
-34.47
-26.86
-18.08
-9.02
-0.43
7.24
13.77
19.07
23.10
25.86
27.36
27.73
27.23
26.19
24.95
23.73
22.63
21.65
20.74
19.88
19.07
18.35
17.72
17.15
16.54
15.79
14.79
13.40
11.52
9.07
6.06
2.61
-1.03
-4.55
-7.75
-10.55
-13.08
-15.61
-18.47
-21.89
-25.94
-30.41
-34.79
-38.36
-40.29
-39.95
-37.03
-31.73
-24.63
-16.56
-8.29
-0.45
6.50
12.24
16.51
19.10
19.99
19.36
17.60
15.23
12.69
10.31
8.21
6.41
4.77
3.10
1.18
-1.09
-3.66
-6.17
-8.16
-9.07
-8.61
-6.80
-4.06
-0.99
1.84
4.09
5.73
6.90
7.73
8.12
7.75
6.11
2.77
-2.36
-8.92
-16.02
-22.43
-26.89
-28.45
-26.76
-22.06
-15.18
-7.17
1.01
8.67
15.45
21.22
25.90
29.37
31.53
32.32
31.91
30.63
28.95
27.24
25.76
24.57
23.60
22.73
21.88
20.99
20.06
19.11
18.12
17.06
15.80
14.19
12.06
9.31
5.94
2.12
-1.90
-5.81
-9.37
-12.45
-15.09
-17.48
-19.95
-22.86
-26.52
-31.05
-36.15
-41.14
-44.98
-46.60
-45.24
-40.77
-33.69
-24.96
-15.70
-6.78
1.28
8.28
14.19
18.96
22.49
24.71
25.66
25.55
24.68
23.47
22.20
21.09
20.27
19.73
19.37
19.04
18.53
17.72
16.59
15.27
13.86
12.43
10.87
8.99
6.63
3.77
0.60
-2.55
-5.35
-7.66
-9.50
-11.15
-12.95
-15.27
-18.35
-22.26
-26.78
-31.41
-35.39
-37.83
-37.98
-35.37
-30.03
-22.45
-13.50
-4.19
4.52
11.87
17.47
21.23
23.35
24.15
24.00
23.20
21.95
20.40
18.70
16.98
15.38
13.96
12.75
11.68
10.69
9.73
8.81
7.87
6.83
5.45
3.54
0.98
-2.13
-5.50
-8.76
-11.61
-14.01
-16.13
-18.30
-20.90
-24.19
-28.21
-32.69
-37.00
-40.21
-41.30
-39.52
-34.65
-27.15
-18.03
-8.52
0.37
8.03
14.31
19.25
22.92
25.31
26.32
26.00
24.62
22.62
20.54
18.79
17.55
16.72
16.13
15.55
14.91
14.26
13.69
13.23
12.75
12.05
10.89
9.11
6.69
3.72
0.43
-2.95
-6.17
-9.06
-11.52
-13.61
-15.54
-17.57
-20.02
-23.12
-27.01
-31.61
-36.50
-40.95
-43.94
-44.44
-41.76
-35.84
-27.29
-17.29
-7.14
2.11
9.87
16.03
20.72
24.10
26.22
27.06
26.70
25.40
23.62
21.86
20.46
19.47
18.70
17.89
16.89
15.76
14.74
14.03
13.67
13.46
13.08
12.21
10.74
8.68
6.18
3.42
0.55
-2.33
-5.12
-7.76
-10.29
-12.81
-15.54
-18.69
-22.44
-26.78
-31.51
-36.10
-39.76
-41.63
-40.95
-37.36
-31.04
-22.70
-13.33
-3.98
4.57
11.84
17.59
21.73
24.20
25.00
24.29
22.46
20.11
17.82
16.05
14.92
14.28
13.78
13.09
12.05
10.71
9.32
8.14
7.35
6.89
6.50
5.82
4.50
2.36
-0.52
-3.86
-7.29
-10.47
-13.27
-15.70
-17.94
-20.25
-22.82
-25.79
-29.09
-32.43
-35.19
-36.54
-35.66
-31.98
-25.53
-16.95
-7.36
1.99
10.06
16.29
20.58
23.13
24.27
24.27
23.33
21.65
19.43
17.02
14.75
12.93
11.70
11.04
10.75
10.56
10.20
9.53
8.49
7.13
5.48
3.55
1.28
-1.36
-4.33
-7.44
-10.46
-13.23
-15.77
-18.33
-21.35
-25.24
-30.12
-35.58
-40.69
-44.19
-44.86
-42.03
-35.74
-26.82
-16.58
-6.36
2.85
10.54
16.60
21.16
24.28
25.99
26.33
25.49
23.85
21.90
20.07
18.56
17.35
16.30
15.30
14.34
13.55
13.02
12.72
12.45
11.86
10.62
8.57
5.76
2.44
-1.07
-4.47
-7.66
-10.63
-13.53
-16.57
-19.98
-23.96
-28.56
-33.63
-38.66
-42.79
-44.99
-44.35
-40.38
-33.28
-23.90
-13.48
-3.26
5.81
13.27
19.05
23.31
26.22
27.89
28.38
27.80
26.37
24.45
22.46
20.73
19.44
18.55
17.84
17.08
16.12
14.99
13.79
12.60
11.36
9.82
7.62
4.55
0.60
-3.97
-8.69
-13.13
-17.05
-20.47
-23.61
-26.83
-30.46
-34.71
-39.66
-45.09
-50.46
-54.91
-57.38
-56.84
-52.65
-44.72
-33.59
-20.33
-6.25
7.35
19.41
29.23
36.50
41.27
43.85
44.73
44.46
43.53
42.28
40.94
39.55
38.11
36.57
34.88
33.04
31.09
29.12
27.14
25.05
22.65
19.67
15.92
11.38
6.29
1.12
-3.63
-7.57
-10.64
-13.14
-15.64
-18.76
-22.92
-28.08
-33.58
-38.32
-41.02
-40.65
-36.78
-29.73
-20.46
-10.22
-0.21
8.70
16.00
21.49
25.13
27.01
27.27
26.24
24.35
22.09
19.88
17.92
16.28
14.87
13.65
12.63
11.90
11.54
11.47
11.39
10.88
9.56
7.24
4.03
0.30
-3.53
-7.10
-10.31
-13.24
-16.14
-19.31
-22.98
-27.34
-32.35
-37.70
-42.68
-46.27
-47.29
-44.87
-38.76
-29.56
-18.59
-7.40
2.67
10.85
17.04
21.52
24.70
26.78
27.82
27.77
26.74
25.02
23.04
21.24
19.87
18.93
18.28
17.75
17.24
16.78
16.45
16.26
16.07
15.53
14.26
11.97
8.66
4.60
0.30
-3.71
-7.13
-9.98
-12.64
-15.71
-19.70
-24.87
-30.96
-37.21
-42.42
-45.38
-45.19
-41.54
-34.79
-25.86
-15.85
-5.76
3.67
11.98
18.92
24.36
28.19
30.48
31.43
31.37
30.73
29.87
29.07
28.49
28.20
28.15
28.14
27.91
27.21
25.89
23.97
21.67
19.27
17.02
14.97
12.99
10.77
7.95
4.31
-0.11
-5.00
-9.87
-14.27
-17.95
-21.00
-23.77
-26.79
-30.53
-35.28
-40.95
-47.05
-52.68
-56.70
-57.94
-55.59
-49.47
-40.11
-28.60
-16.29
-4.44
6.09
14.87
21.87
27.30
31.46
34.63
37.01
38.69
39.67
39.92
39.49
38.50
37.18
35.75
34.41
33.24
32.25
31.41
30.63
29.79
28.75
27.35
25.42
22.87
19.68
15.97
11.91
7.67
3.41
-0.84
-5.08
-9.33
-13.51
-17.49
-21.11
-24.30
-27.24
-30.31
-34.02
-38.74
-44.42
-50.48
-55.82
-59.09
-59.15
-55.45
-48.22
-38.38
-27.25
-16.15
-6.05
2.51
9.42
14.75
18.63
21.10
22.19
22.00
20.81
19.02
17.13
15.48
14.24
13.36
12.73
12.27
12.03
12.13
12.64
13.40
14.10
14.25
13.42
11.41
8.31
4.54
0.66
-2.78
-5.45
-7.26
-8.28
-8.69
-8.56
-7.92
-6.73
-5.00
-2.74
0.02
3.32
7.22
11.71
16.63
21.59
26.08
29.65
32.09
33.57
34.47
35.29
36.33
37.69
39.14
40.38
41.06
41.02
40.23
38.84
36.98
34.69
31.90
28.48
24.42
19.92
15.39
11.33
8.11
5.82
4.23
2.94
1.70
0.55
-0.22
-0.31
0.22
0.79
0.49
-1.48
-5.34
-10.39
-15.37
-18.97
-20.57
-20.52
-19.98
-20.27
-22.28
-26.09
-31.12
-36.55
-41.79
-46.53
-50.49
-53.19
-53.70
-50.90
-43.95
-32.72
-17.96
-1.08
16.34
32.98
48.01
61.03
71.82
80.22
86.14
89.73
91.61
92.85
94.65
97.71
101.72
105.04
104.95
98.51
83.49
59.30
27.36
-9.17
-46.06
-79.09
-104.94
-121.89
-130.04
-131.07
-127.68
-122.66
-118.18
-115.32
-114.01
-113.44
-112.64
-110.95
-108.16
-104.44
-100.11
-95.52
-91.02
-87.08
-84.20
-82.76
-82.67
-83.12
-82.59
-79.23
-71.54
-58.99
-42.32
-23.41
-4.69
11.62
24.14
32.54
37.39
39.71
40.42
40.17
39.28
38.01
36.68
35.72
35.40
35.72
36.36
36.87
36.93
36.49
35.69
34.68
33.49
31.94
29.84
27.09
23.73
19.89
15.69
11.19
6.48
1.76
-2.68
-6.56
-9.83
-12.74
-15.76
-19.40
-23.93
-29.22
-34.66
-39.25
-41.83
-41.34
-37.22
-29.53
-19.07
-7.11
4.96
15.94
25.08
32.07
36.90
39.65
40.42
39.37
36.78
33.19
29.30
25.81
23.26
21.88
21.54
21.86
22.32
22.50
22.13
21.19
19.84
18.34
16.90
15.58
14.26
12.63
10.37
7.32
3.48
-0.89
-5.42
-9.78
-13.78
-17.40
-20.85
-24.45
-28.53
-33.27
-38.52
-43.69
-47.79
-49.66
-48.26
-43.12
-34.47
-23.21
-10.66
1.76
12.90
21.97
28.59
32.69
34.43
34.14
32.24
29.25
25.65
21.93
18.49
15.60
13.43
12.00
11.20
10.82
10.59
10.27
9.68
8.75
7.44
5.78
3.74
1.29
-1.62
-4.95
-8.63
-12.55
-16.70
-21.20
-26.25
-31.88
-37.76
-42.98
-46.24
-46.24
-42.22
-34.32
-23.54
-11.43
0.48
11.06
19.72
26.31
30.84
33.34
33.77
32.21
28.95
24.56
19.81
15.51
12.29
10.42
9.78
9.91
10.21
10.14
9.39
7.94
6.01
3.84
1.63
-0.65
-3.13
-5.99
-9.40
-13.40
-18.04
-23.37
-29.37
-35.80
-42.00
-46.87
-49.06
-47.45
-41.60
-31.97
-19.90
-7.06
4.98
15.25
23.34
29.23
33.02
34.69
34.25
31.85
27.96
23.33
18.81
15.10
12.59
11.24
10.73
10.63
10.50
10.06
9.17
7.83
6.10
4.05
1.70
-1.00
-4.13
-7.79
-12.09
-17.12
-22.87
-29.13
-35.34
-40.56
-43.63
-43.46
-39.50
-31.93
-21.69
-10.16
1.25
11.49
19.95
26.40
30.73
32.81
32.52
29.93
25.47
19.98
14.53
10.12
7.31
6.09
5.89
5.89
5.36
3.98
1.85
-0.62
-3.00
-5.13
-7.14
-9.47
-12.59
-16.94
-22.76
-29.95
-38.09
-46.26
-53.12
-57.11
-56.90
-51.85
-42.25
-29.37
-14.94
-0.68
12.18
23.04
31.76
38.36
42.81
45.01
44.89
42.64
38.82
34.26
29.86
26.34
24.01
22.71
21.91
21.00
19.52
17.39
14.82
12.16
9.60
7.06
4.14
0.36
-4.64
-11.01
-18.59
-27.05
-35.81
-44.07
-50.68
-54.35
-53.86
-48.62
-38.93
-25.99
-11.55
2.61
15.23
25.74
34.13
40.58
45.22
48.01
48.87
47.84
45.25
41.65
37.70
34.03
31.03
28.81
27.21
25.89
24.45
22.61
20.27
17.53
14.52
11.33
7.88
3.93
-0.78
-6.47
-13.14
-20.67
-28.79
-37.06
-44.80
-51.07
-54.67
-54.45
-49.64
-40.28
-27.24
-12.10
3.35
17.51
29.37
38.50
44.95
49.00
50.95
51.09
49.74
47.27
44.12
40.75
37.55
34.80
32.59
30.89
29.52
28.25
26.81
24.94
22.47
19.31
15.51
11.18
6.44
1.43
-3.73
-8.93
-14.10
-19.29
-24.74
-30.83
-37.80
-45.47
-52.91
-58.49
-60.38
-57.15
-48.50
-35.42
-19.92
-4.27
9.71
21.07
29.72
36.01
40.31
42.78
43.38
42.19
39.51
35.96
32.25
28.95
26.36
24.44
22.94
21.60
20.17
18.50
16.49
14.04
11.02
7.37
3.13
-1.56
-6.47
-11.41
-16.32
-21.33
-26.72
-32.82
-39.74
-47.22
-54.50
-60.38
-63.53
-62.90
-58.06
-49.37
-37.97
-25.37
-13.12
-2.45
5.90
11.60
14.64
15.16
13.48
9.99
5.25
-0.22
-5.94
-11.62
-17.13
-22.39
-27.38
-32.07
-36.53
-40.97
-45.77
-51.28
-57.74
-65.06
-72.85
-80.51
-87.39
-92.91
-96.58
-98.08
-97.32
-94.54
-90.28
-85.06
-79.04
-71.56
-61.20
-46.18
-25.26
1.42
32.02
63.46
92.33
116.00
133.21
144.14
149.72
151.06
148.92
143.75
135.98
126.29
115.67
105.28
96.04
88.45
82.48
77.70
73.57
69.67
65.78
61.91
58.13
54.38
50.41
45.86
40.37
33.82
26.44
18.80
11.60
5.38
0.26
-4.10
-8.34
-13.18
-19.05
-25.90
-33.04
-39.35
-43.57
-44.68
-42.34
-36.89
-29.32
-20.75
-12.18
-4.19
2.97
9.22
14.39
18.26
20.58
21.32
20.75
19.40
17.84
16.52
15.64
15.10
14.70
14.19
13.45
12.52
11.55
10.67
9.92
9.20
8.27
6.89
4.92
2.38
-0.58
-3.71
-6.81
-9.73
-12.38
-14.77
-16.98
-19.23
-21.84
-25.14
-29.27
-33.93
-38.35
-41.37
-41.89
-39.27
-33.59
-25.69
-16.76
-7.99
-0.18
6.31
11.47
15.36
17.99
19.32
19.32
18.13
16.10
13.70
11.38
9.50
8.24
7.61
7.51
7.73
8.02
8.07
7.63
6.51
4.66
2.19
-0.67
-3.67
-6.59
-9.35
-11.98
-14.60
-17.41
-20.60
-24.32
-28.58
-33.09
-37.22
-40.07
-40.69
-38.42
-33.16
-25.45
-16.30
-6.90
1.69
8.77
14.06
17.57
19.54
20.24
19.97
19.01
17.59
15.91
14.12
12.40
10.84
9.54
8.50
7.70
7.03
6.41
5.75
4.94
3.86
2.35
0.30
-2.33
-5.47
-8.88
-12.30
-15.48
-18.33
-20.97
-23.65
-26.79
-30.68
-35.37
-40.54
-45.41
-48.93
-50.01
-47.93
-42.58
-34.52
-24.84
-14.78
-5.38
2.74
9.36
14.52
18.30
20.71
21.77
21.63
20.63
19.22
17.86
16.76
15.94
15.21
14.38
13.40
12.36
11.41
10.64
9.95
9.09
7.77
5.78
3.12
-0.05
-3.41
-6.63
-9.53
-12.12
-14.60
-17.29
-20.47
-24.31
-28.75
-33.44
-37.78
-40.95
-42.03
-40.31
-35.52
-28.02
-18.73
-8.90
0.25
7.96
13.94
18.33
21.44
23.46
24.46
24.40
23.34
21.52
19.34
17.24
15.52
14.28
13.44
12.83
12.26
11.61
10.84
9.89
8.69
7.17
5.25
2.93
0.29
-2.57
-5.49
-8.37
-11.20
-14.09
-17.23
-20.85
-25.06
-29.74
-34.33
-37.90
-39.39
-37.94
-33.23
-25.70
-16.40
-6.66
2.29
9.69
15.30
19.23
21.68
22.79
22.63
21.24
18.90
16.05
13.31
11.13
9.75
9.09
8.85
8.72
8.47
8.07
7.50
6.72
5.60
3.97
1.78
-0.90
-3.87
-6.92
-9.96
-13.06
-16.42
-20.29
-24.76
-29.66
-34.53
-38.58
-40.90
-40.64
-37.34
-31.07
-22.45
-12.51
-2.41
6.84
14.58
20.44
24.33
26.33
26.67
25.67
23.75
21.34
18.79
16.37
14.22
12.43
11.03
10.06
9.49
9.21
8.98
8.53
7.58
5.98
3.71
0.92
-2.21
-5.47
-8.77
-12.06
-15.39
-18.83
-22.53
-26.66
-31.30
-36.31
-41.14
-44.85
-46.26
-44.37
-38.85
-30.16
-19.55
-8.52
1.61
10.08
16.72
21.67
25.15
27.27
28.06
27.60
26.15
24.09
21.84
19.74
18.01
16.68
15.73
15.06
14.53
13.93
13.09
11.82
10.03
7.72
4.95
1.82
-1.51
-4.92
-8.27
-11.46
-14.56
-17.80
-21.50
-25.91
-31.05
-36.41
-41.06
-43.79
-43.55
-39.79
-32.72
-23.18
-12.47
-1.81
7.83
15.93
22.30
26.91
29.83
31.13
30.99
29.72
27.73
25.43
23.16
21.10
19.29
17.75
16.49
15.57
14.99
14.64
14.28
13.60
12.34
10.34
7.63
4.38
0.83
-2.79
-6.31
-9.63
-12.81
-16.01
-19.56
-23.77
-28.75
-34.18
-39.23
-42.73
-43.49
-40.79
-34.63
-25.79
-15.50
-5.09
4.44
12.54
19.01
23.85
27.05
28.59
28.49
26.94
24.39
21.40
18.55
16.24
14.65
13.73
13.31
13.24
13.33
13.41
13.23
12.47
10.83
8.20
4.72
0.79
-3.11
-6.63
-9.70
-12.59
-15.71
-19.50
-24.20
-29.75
-35.74
-41.41
-45.75
-47.67
-46.33
-41.34
-33.05
-22.40
-10.75
0.56
10.52
18.59
24.69
28.94
31.56
32.72
32.59
31.38
29.44
27.16
24.98
23.25
22.11
21.50
21.17
20.84
20.27
19.37
18.18
16.80
15.26
13.48
11.24
8.36
4.77
0.62
-3.75
-7.93
-11.61
-14.73
-17.53
-20.46
-24.08
-28.79
-34.66
-41.22
-47.50
-52.16
-53.89
-51.86
-45.94
-36.80
-25.65
-13.82
-2.44
7.75
16.34
23.15
28.06
31.04
32.22
31.95
30.73
29.12
27.53
26.20
25.15
24.31
23.55
22.79
21.98
21.12
20.23
19.31
18.28
16.98
15.18
12.67
9.34
5.31
0.87
-3.58
-7.71
-11.35
-14.58
-17.72
-21.23
-25.52
-30.70
-36.47
-41.97
-45.96
-47.18
-44.76
-38.60
-29.37
-18.33
-6.86
3.91
13.26
20.88
26.68
30.65
32.80
33.22
32.23
30.29
27.98
25.78
23.96
22.56
21.45
20.47
19.53
18.65
17.85
17.11
16.27
15.10
13.36
10.94
7.89
4.45
0.90
-2.54
-5.83
-9.10
-12.61
-16.64
-21.33
-26.63
-32.22
-37.42
-41.31
-42.85
-41.18
-35.94
-27.46
-16.74
-5.22
5.68
14.85
21.76
26.35
28.91
29.80
29.39
27.96
25.82
23.31
20.77
18.53
16.79
15.59
14.82
14.27
13.74
13.08
12.24
11.19
9.89
8.21
6.00
3.15
-0.31
-4.16
-8.08
-11.75
-15.04
-18.11
-21.36
-25.31
-30.31
-36.21
-42.27
-47.22
-49.61
-48.33
-43.04
-34.26
-23.22
-11.41
-0.13
9.79
17.97
24.34
28.96
31.85
33.07
32.77
31.28
29.10
26.79
24.81
23.40
22.51
21.90
21.25
20.33
19.09
17.67
16.29
15.07
13.96
12.76
11.17
8.94
6.00
2.42
-1.55
-5.63
-9.54
-13.12
-16.36
-19.41
-22.60
-26.29
-30.75
-35.99
-41.58
-46.65
-50.04
-50.65
-47.77
-41.36
-32.08
-21.06
-9.59
1.25
10.79
18.69
24.85
29.17
31.60
32.15
31.04
28.79
26.06
23.54
21.64
20.46
19.83
19.43
19.03
18.53
17.95
17.35
16.71
15.91
14.79
13.15
10.86
7.89
4.30
0.29
-3.86
-7.83
-11.36
-14.32
-16.78
-19.01
-21.39
-24.38
-28.29
-33.11
-38.39
-43.22
-46.38
-46.73
-43.53
-36.73
-27.06
-15.76
-4.26
6.21
14.84
21.32
25.71
28.29
29.39
29.25
28.14
26.30
24.09
21.88
20.06
18.83
18.19
17.93
17.73
17.33
16.67
15.83
14.94
14.10
13.17
11.91
10.03
7.34
3.87
-0.11
-4.19
-7.93
-11.05
-13.50
-15.53
-17.56
-20.12
-23.59
-28.10
-33.28
-38.39
-42.33
-43.99
-42.53
-37.67
-29.80
-19.87
-9.17
1.06
9.86
16.66
21.32
23.99
24.96
24.57
23.17
21.06
18.53
15.88
13.40
11.31
9.79
8.87
8.51
8.55
8.75
8.83
8.51
7.59
5.98
3.75
1.06
-1.89
-4.97
-8.14
-11.39
-14.72
-18.14
-21.69
-25.46
-29.53
-33.71
-37.46
-39.79
-39.59
-36.03
-29.00
-19.26
-8.22
2.50
11.61
18.43
22.91
25.40
26.31
25.97
24.59
22.35
19.56
16.62
14.00
12.02
10.85
10.36
10.25
10.22
10.06
9.67
9.04
8.13
6.78
4.80
2.08
-1.32
-5.09
-8.80
-12.06
-14.75
-17.04
-19.40
-22.37
-26.37
-31.51
-37.49
-43.59
-48.73
-51.74
-51.60
-47.84
-40.66
-30.91
-19.85
-8.74
1.44
10.16
17.26
22.73
26.60
28.90
29.73
29.32
28.04
26.32
24.46
22.65
20.95
19.40
18.04
16.99
16.34
16.05
15.96
15.75
15.08
13.65
11.34
8.21
4.49
0.50
-3.44
-7.11
-10.43
-13.53
-16.75
-20.47
-25.03
-30.43
-36.19
-41.29
-44.47
-44.54
-40.85
-33.53
-23.52
-12.29
-1.38
7.99
15.18
20.15
23.28
25.09
26.01
26.33
26.13
25.51
24.61
23.66
22.88
22.39
22.13
21.91
21.49
20.79
19.83
18.72
17.50
16.06
14.17
11.62
8.35
4.54
0.51
-3.40
-7.02
-10.44
-13.97
-18.00
-22.81
-28.37
-34.21
-39.45
-42.95
-43.63
-40.82
-34.52
-25.45
-14.88
-4.24
5.28
12.93
18.54
22.29
24.48
25.40
25.23
24.07
22.05
19.37
16.39
13.53
11.20
9.65
8.91
8.75
8.78
8.57
7.81
6.36
4.28
1.73
-1.16
-4.28
-7.57
-10.96
-14.36
-17.73
-21.11
-24.70
-28.65
-32.90
-36.96
-39.91
-40.67
-38.42
-32.97
-24.87
-15.24
-5.26
4.14
12.52
19.76
25.87
30.74
34.11
35.76
35.63
34.01
31.46
28.66
26.14
24.18
22.73
21.53
20.35
19.10
17.87
16.80
15.92
14.95
13.48
11.05
7.46
2.93
-2.04
-6.81
-10.95
-14.40
-17.50
-20.80
-24.86
-29.99
-36.13
-42.79
-49.09
-53.89
-56.04
-54.71
-49.59
-41.03
-29.99
-17.71
-5.48
5.68
15.13
22.67
28.36
32.42
35.07
36.48
36.79
36.20
34.99
33.52
32.17
31.17
30.50
29.90
28.98
27.50
25.52
23.36
21.43
19.94
18.71
17.30
15.15
11.94
7.68
2.77
-2.24
-6.89
-10.91
-14.34
-17.47
-20.69
-24.48
-29.27
-35.24
-42.11
-49.03
-54.65
-57.47
-56.33
-50.86
-41.61
-29.87
-17.22
-5.02
5.85
15.01
22.43
28.18
32.31
34.84
35.86
35.59
34.40
32.72
31.03
29.68
28.82
28.41
28.23
27.98
27.40
26.40
25.05
23.55
22.09
20.73
19.32
17.57
15.15
11.88
7.79
3.19
-1.48
-5.78
-9.46
-12.57
-15.38
-18.29
-21.70
-25.83
-30.78
-36.42
-42.43
-48.20
-52.81
-55.16
-54.25
-49.48
-41.04
-29.86
-17.41
-5.23
5.52
14.33
21.24
26.57
30.64
33.56
35.24
35.64
34.86
33.26
31.35
29.60
28.29
27.41
26.78
26.11
25.21
24.06
22.79
21.59
20.53
19.54
18.32
16.53
13.89
10.36
6.20
1.81
-2.41
-6.23
-9.68
-12.91
-16.12
-19.44
-22.89
-26.50
-30.38
-34.64
-39.22
-43.68
-47.14
-48.51
-46.84
-41.75
-33.64
-23.50
-12.62
-2.15
7.12
14.81
20.81
25.08
27.62
28.46
27.77
25.93
23.46
20.95
18.88
17.47
16.68
16.28
15.98
15.58
15.01
14.30
13.48
12.42
10.93
8.80
5.97
2.57
-1.09
-4.67
-7.96
-10.96
-13.89
-17.14
-21.06
-25.85
-31.41
-37.26
-42.51
-46.11
-47.06
-44.77
-39.26
-31.17
-21.54
-11.48
-1.86
6.80
14.31
20.64
25.77
29.63
32.05
32.97
32.45
30.71
28.10
25.01
21.88
19.13
17.06
15.89
15.59
15.93
16.57
17.14
17.38
17.05
15.95
13.84
10.52
5.97
0.54
-5.14
-10.25
-14.19
-16.78
-18.40
-19.75
-21.64
-24.63
-28.94
-34.42
-40.58
-46.61
-51.46
-54.00
-53.21
-48.62
-40.47
-29.73
-17.78
-6.05
4.43
13.15
20.05
25.26
28.92
31.09
31.81
31.23
29.71
27.73
25.81
24.32
23.37
22.80
22.30
21.58
20.49
19.12
17.65
16.25
14.92
13.46
11.50
8.74
5.06
0.65
-4.04
-8.48
-12.24
-15.21
-17.59
-19.84
-22.53
-26.09
-30.66
-35.97
-41.27
-45.48
-47.39
-46.01
-40.90
-32.34
-21.36
-9.39
2.12
12.04
19.82
25.38
28.93
30.76
31.12
30.23
28.39
26.00
23.47
21.21
19.44
18.18
17.32
16.66
16.06
15.41
14.65
13.74
12.58
11.04
9.01
6.44
3.37
-0.05
-3.62
-7.16
-10.57
-13.89
-17.33
-21.20
-25.75
-30.98
-36.45
-41.24
-44.14
-44.02
-40.24
-33.00
-23.26
-12.44
-1.99
7.09
14.34
19.73
23.44
25.63
26.41
25.91
24.37
22.16
19.68
17.28
15.13
13.31
11.79
10.57
9.65
9.00
8.53
8.02
7.18
5.71
3.46
0.44
-3.17
-7.04
-10.85
-14.40
-17.65
-20.78
-24.14
-28.10
-32.86
-38.23
-43.55
-47.71
-49.43
-47.73
-42.20
-33.27
-22.05
-10.02
1.46
11.42
19.40
25.36
29.42
31.77
32.53
31.87
30.10
27.64
24.98
22.57
20.65
19.26
18.25
17.37
16.43
15.34
14.12
12.82
11.43
9.86
7.91
5.37
2.14
-1.69
-5.89
-10.09
-14.03
-17.60
-20.91
-24.27
-28.08
-32.66
-38.07
-43.99
-49.60
-53.70
-54.99
-52.51
-46.02
-36.18
-24.34
-12.09
-0.81
8.77
16.44
22.39
26.78
29.65
30.88
30.48
28.72
26.18
23.61
21.62
20.56
20.41
20.88
21.60
22.18
22.32
21.76
20.26
17.69
14.05
9.55
4.58
-0.33
-4.65
-8.05
-10.41
-11.93
-13.05
-14.40
-16.63
-20.29
-25.59
-32.31
-39.61
-46.18
-50.43
-50.96
-47.02
-38.79
-27.37
-14.46
-1.85
9.11
17.77
24.09
28.44
31.22
32.73
33.14
32.60
31.33
29.64
27.83
26.11
24.58
23.18
21.86
20.62
19.50
18.57
17.79
16.96
15.74
13.83
11.08
7.59
3.67
-0.32
-4.13
-7.75
-11.34
-15.16
-19.43
-24.27
-29.63
-35.26
-40.63
-44.88
-46.93
-45.77
-40.82
-32.25
-21.08
-8.87
2.75
12.57
20.05
25.25
28.55
30.31
30.76
29.99
28.10
25.41
22.38
19.54
17.29
15.80
14.99
14.61
14.38
14.07
13.53
12.63
11.25
9.33
6.81
3.77
0.40
-3.12
-6.63
-10.13
-13.77
-17.85
-22.65
-28.28
-34.51
-40.65
-45.62
-48.15
-47.18
-42.26
-33.73
-22.68
-10.57
1.19
11.60
20.14
26.70
31.30
33.99
34.80
33.88
31.64
28.71
25.80
23.41
21.71
20.53
19.52
18.44
17.25
16.12
15.20
14.47
13.65
12.30
10.00
6.59
2.28
-2.50
-7.21
-11.46
-15.14
-18.41
-21.66
-25.34
-29.81
-35.25
-41.48
-47.95
-53.73
-57.61
-58.40
-55.28
-48.08
-37.47
-24.74
-11.48
0.91
11.56
20.18
26.90
31.96
35.48
37.46
37.90
37.00
35.23
33.21
31.45
30.19
29.29
28.44
27.34
25.94
24.42
23.02
21.85
20.74
19.29
17.05
13.79
9.61
4.86
0.05
-4.41
-8.35
-11.84
-15.19
-18.80
-23.04
-28.19
-34.29
-40.97
-47.45
-52.55
-54.95
-53.57
-48.02
-38.73
-26.89
-14.08
-1.76
9.12
18.17
25.42
31.05
35.12
37.56
38.29
37.39
35.29
32.63
30.15
28.35
27.40
27.02
26.77
26.22
25.20
23.84
22.44
21.25
20.22
19.02
17.14
14.18
10.05
5.08
-0.14
-4.96
-9.00
-12.24
-15.01
-17.87
-21.31
-25.68
-31.00
-37.03
-43.23
-48.77
-52.60
-53.59
-50.90
-44.26
-34.18
-21.89
-9.02
2.86
12.71
20.14
25.30
28.60
30.41
30.94
30.28
28.55
26.05
23.24
20.64
18.64
17.35
16.67
16.38
16.22
16.04
15.72
15.17
14.20
12.65
10.34
7.26
3.56
-0.46
-4.47
-8.21
-11.68
-15.11
-18.94
-23.62
-29.26
-35.45
-41.17
-45.01
-45.64
-42.27
-35.01
-24.82
-13.20
-1.66
8.64
17.14
23.72
28.48
31.52
32.86
32.54
30.80
28.09
25.07
22.35
20.32
19.02
18.19
17.50
16.70
15.77
14.86
14.12
13.52
12.82
11.59
9.41
6.08
1.73
-3.21
-8.15
-12.54
-16.12
-18.97
-21.48
-24.28
-27.94
-32.79
-38.77
-45.28
-51.28
-55.48
-56.69
-54.13
-47.70
-38.07
-26.39
-14.06
-2.30
8.04
16.54
23.12
27.87
30.89
32.29
32.27
31.16
29.40
27.49
25.80
24.45
23.36
22.33
21.21
19.98
18.80
17.83
17.05
16.25
15.05
13.11
10.30
6.73
2.75
-1.32
-5.23
-8.93
-12.49
-16.03
-19.72
-23.76
-28.37
-33.61
-39.29
-44.70
-48.72
-50.01
-47.53
-41.01
-31.08
-19.14
-6.87
4.31
13.62
20.89
26.35
30.27
32.70
33.60
32.93
30.93
28.17
25.39
23.21
21.90
21.31
20.98
20.46
19.50
18.22
16.88
15.77
14.87
13.85
12.25
9.63
5.91
1.36
-3.43
-7.85
-11.51
-14.39
-16.84
-19.39
-22.56
-26.68
-31.81
-37.62
-43.40
-48.11
-50.53
-49.63
-44.85
-36.41
-25.28
-12.94
-0.92
9.57
17.92
24.03
28.11
30.42
31.15
30.46
28.64
26.09
23.39
21.06
19.39
18.36
17.71
17.10
16.32
15.38
14.43
13.60
12.87
11.96
10.55
8.36
5.36
1.80
-1.90
-5.31
-8.24
-10.80
-13.34
-16.37
-20.32
-25.41
-31.50
-38.05
-44.11
-48.46
-49.84
-47.37
-40.85
-30.93
-18.96
-6.65
4.51
13.54
20.16
24.54
27.06
28.00
27.51
25.74
22.92
19.48
16.02
13.08
11.07
10.10
10.03
10.50
11.02
11.18
10.69
9.44
7.51
5.04
2.17
-0.98
-4.30
-7.70
-11.07
-14.37
-17.74
-21.47
-25.92
-31.20
-36.94
-42.13
-45.35
-45.23
-41.00
-32.85
-21.89
-9.76
1.91
11.96
19.84
25.51
29.17
31.03
31.29
30.18
28.02
25.28
22.42
19.83
17.74
16.17
15.03
14.15
13.38
12.59
11.64
10.42
8.80
6.72
4.11
1.05
-2.36
-5.95
-9.58
-13.16
-16.69
-20.28
-24.11
-28.47
-33.54
-39.25
-45.05
-49.86
-52.26
-50.96
-45.34
-35.77
-23.60
-10.64
1.41
11.47
19.26
25.01
29.11
31.77
33.03
32.90
31.57
29.47
27.17
25.09
23.44
22.15
21.03
19.98
18.97
18.08
17.29
16.47
15.34
13.61
11.05
7.68
3.69
-0.56
-4.75
-8.67
-12.27
-15.73
-19.32
-23.41
-28.26
-33.95
-40.17
-46.13
-50.67
-52.45
-50.42
-44.17
-34.22
-21.86
-8.77
3.46
13.82
21.91
27.86
32.00
34.60
35.82
35.74
34.49
32.36
29.74
27.04
24.61
22.60
21.02
19.77
18.75
17.86
17.03
16.11
14.91
13.22
10.84
7.75
4.08
0.10
-3.89
-7.68
-11.25
-14.77
-18.54
-22.92
-28.15
-34.13
-40.32
-45.70
-48.95
-48.86
-44.74
-36.78
-26.00
-13.94
-2.15
8.24
16.66
23.04
27.55
30.38
31.63
31.39
29.86
27.41
24.51
21.64
19.21
17.45
16.40
15.93
15.80
15.66
15.18
14.10
12.29
9.80
6.78
3.45
-0.02
-3.52
-7.04
-10.61
-14.30
-18.24
-22.60
-27.58
-33.23
-39.25
-44.84
-48.75
-49.59
-46.38
-38.94
-28.08
-15.37
-2.61
8.73
17.86
24.69
29.52
32.65
34.23
34.25
32.81
30.28
27.26
24.46
22.34
20.95
20.03
19.11
17.91
16.39
14.80
13.43
12.43
11.70
10.89
9.63
7.67
5.03
1.97
-1.14
-4.01
-6.54
-8.85
-11.18
-13.82
-16.97
-20.71
-25.04
-29.76
-34.40
-38.12
-39.83
-38.47
-33.44
-24.91
-13.89
-1.90
9.58
19.54
27.59
33.84
38.49
41.58
42.97
42.57
40.51
37.21
33.26
29.14
25.12
21.32
17.73
14.40
11.36
8.61
6.06
3.56
1.01
-1.59
-4.24
-6.97
-9.97
-13.49
-17.79
-22.89
-28.51
-34.11
-39.14
-43.22
-46.27
-48.60
-50.72
-53.22
-56.50
-60.56
-64.92
-68.63
-70.45
-69.13
-63.75
-54.04
-40.52
-24.46
-7.53
8.65
22.98
35.14
45.49
54.65
63.09
70.82
77.31
81.87
83.96
83.51
80.96
77.03
72.48
67.86
63.55
59.84
57.03
55.40
55.06
55.72
56.62
56.72
55.07
51.28
45.67
39.12
32.60
26.75
21.52
16.28
10.08
2.06
-8.20
-20.56
-34.23
-47.87
-59.77
-68.28
-72.20
-71.19
-65.93
-57.89
-48.93
-40.66
-34.11
-29.61
-26.95
-25.68
-25.35
-25.64
-26.32
-27.20
-28.04
-28.61
-28.67
-28.06
-26.75
-24.83
-22.47
-19.91
-17.46
-15.43
-14.11
-13.70
-14.28
-15.74
-17.86
-20.34
-22.86
-25.17
-27.15
-28.78
-30.24
-31.83
-33.97
-36.91
-40.47
-43.91
-45.93
-45.13
-40.45
-31.78
-20.00
-6.75
6.20
17.48
26.46
33.11
37.75
40.65
41.92
41.57
39.72
36.71
33.04
29.24
25.76
22.85
20.63
19.14
18.31
17.99
17.87
17.59
16.80
15.32
13.22
10.70
8.02
5.43
3.04
0.91
-1.07
-3.09
-5.56
-8.94
-13.54
-19.19
-25.06
-29.71
-31.54
-29.35
-22.90
-13.02
-1.35
10.27
20.37
28.22
33.79
37.44
39.52
40.19
39.39
37.04
33.23
28.34
22.92
17.55
12.61
8.24
4.39
0.96
-2.08
-4.66
-6.68
-8.16
-9.30
-10.43
-11.95
-14.16
-17.18
-20.94
-25.26
-29.98
-35.03
-40.40
-45.97
-51.33
-55.59
-57.54
-55.93
-50.03
-39.96
-26.84
-12.43
1.37
13.13
22.18
28.58
32.79
35.33
36.51
36.42
35.05
32.49
29.05
25.23
21.63
18.73
16.78
15.66
15.02
14.37
13.28
11.53
9.14
6.28
3.18
-0.05
-3.43
-7.05
-11.04
-15.48
-20.44
-25.99
-32.10
-38.50
-44.45
-48.76
-50.00
-47.03
-39.47
-27.98
-14.13
0.10
13.00
23.47
31.24
36.55
39.83
41.42
41.45
40.00
37.26
33.57
29.45
25.46
22.05
19.48
17.73
16.58
15.70
14.71
13.37
11.52
9.14
6.31
3.10
-0.39
-4.10
-7.98
-12.01
-16.21
-20.75
-25.88
-31.80
-38.42
-45.16
-50.86
-54.02
-53.25
-47.76
-37.75
-24.39
-9.52
4.92
17.41
27.07
33.77
37.75
39.46
39.30
37.60
34.69
30.92
26.73
22.58
18.86
15.84
13.64
12.23
11.46
11.08
10.82
10.34
9.35
7.65
5.15
1.94
-1.77
-5.77
-9.87
-14.05
-18.38
-23.07
-28.32
-34.20
-40.46
-46.40
-50.80
-52.22
-49.39
-41.77
-29.84
-15.11
0.30
14.36
25.65
33.62
38.44
40.64
40.74
39.14
36.13
32.12
27.64
23.29
19.56
16.72
14.77
13.53
12.78
12.31
11.96
11.53
10.82
9.53
7.42
4.36
0.40
-4.21
-9.09
-13.86
-18.28
-22.29
-26.13
-30.19
-34.94
-40.62
-46.99
-53.18
-57.76
-59.05
-55.72
-47.32
-34.48
-18.84
-2.48
12.68
25.35
34.97
41.58
45.45
46.88
46.13
43.53
39.57
34.94
30.36
26.45
23.50
21.54
20.31
19.49
18.82
18.19
17.58
16.96
16.14
14.79
12.48
8.93
4.18
-1.36
-7.00
-12.10
-16.28
-19.58
-22.44
-25.50
-29.36
-34.39
-40.50
-47.12
-53.17
-57.21
-57.78
-53.87
-45.23
-32.61
-17.57
-2.01
12.30
24.21
33.25
39.51
43.32
44.99
44.69
42.60
39.10
34.78
30.50
27.00
24.71
23.55
23.04
22.60
21.80
20.63
19.32
18.18
17.25
16.24
14.62
11.90
7.90
2.89
-2.55
-7.75
-12.24
-15.93
-19.02
-21.96
-25.20
-29.12
-33.93
-39.62
-45.80
-51.64
-55.89
-57.11
-54.11
-46.46
-34.70
-20.30
-5.23
8.63
19.98
28.24
33.43
35.93
36.18
34.58
31.53
27.55
23.25
19.27
16.11
13.97
12.81
12.35
12.27
12.34
12.45
12.53
12.50
12.16
11.26
9.57
6.99
3.68
-0.08
-3.91
-7.53
-10.84
-13.94
-17.08
-20.54
-24.47
-28.71
-32.64
-35.29
-35.49
-32.32
-25.42
-15.29
-3.10
9.54
21.07
30.36
36.82
40.38
41.28
39.95
36.89
32.68
27.91
23.15
18.84
15.24
12.41
10.29
8.73
7.56
6.63
5.81
4.93
3.80
2.28
0.24
-2.34
-5.39
-8.76
-12.34
-16.05
-19.85
-23.77
-27.88
-32.30
-37.13
-42.40
-47.85
-52.88
-56.44
-57.34
-54.58
-47.71
-37.08
-23.74
-9.19
5.09
17.88
28.40
36.22
41.19
43.37
43.00
40.54
36.72
32.40
28.40
25.31
23.34
22.32
21.89
21.63
21.32
20.95
20.65
20.46
20.24
19.56
17.92
14.93
10.52
5.00
-1.03
-6.96
-12.39
-17.27
-21.95
-26.92
-32.69
-39.49
-47.12
-54.92
-61.83
-66.62
-68.13
-65.58
-58.79
-48.23
-34.97
-20.42
-6.03
6.91
17.54
25.41
30.47
32.98
33.37
32.16
29.91
27.16
24.47
22.29
20.93
20.41
20.52
20.83
20.94
20.60
19.79
18.66
17.29
15.65
13.45
10.40
6.34
1.43
-3.85
-8.89
-13.20
-16.60
-19.32
-21.86
-24.85
-28.79
-33.87
-39.84
-45.97
-51.04
-53.67
-52.62
-47.27
-37.80
-25.25
-11.20
2.66
14.96
24.89
32.14
36.77
39.02
39.22
37.73
34.99
31.51
27.83
24.43
21.65
19.62
18.27
17.42
16.86
16.42
16.04
15.66
15.20
14.40
12.92
10.44
6.79
2.15
-3.01
-8.07
-12.52
-16.15
-19.17
-22.07
-25.42
-29.68
-34.96
-40.90
-46.64
-50.92
-52.37
-49.86
-42.97
-32.17
-18.80
-4.70
8.38
19.17
27.08
32.06
34.39
34.38
32.40
28.93
24.63
20.26
16.51
13.79
12.14
11.34
11.06
11.04
11.11
11.12
10.89
10.16
8.66
6.26
3.04
-0.75
-4.76
-8.75
-12.58
-16.31
-20.09
-24.15
-28.71
-33.92
-39.69
-45.59
-50.70
-53.78
-53.49
-48.92
-39.91
-27.26
-12.54
2.34
15.70
26.45
34.19
39.09
41.54
41.96
40.66
37.95
34.20
29.99
25.95
22.67
20.46
19.26
18.75
18.50
18.17
17.60
16.81
15.81
14.52
12.71
10.07
6.40
1.74
-3.59
-9.06
-14.16
-18.56
-22.28
-25.67
-29.29
-33.72
-39.30
-45.92
-52.91
-59.03
-62.74
-62.62
-57.80
-48.28
-35.01
-19.59
-3.81
10.77
23.15
32.87
39.83
44.09
45.81
45.27
42.92
39.41
35.49
31.83
28.86
26.75
25.40
24.56
23.97
23.42
22.82
22.13
21.29
20.17
18.49
15.93
12.23
7.43
1.84
-3.99
-9.48
-14.22
-18.13
-21.46
-24.72
-28.48
-33.20
-39.04
-45.67
-52.16
-57.08
-58.89
-56.35
-49.01
-37.40
-22.87
-7.22
7.83
20.95
31.39
38.89
43.51
45.52
45.32
43.36
40.20
36.44
32.68
29.39
26.89
25.25
24.31
23.75
23.23
22.52
21.54
20.32
18.93
17.28
15.18
12.37
8.68
4.16
-0.89
-6.03
-10.85
-15.12
-18.84
-22.26
-25.75
-29.70
-34.41
-39.94
-46.01
-51.89
-56.44
-58.32
-56.31
-49.80
-39.04
-25.15
-9.86
4.99
17.86
27.84
34.62
38.34
39.38
38.21
35.33
31.29
26.73
22.27
18.48
15.74
14.18
13.69
13.98
14.65
15.32
15.64
15.29
14.04
11.72
8.35
4.13
-0.52
-5.16
-9.45
-13.29
-16.85
-20.51
-24.69
-29.70
-35.57
-41.99
-48.19
-52.99
-55.00
-52.97
-46.18
-34.86
-20.25
-4.24
11.09
24.11
33.99
40.63
44.39
45.78
45.19
42.90
39.27
34.81
30.17
25.99
22.72
20.49
19.13
18.26
17.54
16.73
15.80
14.78
13.70
12.44
10.71
8.16
4.56
-0.11
-5.53
-11.16
-16.45
-21.09
-25.17
-29.11
-33.54
-38.98
-45.51
-52.65
-59.25
-63.82
-64.80
-61.15
-52.59
-39.81
-24.29
-7.89
7.58
20.74
30.82
37.63
41.38
42.55
41.68
39.35
36.16
32.70
29.52
27.02
25.39
24.60
24.36
24.34
24.19
23.76
22.97
21.84
20.30
18.17
15.23
11.33
6.55
1.18
-4.32
-9.53
-14.19
-18.32
-22.15
-26.07
-30.47
-35.63
-41.53
-47.72
-53.26
-56.75
-56.73
-52.13
-42.74
-29.46
-14.02
1.44
15.09
25.80
33.27
37.83
40.00
40.25
38.86
36.04
32.11
27.59
23.12
19.31
16.55
14.90
14.17
14.01
14.04
13.96
13.52
12.51
10.77
8.17
4.75
0.66
-3.83
-8.43
-12.93
-17.25
-21.46
-25.75
-30.40
-35.60
-41.30
-46.97
-51.60
-53.83
-52.37
-46.48
-36.33
-23.00
-8.23
6.14
18.61
28.26
34.81
38.38
39.33
38.08
35.10
30.92
26.13
21.38
17.29
14.28
12.52
11.88
11.99
12.39
12.62
12.34
11.33
9.46
6.73
3.25
-0.76
-5.03
-9.30
-13.41
-17.32
-21.13
-25.08
-29.46
-34.57
-40.47
-46.82
-52.68
-56.62
-57.05
-52.83
-43.75
-30.67
-15.38
0.08
14.01
25.42
34.01
39.90
43.33
44.42
43.33
40.37
36.19
31.66
27.65
24.74
23.05
22.25
21.83
21.30
20.45
19.32
18.12
17.03
16.01
14.77
12.85
9.86
5.65
0.41
-5.33
-10.96
-15.97
-20.17
-23.75
-27.15
-30.91
-35.48
-41.03
-47.31
-53.61
-58.74
-61.23
-59.76
-53.60
-42.91
-28.81
-13.11
2.24
15.70
26.45
34.35
39.65
42.71
43.80
43.10
40.86
37.53
33.79
30.36
27.82
26.40
25.97
26.06
26.10
25.67
24.57
22.96
21.08
19.22
17.39
15.36
12.69
9.01
4.19
-1.48
-7.37
-12.77
-17.14
-20.38
-22.84
-25.21
-28.24
-32.44
-37.97
-44.44
-50.99
-56.39
-59.23
-58.30
-52.93
-43.21
-30.06
-15.02
0.16
13.93
25.25
33.64
39.08
41.81
42.19
40.63
37.62
33.77
29.74
26.17
23.53
22.01
21.51
21.63
21.87
21.81
21.25
20.22
18.89
17.38
15.66
13.47
10.52
6.63
1.93
-3.19
-8.22
-12.71
-16.52
-19.82
-23.03
-26.58
-30.83
-35.91
-41.68
-47.72
-53.25
-57.17
-58.22
-55.33
-47.96
-36.47
-22.03
-6.43
8.46
21.17
30.87
37.37
40.87
41.77
40.44
37.31
32.92
27.97
23.32
19.72
17.61
17.00
17.45
18.27
18.82
18.74
18.03
16.88
15.53
14.00
12.08
9.42
5.73
0.96
-4.61
-10.43
-15.87
-20.47
-24.07
-26.96
-29.72
-33.09
-37.61
-43.36
-49.80
-55.74
-59.65
-60.01
-55.81
-46.93
-34.19
-19.17
-3.76
10.37
22.09
30.95
37.02
40.61
42.09
41.74
39.84
36.77
33.06
29.39
26.35
24.32
23.27
22.83
22.53
21.99
21.12
20.07
19.09
18.23
17.23
15.58
12.76
8.54
3.09
-2.99
-8.93
-14.12
-18.27
-21.52
-24.36
-27.44
-31.38
-36.50
-42.68
-49.22
-54.88
-58.09
-57.40
-51.95
-41.83
-28.16
-12.73
2.47
15.87
26.57
34.38
39.49
42.23
42.85
41.60
38.83
35.10
31.11
27.53
24.82
23.05
21.99
21.27
20.61
19.84
19.01
18.22
17.48
16.63
15.30
13.05
9.60
4.93
-0.60
-6.40
-11.79
-16.33
-19.90
-22.74
-25.35
-28.35
-32.26
-37.33
-43.38
-49.65
-54.84
-57.37
-55.77
-49.29
-38.21
-23.90
-8.40
6.18
18.22
26.92
32.26
34.71
34.90
33.35
30.47
26.63
22.27
17.94
14.25
11.65
10.32
10.14
10.75
11.66
12.38
12.57
12.01
10.60
8.34
5.34
1.83
-1.91
-5.64
-9.24
-12.75
-16.39
-20.44
-25.16
-30.66
-36.82
-43.10
-48.55
-51.86
-51.69
-47.11
-37.99
-25.16
-10.26
4.78
18.19
28.83
36.22
40.44
41.83
40.90
38.18
34.29
29.91
25.69
22.14
19.53
17.83
16.80
16.11
15.48
14.77
14.01
13.21
12.35
11.21
9.45
6.74
2.89
-1.98
-7.45
-12.93
-17.88
-21.98
-25.31
-28.28
-31.51
-35.61
-40.93
-47.34
-54.05
-59.67
-62.52
-61.08
-54.58
-43.26
-28.46
-12.19
3.50
16.98
27.43
34.77
39.33
41.56
41.81
40.33
37.43
33.62
29.56
25.93
23.20
21.48
20.56
20.05
19.63
19.12
18.54
17.92
17.17
16.06
14.25
11.42
7.53
2.79
-2.38
-7.49
-12.18
-16.31
-20.05
-23.76
-27.90
-32.83
-38.65
-45.07
-51.21
-55.79
-57.30
-54.51
-46.89
-34.95
-20.13
-4.45
10.11
22.15
31.05
36.89
40.14
41.26
40.62
38.49
35.21
31.25
27.23
23.71
21.06
19.38
18.50
18.11
17.90
17.61
17.08
16.19
14.81
12.77
9.92
6.21
1.76
-3.12
-7.99
-12.45
-16.29
-19.59
-22.71
-26.17
-30.47
-35.90
-42.26
-48.80
-54.18
-56.82
-55.29
-48.86
-37.81
-23.45
-7.73
7.30
20.02
29.52
35.58
38.47
38.73
36.99
33.89
30.01
25.87
21.90
18.40
15.59
13.62
12.53
12.26
12.58
13.12
13.44
13.10
11.83
9.49
6.16
2.02
-2.60
-7.38
-12.01
-16.34
-20.39
-24.39
-28.73
-33.78
-39.75
-46.41
-52.91
-57.86
-59.59
-56.70
-48.58
-35.78
-19.92
-3.19
12.25
24.87
34.00
39.74
42.57
43.08
41.77
39.09
35.52
31.61
27.94
24.94
22.83
21.48
20.62
19.92
19.21
18.46
17.74
17.02
16.11
14.60
12.05
8.20
3.15
-2.62
-8.45
-13.70
-18.06
-21.61
-24.83
-28.39
-32.89
-38.68
-45.55
-52.66
-58.57
-61.55
-60.07
-53.36
-41.74
-26.56
-9.87
6.21
20.05
30.72
38.03
42.29
44.00
43.66
41.79
38.86
35.39
31.93
28.90
26.58
25.02
24.05
23.38
22.71
21.88
20.87
19.76
18.54
17.07
15.00
11.96
7.75
2.52
-3.27
-8.96
-14.00
-18.14
-21.52
-24.64
-28.15
-32.66
-38.44
-45.22
-52.11
-57.64
-60.14
-58.14
-51.01
-39.20
-24.18
-8.07
7.02
19.53
28.69
34.52
37.50
38.23
37.24
34.92
31.58
27.63
23.55
19.90
17.14
15.50
14.95
15.16
15.63
15.84
15.45
14.24
12.22
9.51
6.23
2.55
-1.41
-5.56
-9.80
-14.10
-18.49
-23.13
-28.20
-33.87
-39.99
-45.93
-50.56
-52.42
-50.24
-43.37
-32.17
-17.93
-2.57
11.98
24.23
33.42
39.38
42.37
42.78
41.04
37.63
33.11
28.20
23.65
20.08
17.82
16.78
16.61
16.77
16.84
16.61
16.06
15.24
14.09
12.35
9.67
5.80
0.75
-5.08
-11.07
-16.60
-21.26
-25.04
-28.34
-31.80
-36.10
-41.63
-48.29
-55.31
-61.34
-64.70
-63.87
-57.96
-47.05
-32.27
-15.46
1.30
16.22
28.16
36.74
42.10
44.70
45.05
43.61
40.85
37.34
33.69
30.46
28.01
26.41
25.43
24.70
23.92
22.94
21.77
20.51
19.17
17.63
15.61
12.81
9.07
4.45
-0.71
-5.86
-10.47
-14.21
-17.10
-19.61
-22.41
-26.24
-31.54
-38.22
-45.48
-51.90
-55.74
-55.42
-50.05
-39.79
-25.89
-10.30
4.96
18.29
28.89
36.59
41.65
44.37
44.98
43.67
40.76
36.83
32.64
28.92
26.20
24.58
23.80
23.41
22.98
22.32
21.40
20.33
19.17
17.80
15.94
13.25
9.53
4.81
-0.58
-6.16
-11.42
-16.00
-19.83
-23.09
-26.21
-29.73
-34.11
-39.54
-45.71
-51.71
-56.13
-57.39
-54.22
-46.23
-34.09
-19.46
-4.40
9.19
20.11
27.94
32.87
35.33
35.72
34.31
31.42
27.51
23.22
19.30
16.32
14.58
14.00
14.25
14.91
15.61
16.04
15.97
15.18
13.51
10.86
7.27
2.99
-1.65
-6.27
-10.61
-14.60
-18.38
-22.28
-26.65
-31.77
-37.66
-43.92
-49.68
-53.67
-54.49
-51.02
-42.90
-30.71
-15.96
-0.64
13.34
24.62
32.67
37.64
40.11
40.67
39.74
37.60
34.50
30.85
27.19
24.11
22.03
21.04
20.85
20.94
20.80
20.12
18.92
17.43
15.88
14.28
12.37
9.67
5.82
0.78
-5.05
-10.93
-16.13
-20.19
-23.16
-25.56
-28.18
-31.74
-36.67
-42.87
-49.68
-55.95
-60.19
-60.97
-57.28
-48.90
-36.50
-21.55
-5.88
8.75
21.04
30.38
36.73
40.43
41.93
41.67
40.00
37.30
34.02
30.68
27.83
25.87
24.92
24.76
24.89
24.77
24.06
22.72
20.99
19.20
17.49
15.70
13.47
10.34
6.12
0.94
-4.67
-10.09
-14.74
-18.40
-21.22
-23.67
-26.34
-29.78
-34.30
-39.88
-46.05
-51.90
-56.19
-57.59
-55.04
-48.10
-37.16
-23.44
-8.64
5.47
17.46
26.52
32.43
35.44
36.02
34.70
32.00
28.40
24.43
20.62
17.41
15.10
13.75
13.19
13.11
13.23
13.33
13.33
13.17
12.66
11.49
9.33
5.98
1.56
-3.49
-8.53
-12.93
-16.41
-19.06
-21.40
-24.08
-27.69
-32.49
-38.20
-44.00
-48.59
-50.50
-48.47
-41.92
-31.20
-17.58
-2.91
10.90
22.42
30.93
36.40
39.21
39.77
38.42
35.40
31.13
26.29
21.73
18.28
16.38
15.91
16.28
16.73
16.66
15.87
14.56
13.09
11.71
10.35
8.64
6.12
2.52
-2.10
-7.35
-12.62
-17.37
-21.32
-24.55
-27.41
-30.40
-33.97
-38.40
-43.71
-49.57
-55.24
-59.55
-61.12
-58.66
-51.52
-39.97
-25.29
-9.44
5.58
18.25
27.93
34.69
39.04
41.47
42.27
41.53
39.35
36.06
32.23
28.56
25.60
23.56
22.29
21.40
20.54
19.51
18.35
17.22
16.22
15.21
13.85
11.67
8.34
3.81
-1.53
-7.08
-12.13
-16.21
-19.23
-21.54
-23.84
-26.90
-31.30
-37.16
-43.95
-50.55
-55.38
-56.89
-53.91
-46.10
-34.07
-19.23
-3.45
11.44
23.99
33.43
39.55
42.59
43.02
41.40
38.28
34.24
29.84
25.61
21.97
19.19
17.32
16.22
15.63
15.30
15.02
14.66
14.07
13.07
11.40
8.84
5.34
1.04
-3.68
-8.42
-12.85
-16.87
-20.60
-24.35
-28.47
-33.23
-38.69
-44.56
-50.10
-54.10
-55.18
-52.18
-44.64
-33.04
-18.80
-3.85
9.92
21.14
29.15
33.95
35.91
35.51
33.21
29.45
24.78
19.86
15.35
11.83
9.59
8.64
8.73
9.44
10.34
11.00
11.07
10.26
8.44
5.66
2.10
-1.91
-6.09
-10.27
-14.43
-18.67
-23.18
-28.18
-33.84
-40.16
-46.80
-52.92
-57.18
-58.08
-54.38
-45.70
-32.71
-17.10
-1.00
13.62
25.47
34.11
39.69
42.66
43.38
42.13
39.11
34.77
29.78
24.98
21.12
18.61
17.41
17.10
17.19
17.28
17.19
16.88
16.32
15.34
13.57
10.65
6.34
0.77
-5.55
-11.86
-17.41
-21.78
-25.05
-27.78
-30.83
-35.03
-40.81
-47.98
-55.58
-62.04
-65.51
-64.41
-57.96
-46.43
-31.18
-14.21
2.40
17.01
28.67
37.11
42.48
45.09
45.31
43.58
40.45
36.57
32.61
29.14
26.50
24.81
23.98
23.85
24.19
24.77
25.42
25.95
26.14
25.74
24.41
21.84
17.87
12.58
6.35
-0.25
-6.60
-12.30
-17.26
-21.72
-26.15
-31.13
-37.08
-44.00
-51.29
-57.65
-61.32
-60.61
-54.50
-43.13
-27.89
-10.98
5.23
18.90
29.10
35.76
39.31
40.33
39.36
36.80
33.08
28.73
24.35
20.53
17.67
15.92
15.16
15.10
15.41
15.75
15.84
15.44
14.27
12.10
8.79
4.42
-0.69
-6.03
-11.04
-15.36
-18.95
-22.14
-25.47
-29.51
-34.53
-40.30
-46.06
-50.55
-52.36
-50.28
-43.74
-32.99
-19.17
-3.99
10.65
23.21
32.74
38.95
42.11
42.75
41.36
38.41
34.27
29.39
24.36
19.82
16.38
14.41
13.88
14.40
15.31
15.90
15.64
14.22
11.65
8.11
3.93
-0.58
-5.16
-9.66
-14.07
-18.50
-23.15
-28.24
-33.94
-40.17
-46.52
-52.09
-55.59
-55.64
-51.14
-41.80
-28.32
-12.34
4.00
18.70
30.34
38.39
43.08
45.07
45.06
43.59
40.97
37.42
33.22
28.80
24.69
21.41
19.29
18.32
18.19
18.40
18.36
17.63
15.92
13.21
9.62
5.38
0.80
-3.87
-8.42
-12.76
-16.89
-20.96
-25.27
-30.20
-36.03
-42.65
-49.35
-54.72
-56.97
-54.53
-46.69
-33.98
-18.10
-1.37
14.02
26.63
35.95
42.17
45.72
46.96
46.10
43.37
39.19
34.30
29.50
25.47
22.55
20.64
19.48
18.70
18.10
17.57
17.05
16.39
15.33
13.52
10.65
6.64
1.67
-3.81
-9.28
-14.26
-18.59
-22.43
-26.25
-30.61
-35.93
-42.23
-48.93
-54.84
-58.38
-57.98
-52.60
-42.17
-27.78
-11.40
4.66
18.41
28.70
35.31
38.75
39.75
39.04
37.07
34.12
30.46
26.44
22.52
19.13
16.56
14.89
13.97
13.51
13.13
12.50
11.39
9.66
7.30
4.38
1.01
-2.67
-6.57
-10.59
-14.68
-18.81
-23.02
-27.49
-32.41
-37.95
-43.90
-49.48
-53.37
-53.93
-49.90
-40.86
-27.65
-12.10
3.49
17.08
27.44
34.27
37.96
39.18
38.50
36.30
32.84
28.43
23.57
18.91
15.07
12.45
11.10
10.76
10.95
11.21
11.14
10.49
9.13
6.98
4.03
0.35
-3.90
-8.43
-12.96
-17.26
-21.34
-25.40
-29.75
-34.74
-40.52
-46.79
-52.71
-56.91
-57.80
-54.11
-45.36
-32.20
-16.30
0.16
15.11
27.14
35.68
40.87
43.25
43.41
41.92
39.28
35.97
32.43
29.03
25.92
23.12
20.60
18.35
16.47
15.05
14.13
13.55
12.99
12.06
10.36
7.69
4.03
-0.41
-5.30
-10.26
-14.99
-19.33
-23.35
-27.32
-31.65
-36.75
-42.76
-49.30
-55.32
-59.21
-59.25
-54.19
-43.84
-29.28
-12.57
3.88
18.06
28.85
36.10
40.28
42.08
42.03
40.49
37.71
34.10
30.21
26.68
23.94
22.11
20.97
20.11
19.16
18.03
16.81
15.65
14.53
13.23
11.32
8.47
4.62
0.02
-4.84
-9.45
-13.50
-16.99
-20.19
-23.56
-27.60
-32.67
-38.81
-45.51
-51.70
-55.79
-56.16
-51.61
-41.94
-28.11
-12.03
4.00
17.92
28.46
35.31
38.91
40.01
39.38
37.50
34.68
31.09
27.01
22.82
18.97
15.85
13.70
12.53
12.15
12.20
12.29
12.04
11.15
9.48
6.98
3.75
-0.08
-4.31
-8.75
-13.19
-17.44
-21.42
-25.21
-29.13
-33.57
-38.80
-44.66
-50.27
-54.21
-54.80
-50.83
-42.00
-29.18
-14.15
0.98
14.42
25.12
32.78
37.60
39.94
40.05
38.11
34.37
29.36
23.86
18.79
14.91
12.63
11.86
12.23
13.21
14.28
15.04
15.13
14.26
12.21
8.96
4.70
-0.11
-4.97
-9.46
-13.43
-17.06
-20.77
-25.04
-30.26
-36.45
-43.10
-49.09
-52.87
-52.83
-47.91
-38.06
-24.32
-8.66
6.70
19.88
29.78
36.10
39.17
39.61
38.04
35.04
31.16
26.91
22.80
19.22
16.39
14.36
12.95
11.95
11.16
10.47
9.85
9.24
8.48
7.31
5.44
2.67
-0.96
-5.18
-9.65
-14.05
-18.24
-22.33
-26.52
-31.09
-36.30
-42.23
-48.65
-54.82
-59.43
-60.87
-57.71
-49.24
-35.99
-19.62
-2.44
13.26
25.92
34.91
40.40
43.00
43.36
42.01
39.34
35.71
31.58
27.43
23.75
20.85
18.88
17.76
17.28
17.15
17.11
16.92
16.34
15.14
13.07
9.98
5.87
1.00
-4.13
-8.99
-13.21
-16.74
-19.86
-23.16
-27.30
-32.79
-39.72
-47.46
-54.68
-59.51
-60.03
-54.95
-44.16
-28.84
-11.22
6.16
21.17
32.57
40.09
44.16
45.45
44.62
42.21
38.64
34.35
29.85
25.58
21.91
19.03
16.97
15.63
14.84
14.39
14.04
13.53
12.60
10.98
8.52
5.20
1.18
-3.27
-7.84
-12.28
-16.55
-20.77
-25.24
-30.36
-36.39
-43.23
-50.12
-55.72
-58.27
-56.25
-48.91
-36.71
-21.27
-4.85
10.30
22.59
31.31
36.52
38.70
38.39
36.11
32.29
27.43
22.13
17.03
12.76
9.78
8.28
8.16
8.99
10.15
11.02
11.10
10.16
8.18
5.35
1.92
-1.87
-5.79
-9.69
-13.42
-16.98
-20.52
-24.35
-28.96
-34.69
-41.43
-48.39
-54.06
-56.56
-54.25
-46.43
-33.66
-17.71
-0.96
14.32
26.64
35.44
40.96
43.74
44.31
43.08
40.33
36.46
31.97
27.44
23.41
20.23
18.01
16.68
16.08
15.96
16.08
16.14
15.84
14.85
12.90
9.85
5.75
0.87
-4.37
-9.52
-14.25
-18.46
-22.32
-26.25
-30.75
-36.20
-42.56
-49.19
-54.81
-57.74
-56.41
-49.95
-38.59
-23.68
-7.28
8.45
21.86
32.09
39.02
42.98
44.48
43.93
41.75
38.40
34.42
30.38
26.78
23.90
21.79
20.31
19.28
18.50
17.89
17.36
16.76
15.84
14.26
11.72
8.13
3.65
-1.32
-6.27
-10.80
-14.73
-18.13
-21.37
-24.89
-29.20
-34.61
-41.09
-48.02
-54.19
-57.90
-57.49
-51.85
-40.97
-26.07
-9.24
7.13
21.11
31.61
38.48
42.16
43.29
42.44
39.96
36.20
31.57
26.67
22.18
18.68
16.46
15.46
15.32
15.52
15.68
15.52
14.94
13.89
12.25
9.83
6.50
2.29
-2.53
-7.49
-12.16
-16.30
-19.96
-23.50
-27.42
-32.15
-37.84
-44.16
-50.16
-54.42
-55.36
-51.74
-43.19
-30.42
-15.14
0.44
14.27
24.98
32.15
36.09
37.49
37.03
35.12
32.00
27.86
23.06
18.18
13.91
10.83
9.26
9.10
9.92
11.07
11.89
11.90
10.81
8.57
5.37
1.48
-2.75
-7.05
-11.23
-15.22
-19.11
-23.08
-27.46
-32.56
-38.52
-45.02
-51.12
-55.28
-55.73
-51.16
-41.26
-27.05
-10.55
5.78
19.89
30.64
37.84
41.94
43.57
43.21
41.14
37.69
33.35
28.83
24.82
21.79
19.82
18.64
17.85
17.15
16.43
15.74
15.08
14.25
12.84
10.41
6.73
1.92
-3.49
-8.84
-13.61
-17.61
-21.04
-24.33
-28.00
-32.46
-37.89
-44.15
-50.65
-56.26
-59.45
-58.64
-52.79
-41.90
-27.17
-10.69
5.20
18.66
28.74
35.40
39.16
40.64
40.34
38.57
35.62
31.89
27.88
24.17
21.20
19.15
17.95
17.29
16.79
16.17
15.26
14.08
12.64
10.89
8.59
5.47
1.33
-3.77
-9.44
-15.10
-20.23
-24.62
-28.42
-32.11
-36.23
-41.11
-46.71
-52.45
-57.29
-59.85
-58.78
-53.15
-42.82
-28.59
-12.10
4.68
19.99
32.64
42.17
48.63
52.28
53.38
52.17
49.03
44.56
39.62
35.06
31.49
29.08
27.61
26.59
25.59
24.43
23.10
21.76
20.46
19.09
17.36
14.98
11.78
7.79
3.29
-1.31
-5.59
-9.24
-12.16
-14.54
-16.82
-19.60
-23.41
-28.45
-34.30
-39.91
-43.80
-44.50
-41.13
-33.69
-23.18
-11.19
0.55
10.72
18.59
24.02
27.20
28.45
28.03
26.24
23.41
20.00
16.50
13.37
10.94
9.33
8.58
8.55
9.06
9.78
10.29
10.18
9.08
6.87
3.62
-0.41
-4.89
-9.56
-14.21
-18.72
-22.98
-26.93
-30.57
-33.99
-37.35
-40.65
-43.59
-45.41
-45.06
-41.54
-34.37
-23.87
-11.21
1.95
13.94
23.53
30.20
34.00
35.34
34.70
32.51
29.15
25.09
20.94
17.31
14.69
13.24
12.79
12.90
13.12
13.15
12.89
12.38
11.60
10.40
8.50
5.63
1.72
-3.05
-8.21
-13.20
-17.54
-21.05
-23.87
-26.47
-29.44
-33.38
-38.51
-44.56
-50.51
-54.87
-56.01
-52.70
-44.63
-32.55
-18.10
-3.24
10.29
21.39
29.66
35.18
38.25
39.17
38.25
35.89
32.65
29.18
26.05
23.61
21.87
20.65
19.64
18.66
17.67
16.75
16.00
15.41
14.78
13.79
12.06
9.35
5.59
1.00
-4.02
-9.00
-13.51
-17.31
-20.47
-23.33
-26.46
-30.44
-35.55
-41.50
-47.34
-51.61
-52.71
-49.50
-41.72
-30.14
-16.30
-2.05
11.02
21.91
30.23
36.05
39.56
40.98
40.51
38.38
35.03
31.05
27.15
23.89
21.58
20.18
19.40
18.82
18.15
17.29
16.37
15.54
14.82
13.95
12.48
9.97
6.22
1.43
-3.86
-9.03
-13.65
-17.60
-21.08
-24.43
-27.99
-32.02
-36.64
-41.76
-47.03
-51.66
-54.49
-54.17
-49.64
-40.64
-27.91
-13.10
1.76
14.81
24.90
31.67
35.36
36.51
35.68
33.31
29.78
25.57
21.22
17.30
14.33
12.57
12.02
12.45
13.45
14.63
15.61
16.10
15.87
14.69
12.44
9.09
4.83
0.04
-4.81
-9.29
-13.22
-16.73
-20.29
-24.50
-29.89
-36.54
-43.89
-50.64
-55.07
-55.51
-50.97
-41.53
-28.36
-13.38
1.36
14.18
24.13
30.97
34.88
36.25
35.47
32.94
29.12
24.64
20.21
16.52
14.10
13.10
13.28
14.09
14.92
15.31
15.09
14.36
13.29
11.93
10.07
7.34
3.45
-1.56
-7.23
-12.82
-17.67
-21.42
-24.28
-26.89
-30.09
-34.55
-40.52
-47.62
-54.82
-60.64
-63.41
-61.73
-54.89
-43.15
-27.79
-10.83
5.58
19.67
30.45
37.73
41.92
43.63
43.38
41.55
38.45
34.50
30.24
26.35
23.35
21.49
20.62
20.36
20.25
19.95
19.37
18.56
17.59
16.37
14.56
11.78
7.74
2.50
-3.49
-9.47
-14.72
-18.79
-21.79
-24.32
-27.25
-31.44
-37.36
-44.90
-53.17
-60.66
-65.47
-65.84
-60.67
-49.95
-34.80
-17.18
0.69
16.94
30.42
40.69
47.82
52.06
53.67
52.93
50.26
46.28
41.76
37.49
34.02
31.58
30.09
29.24
28.68
28.18
27.62
27.00
26.24
25.17
23.39
20.42
15.89
9.77
2.48
-5.13
-12.09
-17.62
-21.48
-23.99
-25.95
-28.30
-31.82
-36.90
-43.35
-50.34
-56.46
-59.97
-59.22
-53.26
-42.21
-27.39
-10.95
4.76
17.87
27.47
33.51
36.55
37.31
36.37
34.10
30.79
26.77
22.49
18.46
15.11
12.75
11.48
11.20
11.65
12.44
13.13
13.26
12.49
10.66
7.80
4.12
-0.08
-4.53
-8.97
-13.24
-17.28
-21.14
-25.03
-29.31
-34.27
-39.88
-45.49
-49.77
-51.04
-47.85
-39.61
-26.96
-11.67
3.98
17.88
28.68
35.98
40.09
41.58
41.02
38.74
35.06
30.39
25.35
20.66
16.95
14.53
13.32
12.96
12.94
12.93
12.75
12.43
11.99
11.27
9.92
7.50
3.73
-1.32
-7.11
-12.89
-17.95
-21.95
-25.07
-27.93
-31.37
-36.08
-42.29
-49.59
-56.80
-62.22
-63.96
-60.55
-51.48
-37.52
-20.52
-2.92
13.06
25.91
35.13
40.93
43.88
44.52
43.26
40.43
36.49
32.07
27.88
24.49
22.15
20.79
20.08
19.64
19.23
18.77
18.29
17.81
17.19
16.12
14.19
11.09
6.73
1.40
-4.36
-9.87
-14.64
-18.53
-21.82
-25.08
-29.00
-34.05
-40.23
-46.95
-53.01
-56.82
-56.81
-51.95
-42.16
-28.44
-12.65
3.06
16.81
27.53
34.98
39.51
41.69
42.03
40.82
38.31
34.89
31.12
27.63
24.95
23.28
22.49
22.18
21.93
21.46
20.73
19.80
18.76
17.52
15.82
13.29
9.63
4.82
-0.86
-6.81
-12.33
-16.86
-20.20
-22.58
-24.62
-27.14
-30.84
-36.08
-42.62
-49.57
-55.46
-58.62
-57.57
-51.57
-40.88
-26.78
-11.17
3.89
16.78
26.55
32.98
36.34
37.16
35.97
33.30
29.62
25.45
21.27
17.52
14.53
12.50
11.44
11.22
11.58
12.18
12.63
12.60
11.82
10.16
7.61
4.31
0.45
-3.73
-7.98
-12.17
-16.25
-20.29
-24.48
-29.06
-34.19
-39.72
-44.99
-48.88
-49.99
-47.12
-39.77
-28.44
-14.54
-0.04
13.20
23.88
31.50
36.20
38.39
38.48
36.75
33.48
29.08
24.19
19.62
16.08
13.94
13.14
13.26
13.71
14.08
14.18
14.01
13.63
12.92
11.59
9.23
5.61
0.80
-4.72
-10.29
-15.25
-19.26
-22.44
-25.28
-28.51
-32.80
-38.46
-45.25
-52.28
-58.10
-60.98
-59.47
-52.85
-41.48
-26.79
-10.86
4.20
16.85
26.43
33.13
37.57
40.35
41.77
41.82
40.43
37.73
34.20
30.57
27.51
25.41
24.23
23.59
23.05
22.28
21.22
19.98
18.69
17.37
15.80
13.61
10.46
6.20
1.00
-4.68
-10.17
-14.88
-18.55
-21.34
-23.79
-26.68
-30.67
-36.07
-42.65
-49.62
-55.66
-59.20
-58.78
-53.50
-43.40
-29.57
-13.85
1.62
15.07
25.53
32.89
37.62
40.35
41.51
41.29
39.71
36.95
33.43
29.80
26.78
24.85
24.11
24.22
24.61
24.65
23.98
22.59
20.77
18.92
17.30
15.89
14.31
12.07
8.74
4.24
-1.12
-6.74
-11.96
-16.35
-19.80
-22.59
-25.21
-28.18
-31.92
-36.66
-42.32
-48.44
-54.15
-58.18
-59.17
-56.00
-48.25
-36.38
-21.74
-6.20
8.32
20.35
29.14
34.65
37.30
37.67
36.32
33.70
30.20
26.31
22.55
19.43
17.27
16.09
15.62
15.48
15.37
15.22
15.15
15.32
15.66
15.84
15.30
13.48
10.09
5.29
-0.34
-5.98
-10.90
-14.74
-17.61
-20.02
-22.70
-26.28
-31.08
-36.94
-43.16
-48.54
-51.63
-51.09
-46.13
-36.83
-24.25
-10.12
3.62
15.40
24.30
30.17
33.34
34.31
33.55
31.37
28.09
24.14
20.08
16.53
14.01
12.74
12.58
13.10
13.78
14.20
14.15
13.63
12.70
11.38
9.53
6.90
3.32
-1.20
-6.33
-11.51
-16.15
-19.90
-22.79
-25.30
-28.14
-32.02
-37.32
-43.84
-50.70
-56.49
-59.52
-58.35
-52.26
-41.54
-27.45
-11.88
3.21
16.28
26.50
33.71
38.19
40.37
40.62
39.32
36.83
33.61
30.21
27.13
24.68
22.98
21.91
21.24
20.70
20.14
19.50
18.80
18.03
17.09
15.72
13.57
10.34
5.95
0.60
-5.15
-10.64
-15.32
-19.00
-21.96
-24.80
-28.27
-32.94
-38.91
-45.72
-52.26
-57.05
-58.53
-55.50
-47.57
-35.36
-20.37
-4.61
10.01
22.13
31.17
37.20
40.62
41.88
41.33
39.27
36.05
32.19
28.33
25.12
22.96
21.91
21.69
21.81
21.79
21.31
20.35
19.10
17.78
16.45
14.99
13.01
10.15
6.19
1.25
-4.24
-9.62
-14.30
-17.98
-20.78
-23.20
-25.92
-29.53
-34.38
-40.38
-46.99
-53.15
-57.44
-58.35
-54.78
-46.38
-33.89
-18.91
-3.48
10.52
21.84
30.02
35.19
37.76
38.16
36.77
33.96
30.21
26.10
22.21
18.99
16.68
15.28
14.64
14.53
14.71
15.00
15.19
15.06
14.39
12.95
10.58
7.24
3.10
-1.52
-6.22
-10.62
-14.51
-17.92
-21.10
-24.50
-28.57
-33.62
-39.54
-45.62
-50.57
-52.78
-50.84
-44.10
-32.99
-18.95
-4.02
9.86
21.32
29.78
35.26
38.06
38.48
36.79
33.34
28.70
23.68
19.14
15.73
13.69
12.85
12.73
12.85
12.90
12.82
12.69
12.52
12.19
11.32
9.46
6.29
1.78
-3.67
-9.43
-14.80
-19.34
-22.99
-26.08
-29.15
-32.77
-37.33
-42.88
-49.00
-54.74
-58.69
-59.30
-55.32
-46.33
-33.01
-17.08
-0.79
13.79
25.34
33.50
38.59
41.24
41.97
41.05
38.68
35.13
31.00
27.05
23.99
22.20
21.58
21.62
21.68
21.28
20.33
19.03
17.70
16.50
15.21
13.36
10.46
6.28
1.05
-4.60
-9.94
-14.44
-18.00
-20.96
-23.89
-27.42
-31.98
-37.70
-44.29
-51.01
-56.61
-59.55
-58.37
-52.25
-41.38
-27.02
-11.19
4.01
16.99
26.97
33.96
38.36
40.58
40.92
39.55
36.71
32.91
28.87
25.33
22.83
21.53
21.14
21.16
21.09
20.63
19.79
18.80
17.83
16.87
15.61
13.59
10.42
6.02
0.71
-4.88
-10.11
-14.52
-18.03
-20.98
-23.90
-27.41
-31.96
-37.74
-44.40
-51.07
-56.32
-58.51
-56.22
-48.83
-36.82
-21.70
-5.61
9.37
21.69
30.66
36.28
39.00
39.38
37.93
35.10
31.31
27.06
22.85
19.15
16.30
14.45
13.56
13.44
13.83
14.40
14.84
14.80
14.00
12.20
9.29
5.38
0.75
-4.17
-8.92
-13.19
-16.92
-20.38
-24.05
-28.49
-34.04
-40.57
-47.28
-52.78
-55.39
-53.63
-46.79
-35.25
-20.45
-4.48
10.52
22.96
32.06
37.82
40.65
41.08
39.54
36.41
32.19
27.49
23.03
19.38
16.85
15.39
14.77
14.72
15.05
15.64
16.33
16.84
16.68
15.35
12.49
8.06
2.43
-3.76
-9.76
-14.97
-19.15
-22.45
-25.36
-28.54
-32.64
-38.05
-44.74
-51.99
-58.46
-62.37
-61.98
-56.21
-45.14
-30.05
-13.09
3.41
17.62
28.60
36.26
40.98
43.26
43.49
41.98
39.12
35.46
31.72
28.52
26.21
24.78
23.91
23.19
22.31
21.20
20.01
18.96
18.09
17.17
15.75
13.31
9.56
4.59
-1.13
-6.94
-12.25
-16.79
-20.66
-24.28
-28.22
-32.99
-38.91
-45.80
-52.91
-58.83
-61.81
-60.23
-53.19
-41.02
-25.25
-8.19
7.84
21.15
31.08
37.76
41.76
43.61
43.59
41.81
38.53
34.28
29.91
26.32
24.15
23.49
23.92
24.68
25.10
24.79
23.83
22.61
21.50
20.60
19.60
17.89
14.89
10.34
4.52
-1.89
-8.01
-13.15
-17.10
-20.16
-23.00
-26.36
-30.83
-36.60
-43.37
-50.32
-56.19
-59.43
-58.63
-52.95
-42.50
-28.42
-12.61
2.82
16.18
26.55
33.80
38.30
40.54
40.85
39.42
36.46
32.44
28.09
24.27
21.66
20.47
20.43
20.91
21.23
21.01
20.24
19.19
18.14
17.14
15.95
14.10
11.21
7.12
2.06
-3.44
-8.75
-13.36
-17.06
-20.02
-22.68
-25.60
-29.33
-34.19
-40.09
-46.45
-52.14
-55.68
-55.59
-50.86
-41.41
-28.21
-13.08
1.83
14.73
24.58
31.16
34.82
36.11
35.43
33.09
29.42
24.94
20.33
16.33
13.49
11.98
11.63
12.01
12.65
13.22
13.53
13.44
12.85
11.56
9.35
6.12
1.96
-2.79
-7.59
-11.97
-15.66
-18.81
-21.91
-25.63
-30.48
-36.57
-43.42
-49.90
-54.50
-55.63
-52.19
-43.92
-31.58
-16.78
-1.49
12.45
23.82
32.15
37.58
40.53
41.46
40.66
38.36
34.85
30.60
26.29
22.63
20.20
19.23
19.49
20.35
21.09
21.13
20.25
18.69
16.85
15.08
13.38
11.39
8.59
4.62
-0.45
-6.12
-11.64
-16.32
-19.91
-22.58
-24.89
-27.49
-30.89
-35.36
-40.91
-47.28
-53.85
-59.58
-63.07
-62.81
-57.71
-47.53
-33.21
-16.59
0.02
14.60
25.94
33.73
38.42
40.74
41.35
40.67
38.90
36.23
33.00
29.73
27.02
25.34
24.79
25.11
25.71
26.03
25.69
24.62
23.00
21.06
18.94
16.60
13.92
10.80
7.21
3.22
-1.10
-5.69
-10.53
-15.54
-20.52
-25.18
-29.21
-32.44
-34.99
-37.28
-39.94
-43.65
-48.82
-55.32
-62.28
-68.10
-70.87
-68.89
-61.32
-48.51
-31.97
-13.94
3.34
18.19
29.76
37.96
43.19
45.99
46.86
46.30
44.75
42.66
40.42
38.34
36.63
35.35
34.50
34.01
33.72
33.41
32.82
31.69
29.88
27.40
24.43
21.16
17.73
14.20
10.49
6.51
2.30
-2.01
-6.20
-10.05
-13.46
-16.49
-19.32
-22.13
-25.07
-28.25
-31.78
-35.86
-40.64
-46.02
-51.44
-55.70
-57.27
-54.74
-47.44
-35.79
-21.26
-5.93
8.22
19.86
28.49
34.25
37.56
38.74
37.96
35.39
31.36
26.53
21.83
18.11
15.96
15.37
15.86
16.69
17.14
16.87
15.98
14.81
13.73
12.82
11.83
10.27
7.68
3.90
-0.82
-5.91
-10.72
-14.75
-17.86
-20.28
-22.48
-24.99
-28.20
-32.31
-37.28
-42.76
-48.05
-52.07
-53.56
-51.35
-44.83
-34.25
-20.79
-6.30
7.24
18.31
26.12
30.61
32.19
31.43
28.90
25.13
20.68
16.18
12.24
9.26
7.43
6.65
6.67
7.19
7.96
8.79
9.45
9.71
9.28
7.96
5.71
2.64
-1.00
-4.86
-8.64
-12.17
-15.48
-18.79
-22.47
-26.94
-32.42
-38.71
-45.01
-49.89
-51.72
-49.13
-41.68
-30.04
-15.90
-1.36
11.70
22.16
29.70
34.58
37.21
37.86
36.66
33.75
29.53
24.72
20.22
16.80
14.85
14.29
14.63
15.22
15.57
15.45
14.94
14.16
13.13
11.62
9.24
5.69
0.94
-4.61
-10.27
-15.35
-19.44
-22.58
-25.27
-28.22
-32.13
-37.43
-44.06
-51.41
-58.35
-63.36
-64.92
-61.89
-53.92
-41.62
-26.45
-10.32
4.93
17.93
27.96
34.95
39.18
41.09
41.12
39.63
37.01
33.72
30.32
27.39
25.36
24.32
24.06
24.12
24.04
23.59
22.83
22.00
21.22
20.35
18.89
16.24
12.03
6.38
-0.10
-6.51
-12.03
-16.33
-19.62
-22.57
-26.01
-30.61
-36.64
-43.82
-51.31
-57.77
-61.60
-61.32
-55.97
-45.57
-31.15
-14.57
2.04
16.86
28.73
37.29
42.72
45.42
45.80
44.23
41.16
37.19
33.09
29.63
27.35
26.41
26.56
27.25
27.86
27.93
27.30
26.05
24.41
22.54
20.39
17.74
14.23
9.71
4.29
-1.58
-7.23
-12.10
-15.95
-19.02
-21.86
-25.20
-29.61
-35.35
-42.22
-49.52
-56.06
-60.32
-60.77
-56.35
-46.89
-33.31
-17.45
-1.51
12.56
23.56
31.17
35.76
37.93
38.25
37.07
34.67
31.36
27.61
23.99
21.06
19.15
18.28
18.19
18.51
18.87
19.01
18.76
17.95
16.40
13.96
10.58
6.43
1.81
-2.89
-7.36
-11.52
-15.48
-19.54
-24.06
-29.31
-35.22
-41.20
-46.10
-48.40
-46.71
-40.35
-29.74
-16.38
-2.32
10.48
20.80
28.28
33.23
36.12
37.27
36.75
34.60
31.14
27.00
23.04
19.96
18.09
17.28
17.06
16.93
16.59
16.00
15.26
14.46
13.46
11.95
9.53
5.96
1.29
-4.13
-9.73
-14.98
-19.54
-23.43
-27.00
-30.85
-35.63
-41.67
-48.73
-55.86
-61.49
-63.84
-61.49
-53.95
-41.91
-27.06
-11.57
2.61
14.20
22.86
28.86
32.75
34.97
35.75
35.22
33.58
31.28
28.94
27.11
26.06
25.65
25.44
24.90
23.78
22.17
20.44
18.97
17.89
16.95
15.62
13.43
10.20
6.18
1.89
-2.09
-5.50
-8.49
-11.58
-15.43
-20.58
-27.25
-35.17
-43.57
-51.22
-56.63
-58.34
-55.42
-47.72
-36.02
-21.87
-7.13
6.52
17.98
26.83
33.16
37.31
39.57
40.12
39.07
36.61
33.13
29.24
25.63
22.87
21.23
20.58
20.55
20.73
20.83
20.85
20.92
21.11
21.27
21.00
19.79
17.27
13.45
8.76
3.88
-0.54
-4.14
-7.05
-9.75
-12.92
-17.13
-22.60
-29.16
-36.16
-42.57
-47.15
-48.72
-46.44
-40.16
-30.51
-18.84
-6.82
4.10
12.96
19.53
24.07
26.99
28.62
29.06
28.33
26.60
24.21
21.68
19.55
18.11
17.36
17.02
16.68
16.03
15.00
13.72
12.47
11.41
10.47
9.27
7.34
4.29
0.06
-4.97
-10.18
-14.89
-18.71
-21.66
-24.12
-26.72
-30.01
-34.28
-39.36
-44.56
-48.75
-50.62
-49.03
-43.50
-34.35
-22.70
-10.11
1.84
12.03
19.91
25.39
28.67
29.96
29.45
27.32
23.87
19.53
14.92
10.73
7.53
5.74
5.46
6.46
8.22
10.10
11.47
11.88
11.16
9.40
6.81
3.67
0.23
-3.33
-6.94
-10.62
-14.45
-18.63
-23.35
-28.71
-34.44
-39.81
-43.65
-44.57
-41.47
-33.99
-22.78
-9.33
4.42
16.71
26.40
33.08
36.99
38.60
38.38
36.65
33.64
29.64
25.08
20.53
16.54
13.53
11.62
10.66
10.32
10.24
10.07
9.54
8.43
6.56
3.80
0.19
-4.03
-8.50
-12.82
-16.75
-20.32
-23.86
-27.82
-32.58
-38.23
-44.40
-50.17
-54.22
-55.16
-51.97
-44.34
-32.89
-19.05
-4.63
8.65
19.60
27.70
33.00
35.85
36.67
35.86
33.81
30.95
27.74
24.59
21.81
19.51
17.63
16.06
14.76
13.76
13.13
12.89
12.85
12.64
11.80
9.94
6.92
2.91
-1.67
-6.31
-10.59
-14.28
-17.43
-20.31
-23.33
-26.95
-31.52
-37.08
-43.13
-48.56
-51.82
-51.39
-46.30
-36.59
-23.42
-8.70
5.48
17.52
26.62
32.76
36.43
38.17
38.40
37.31
35.09
32.02
28.61
25.41
22.89
21.23
20.28
19.64
18.93
17.93
16.72
15.50
14.40
13.37
12.07
10.08
7.06
2.95
-1.94
-7.08
-11.85
-15.82
-18.86
-21.20
-23.34
-25.92
-29.47
-34.24
-39.99
-45.95
-50.84
-53.16
-51.58
-45.44
-35.08
-21.84
-7.67
5.49
16.27
24.13
29.29
32.34
33.78
33.84
32.54
29.96
26.44
22.62
19.24
16.85
15.60
15.26
15.32
15.31
14.98
14.38
13.74
13.25
12.85
12.23
10.87
8.35
4.55
-0.24
-5.37
-10.14
-14.01
-16.90
-19.06
-21.02
-23.28
-26.29
-30.23
-35.03
-40.26
-45.03
-48.08
-48.04
-43.94
-35.56
-23.75
-10.17
3.21
14.70
23.38
29.06
32.12
33.09
32.38
30.29
27.09
23.18
19.10
15.45
12.68
10.95
10.12
9.84
9.78
9.74
9.66
9.52
9.23
8.56
7.22
4.99
1.88
-1.83
-5.70
-9.32
-12.48
-15.27
-18.06
-21.29
-25.35
-30.33
-35.87
-41.14
-44.93
-45.92
-43.12
-36.16
-25.61
-12.80
0.50
12.55
22.14
28.77
32.57
33.96
33.40
31.18
27.57
22.89
17.72
12.82
8.94
6.51
5.55
5.64
6.21
6.76
7.04
7.05
6.85
6.38
5.40
3.56
0.63
-3.34
-8.01
-12.78
-17.05
-20.46
-23.00
-25.02
-27.18
-30.19
-34.55
-40.27
-46.63
-52.23
-55.31
-54.29
-48.33
-37.72
-23.83
-8.64
5.83
18.12
27.47
33.81
37.41
38.66
37.94
35.62
32.18
28.15
24.17
20.77
18.31
16.88
16.31
16.24
16.31
16.26
15.98
15.52
14.90
14.07
12.77
10.66
7.50
3.28
-1.70
-6.94
-11.85
-16.01
-19.29
-21.89
-24.35
-27.33
-31.40
-36.82
-43.23
-49.61
-54.41
-55.95
-52.94
-45.01
-32.86
-18.14
-2.87
11.07
22.44
30.79
36.20
39.03
39.64
38.29
35.31
31.19
26.68
22.56
19.43
17.53
16.66
16.37
16.18
15.84
15.33
14.79
14.36
13.95
13.27
11.89
9.41
5.71
1.01
-4.18
-9.18
-13.47
-16.83
-19.48
-21.95
-24.90
-28.89
-34.16
-40.45
-46.94
-52.31
-54.98
-53.60
-47.44
-36.82
-23.00
-7.92
6.46
18.65
27.91
34.18
37.78
39.07
38.36
35.88
31.98
27.22
22.36
18.21
15.38
14.13
14.29
15.35
16.70
17.85
18.58
18.91
18.98
18.76
18.03
16.39
13.46
9.17
3.83
-1.96
-7.51
-12.30
-16.13
-19.16
-21.86
-24.80
-28.53
-33.40
-39.33
-45.64
-51.08
-54.04
-53.11
-47.53
-37.58
-24.57
-10.37
3.13
14.58
23.29
29.18
32.43
33.33
32.12
29.18
25.07
20.55
16.44
13.36
11.60
11.06
11.40
12.20
13.10
13.83
14.16
13.85
12.67
10.49
7.38
3.64
-0.33
-4.16
-7.69
-10.98
-14.33
-18.09
-22.57
-27.94
-34.07
-40.41
-45.97
-49.36
-49.22
-44.60
-35.42
-22.62
-7.93
6.69
19.56
29.64
36.59
40.55
41.87
40.94
38.18
34.06
29.22
24.39
20.28
17.42
15.98
15.81
16.46
17.37
18.07
18.28
17.89
16.86
15.10
12.45
8.74
3.96
-1.62
-7.46
-12.91
-17.49
-21.06
-23.94
-26.72
-30.13
-34.69
-40.52
-47.12
-53.42
-57.87
-58.88
-55.26
-46.69
-33.91
-18.55
-2.61
12.11
24.41
33.84
40.43
44.43
46.08
45.59
43.28
39.70
35.57
31.70
28.73
26.90
26.04
25.70
25.33
24.57
23.34
21.85
20.38
19.09
17.79
16.04
13.28
9.21
3.97
-1.86
-7.45
-12.15
-15.77
-18.69
-21.62
-25.38
-30.46
-36.79
-43.73
-50.08
-54.38
-55.21
-51.58
-43.27
-30.97
-16.18
-0.79
13.35
24.96
33.48
39.02
42.09
43.22
42.83
41.18
38.51
35.18
31.68
28.56
26.27
25.01
24.65
24.80
25.02
24.93
24.37
23.33
21.89
20.06
17.69
14.55
10.43
5.36
-0.32
-6.01
-11.05
-14.99
-17.86
-20.09
-22.45
-25.70
-30.33
-36.37
-43.30
-50.12
-55.46
-57.85
-56.10
-49.64
-38.83
-24.88
-9.61
5.03
17.49
26.86
32.92
35.92
36.35
34.77
31.71
27.73
23.45
19.42
16.13
13.88
12.72
12.48
12.85
13.46
13.97
14.16
13.87
13.02
11.48
9.18
6.06
2.19
-2.18
-6.70
-11.01
-14.87
-18.34
-21.74
-25.55
-30.20
-35.81
-41.92
-47.45
-50.89
-50.75
-46.06
-36.80
-24.05
-9.63
4.42
16.46
25.62
31.79
35.33
36.70
36.21
34.06
30.57
26.28
22.00
18.51
16.30
15.39
15.38
15.70
15.88
15.75
15.40
14.95
14.39
13.43
11.67
8.71
4.47
-0.78
-6.41
-11.72
-16.17
-19.56
-22.14
-24.48
-27.26
-31.04
-36.11
-42.27
-48.85
-54.64
-58.11
-57.77
-52.69
-42.84
-29.31
-13.94
1.18
14.34
24.65
32.01
36.87
39.76
41.03
40.78
39.08
36.13
32.44
28.75
25.77
23.97
23.38
23.60
23.99
23.99
23.33
22.10
20.63
19.19
17.78
16.09
13.62
9.98
5.16
-0.46
-6.22
-11.42
-15.70
-19.01
-21.73
-24.34
-27.36
-31.16
-35.94
-41.57
-47.55
-52.90
-56.19
-55.98
-51.24
-41.90
-28.96
-14.26
0.12
12.53
22.16
29.01
33.54
36.29
37.56
37.45
36.01
33.50
30.38
27.28
24.76
23.13
22.42
22.36
22.58
22.69
22.45
21.75
20.61
19.11
17.30
15.19
12.69
9.69
6.12
1.98
-2.56
-7.22
-11.64
-15.48
-18.55
-20.90
-22.81
-24.73
-27.15
-30.49
-34.96
-40.45
-46.45
-52.00
-55.76
-56.34
-52.63
-44.34
-32.15
-17.63
-2.81
10.44
20.90
28.20
32.64
34.91
35.62
35.15
33.67
31.32
28.34
25.15
22.34
20.42
19.69
20.08
21.16
22.33
22.96
22.70
21.50
19.59
17.28
14.83
12.28
9.53
6.43
2.92
-0.91
-4.85
-8.64
-12.12
-15.19
-17.90
-20.33
-22.60
-24.89
-27.40
-30.43
-34.25
-38.91
-44.05
-48.78
-51.77
-51.59
-47.23
-38.52
-26.28
-12.16
1.87
14.14
23.61
30.03
33.71
35.17
34.90
33.23
30.46
26.96
23.28
20.07
17.86
16.91
17.07
17.85
18.66
19.07
18.90
18.25
17.33
16.24
14.98
13.38
11.25
8.48
5.07
1.13
-3.19
-7.58
-11.75
-15.35
-18.19
-20.32
-22.05
-23.88
-26.39
-29.95
-34.57
-39.81
-44.77
-48.23
-48.98
-46.05
-39.13
-28.71
-16.01
-2.70
9.55
19.48
26.52
30.66
32.27
31.77
29.55
26.00
21.62
17.10
13.16
10.47
9.29
9.48
10.54
11.80
12.71
13.00
12.67
11.90
10.86
9.57
7.83
5.40
2.04
-2.19
-6.96
-11.69
-15.79
-18.90
-21.10
-22.84
-24.81
-27.66
-31.80
-37.12
-42.97
-48.20
-51.39
-51.17
-46.72
-38.02
-25.95
-12.12
1.68
13.90
23.59
30.41
34.53
36.32
36.16
34.39
31.35
27.51
23.42
19.76
17.09
15.72
15.60
16.30
17.19
17.66
17.41
16.47
15.14
13.72
12.27
10.54
8.07
4.53
-0.09
-5.38
-10.61
-15.10
-18.46
-20.77
-22.50
-24.32
-26.87
-30.55
-35.48
-41.35
-47.41
-52.41
-54.89
-53.50
-47.53
-37.24
-23.90
-9.43
4.24
15.67
24.22
29.96
33.28
34.61
34.17
32.13
28.72
24.46
20.13
16.59
14.48
14.03
14.91
16.42
17.79
18.44
18.26
17.50
16.57
15.69
14.74
13.26
10.70
6.78
1.64
-4.09
-9.58
-14.13
-17.43
-19.66
-21.43
-23.51
-26.60
-31.09
-36.87
-43.25
-49.03
-52.70
-52.84
-48.59
-39.89
-27.63
-13.38
1.04
13.98
24.34
31.63
35.91
37.56
37.10
35.06
31.97
28.36
24.74
21.62
19.36
18.15
17.88
18.21
18.64
18.72
18.24
17.23
15.96
14.67
13.37
11.78
9.44
5.96
1.28
-4.19
-9.70
-14.50
-18.14
-20.71
-22.77
-25.11
-28.46
-33.14
-38.93
-45.02
-50.14
-52.83
-51.81
-46.40
-36.75
-23.87
-9.39
4.88
17.37
27.06
33.53
36.88
37.54
36.05
33.02
29.06
24.79
20.81
17.56
15.36
14.23
13.97
14.25
14.76
15.24
15.56
15.59
15.17
14.07
12.06
9.04
5.10
0.56
-4.14
-8.57
-12.48
-15.87
-19.00
-22.36
-26.48
-31.67
-37.77
-43.92
-48.69
-50.37
-47.64
-40.05
-28.32
-14.14
0.41
13.46
23.92
31.46
36.32
38.84
39.29
37.79
34.52
29.94
24.83
20.14
16.69
14.87
14.56
15.20
16.11
16.75
16.90
16.65
16.15
15.45
14.34
12.44
9.40
5.10
-0.20
-5.92
-11.39
-16.05
-19.74
-22.63
-25.17
-27.94
-31.50
-36.24
-42.24
-49.08
-55.71
-60.57
-61.88
-58.23
-49.19
-35.60
-19.37
-2.92
11.64
23.04
31.06
36.13
38.89
39.79
38.96
36.50
32.73
28.34
24.31
21.54
20.49
21.01
22.45
23.92
24.74
24.69
23.96
22.99
22.10
21.31
20.27
18.47
15.47
11.18
5.86
0.05
-5.60
-10.58
-14.66
-17.95
-20.85
-23.94
-27.83
-32.94
-39.29
-46.31
-52.81
-57.16
-57.77
-53.56
-44.44
-31.38
-16.18
-0.92
12.69
23.66
31.77
37.28
40.64
42.14
41.93
40.11
36.98
33.09
29.22
26.16
24.46
24.26
25.18
26.55
27.61
27.81
26.98
25.34
23.31
21.25
19.30
17.23
14.68
11.27
6.90
1.77
-3.61
-8.69
-13.06
-16.61
-19.55
-22.31
-25.33
-28.99
-33.50
-38.87
-44.80
-50.61
-55.17
-57.06
-54.97
-48.17
-36.92
-22.52
-6.99
7.60
19.68
28.58
34.42
37.77
39.19
39.03
37.47
34.70
31.11
27.34
24.13
22.05
21.30
21.66
22.58
23.42
23.72
23.32
22.35
21.08
19.70
18.17
16.20
13.45
9.62
4.76
-0.76
-6.32
-11.30
-15.26
-18.18
-20.35
-22.32
-24.63
-27.72
-31.77
-36.71
-42.15
-47.37
-51.33
-52.82
-50.71
-44.40
-34.09
-20.91
-6.62
6.88
18.10
26.25
31.29
33.58
33.62
31.81
28.51
24.17
19.48
15.22
12.11
10.50
10.26
10.92
11.87
12.71
13.29
13.68
13.88
13.70
12.72
10.50
6.82
1.91
-3.62
-8.98
-13.50
-16.89
-19.33
-21.35
-23.70
-27.02
-31.68
-37.53
-43.81
-49.19
-52.01
-50.82
-44.85
-34.37
-20.78
-6.07
7.66
18.91
27.04
32.21
35.02
36.06
35.70
34.02
31.13
27.35
23.28
19.75
17.44
16.63
17.08
18.11
18.93
19.02
18.26
16.95
15.55
14.34
13.23
11.80
9.52
6.02
1.35
-3.97
-9.24
-13.79
-17.29
-19.86
-21.99
-24.33
-27.43
-31.63
-36.94
-42.99
-49.02
-53.89
-56.24
-54.80
-48.86
-38.56
-25.02
-10.08
4.28
16.45
25.56
31.58
34.95
36.29
36.10
34.63
32.10
28.84
25.38
22.35
20.30
19.46
19.63
20.28
20.76
20.58
19.60
18.04
16.35
14.92
13.84
12.83
11.32
8.72
4.78
-0.31
-5.92
-11.23
-15.60
-18.85
-21.26
-23.44
-26.05
-29.55
-34.08
-39.43
-44.98
-49.75
-52.48
-51.88
-47.08
-37.95
-25.37
-11.03
3.08
15.22
24.42
30.52
33.97
35.37
35.17
33.60
30.85
27.25
23.39
20.05
17.83
17.01
17.33
18.13
18.71
18.62
17.83
16.66
15.51
14.58
13.73
12.50
10.41
7.19
2.91
-2.02
-6.98
-11.43
-15.05
-17.85
-20.13
-22.38
-25.12
-28.76
-33.45
-38.98
-44.70
-49.54
-52.18
-51.32
-46.15
-36.69
-23.95
-9.69
4.10
15.74
24.29
29.61
32.09
32.32
30.82
27.99
24.25
20.13
16.21
13.05
10.94
9.89
9.64
9.84
10.24
10.70
11.17
11.52
11.50
10.74
8.89
5.83
1.75
-2.86
-7.41
-11.40
-14.68
-17.40
-20.04
-23.13
-27.15
-32.22
-38.01
-43.62
-47.72
-48.80
-45.69
-38.00
-26.43
-12.57
1.53
14.03
23.77
30.45
34.37
36.04
35.88
34.09
30.87
26.58
21.90
17.67
14.67
13.30
13.44
14.48
15.61
16.18
15.90
14.93
13.66
12.44
11.26
9.75
7.36
3.69
-1.24
-6.95
-12.62
-17.50
-21.20
-23.82
-25.87
-28.10
-31.21
-35.68
-41.56
-48.39
-55.15
-60.32
-62.26
-59.64
-51.94
-39.74
-24.59
-8.60
6.19
18.38
27.40
33.39
36.86
38.32
38.15
36.55
33.85
30.51
27.17
24.49
22.89
22.43
22.80
23.42
23.76
23.48
22.59
21.37
20.14
19.02
17.86
16.20
13.53
9.51
4.26
-1.68
-7.53
-12.57
-16.48
-19.45
-22.07
-25.09
-29.14
-34.54
-41.11
-48.15
-54.47
-58.54
-58.87
-54.48
-45.23
-32.01
-16.52
-0.78
13.42
24.94
33.36
38.82
41.74
42.49
41.42
38.81
35.13
31.02
27.26
24.55
23.20
23.10
23.70
24.29
24.32
23.62
22.38
20.99
19.69
18.39
16.66
13.98
10.04
4.97
-0.68
-6.15
-10.81
-14.44
-17.29
-19.95
-23.07
-27.17
-32.40
-38.58
-45.10
-50.97
-54.90
-55.55
-51.89
-43.60
-31.36
-16.71
-1.64
11.97
22.86
30.51
35.03
36.86
36.49
34.31
30.77
26.41
21.92
17.98
15.12
13.56
13.20
13.68
14.59
15.56
16.31
16.62
16.28
15.06
12.78
9.35
4.90
-0.21
-5.44
-10.31
-14.54
-18.18
-21.61
-25.37
-29.95
-35.56
-41.89
-48.07
-52.75
-54.38
-51.64
-43.98
-31.84
-16.71
-0.72
13.98
25.83
34.15
39.09
41.29
41.44
40.05
37.46
34.01
30.17
26.55
23.81
22.33
22.12
22.72
23.41
23.51
22.65
20.86
18.58
16.28
14.23
12.23
9.79
6.35
1.69
-3.92
-9.75
-14.99
-19.13
-22.16
-24.54
-27.02
-30.29
-34.79
-40.60
-47.33
-54.09
-59.49
-61.90
-59.86
-52.60
-40.50
-25.05
-8.47
7.05
19.93
29.51
35.94
39.71
41.32
41.12
39.33
36.33
32.69
29.16
26.39
24.73
24.10
24.11
24.22
24.03
23.41
22.48
21.45
20.47
19.44
18.05
15.87
12.54
7.99
2.46
-3.48
-9.13
-13.90
-17.59
-20.41
-22.97
-26.03
-30.20
-35.67
-42.06
-48.40
-53.27
-55.15
-52.81
-45.70
-34.25
-19.83
-4.37
10.14
22.19
31.02
36.62
39.39
39.87
38.52
35.75
32.03
27.99
24.32
21.60
20.12
19.75
19.99
20.27
20.10
19.31
18.03
16.56
15.16
13.85
12.39
10.37
7.38
3.31
-1.57
-6.69
-11.36
-15.10
-17.92
-20.25
-22.87
-26.49
-31.44
-37.48
-43.77
-49.00
-51.77
-50.92
-45.89
-36.89
-24.89
-11.35
2.09
14.02
23.49
30.09
33.83
34.98
33.96
31.21
27.28
22.78
18.43
14.88
12.58
11.64
11.75
12.39
12.99
13.16
12.80
12.01
10.93
9.56
7.72
5.12
1.60
-2.76
-7.60
-12.38
-16.65
-20.23
-23.27
-26.24
-29.71
-34.12
-39.60
-45.75
-51.62
-55.82
-56.89
-53.67
-45.83
-33.98
-19.64
-4.74
8.91
20.10
28.40
33.94
37.14
38.36
37.82
35.69
32.30
28.27
24.38
21.43
19.88
19.70
20.47
21.48
22.12
22.02
21.19
19.85
18.26
16.56
14.67
12.32
9.21
5.23
0.47
-4.69
-9.76
-14.25
-17.87
-20.68
-23.03
-25.51
-28.71
-33.06
-38.63
-44.97
-51.09
-55.59
-56.93
-53.94
-46.22
-34.38
-19.98
-5.00
8.67
19.77
27.86
33.14
36.15
37.40
37.24
35.88
33.53
30.55
27.43
24.71
22.81
21.91
21.94
22.57
23.33
23.76
23.53
22.52
20.84
18.77
16.60
14.47
12.30
9.81
6.64
2.58
-2.26
-7.46
-12.41
-16.56
-19.70
-21.99
-23.91
-26.06
-28.92
-32.79
-37.68
-43.30
-48.97
-53.56
-55.65
-53.84
-47.33
-36.32
-22.11
-6.81
7.38
18.86
27.01
32.11
34.92
36.13
36.11
34.91
32.56
29.34
25.82
22.79
20.90
20.41
21.10
22.36
23.48
23.90
23.46
22.32
20.80
19.21
17.60
15.80
13.49
10.37
6.38
1.71
-3.22
-7.96
-12.14
-15.62
-18.45
-20.86
-23.11
-25.50
-28.31
-31.82
-36.24
-41.48
-46.96
-51.52
-53.63
-51.91
-45.62
-35.16
-21.90
-7.81
5.20
15.86
23.65
28.64
31.18
31.58
30.14
27.23
23.41
19.43
16.07
13.86
12.96
13.07
13.67
14.25
14.52
14.50
14.36
14.20
13.90
13.08
11.29
8.27
4.13
-0.61
-5.32
-9.44
-12.76
-15.45
-17.93
-20.69
-24.19
-28.63
-33.88
-39.34
-43.95
-46.34
-45.29
-40.08
-30.92
-18.91
-5.72
6.87
17.51
25.54
30.93
33.99
35.11
34.57
32.50
29.13
24.87
20.40
16.48
13.78
12.57
12.69
13.58
14.57
15.12
15.04
14.42
13.48
12.38
11.03
9.13
6.31
2.38
-2.57
-8.05
-13.35
-17.87
-21.29
-23.76
-25.83
-28.17
-31.35
-35.74
-41.30
-47.64
-53.86
-58.68
-60.54
-58.10
-50.72
-38.84
-24.01
-8.40
5.95
17.64
26.25
32.08
35.69
37.50
37.68
36.28
33.55
30.02
26.44
23.54
21.73
21.01
21.02
21.25
21.29
20.93
20.24
19.41
18.57
17.73
16.60
14.80
11.95
7.90
2.83
-2.74
-8.16
-12.83
-16.46
-19.17
-21.45
-23.98
-27.43
-32.21
-38.28
-44.99
-51.14
-55.12
-55.40
-50.96
-41.79
-28.93
-14.23
0.26
12.92
22.86
30.01
34.73
37.47
38.46
37.79
35.61
32.34
28.66
25.40
23.14
22.07
21.93
22.17
22.25
21.85
20.98
19.87
18.81
17.90
17.00
15.73
13.64
10.39
5.95
0.62
-5.01
-10.32
-14.85
-18.42
-21.21
-23.66
-26.35
-29.87
-34.55
-40.35
-46.59
-52.04
-55.06
-54.12
-48.38
-38.05
-24.38
-9.31
5.10
17.28
26.42
32.38
35.50
36.21
34.98
32.21
28.46
24.33
20.55
17.69
16.00
15.35
15.34
15.46
15.37
14.98
14.43
13.85
13.21
12.23
10.52
7.78
3.99
-0.54
-5.28
-9.73
-13.60
-16.91
-19.97
-23.20
-27.05
-31.77
-37.28
-42.99
-47.86
-50.50
-49.59
-44.33
-34.84
-22.22
-8.25
5.16
16.57
25.25
31.15
34.63
36.01
35.49
33.22
29.47
24.85
20.21
16.41
13.98
13.00
13.09
13.67
14.21
14.43
14.34
14.05
13.60
12.80
11.28
8.67
4.80
-0.14
-5.64
-11.04
-15.77
-19.57
-22.57
-25.25
-28.24
-32.17
-37.41
-43.88
-50.90
-57.18
-61.00
-60.72
-55.38
-45.09
-31.12
-15.52
-0.41
12.59
22.72
29.99
34.81
37.59
38.57
37.86
35.66
32.46
28.96
26.00
24.18
23.64
24.08
24.86
25.37
25.23
24.46
23.34
22.17
21.04
19.71
17.72
14.59
10.12
4.54
-1.58
-7.49
-12.59
-16.61
-19.69
-22.32
-25.15
-28.78
-33.62
-39.68
-46.43
-52.79
-57.25
-58.23
-54.55
-45.99
-33.39
-18.50
-3.37
10.21
21.24
29.52
35.38
39.24
41.38
41.82
40.56
37.86
34.32
30.77
28.01
26.48
26.14
26.51
26.96
26.96
26.30
25.09
23.60
22.06
20.49
18.67
16.25
12.95
8.72
3.77
-1.48
-6.54
-11.07
-14.95
-18.31
-21.46
-24.76
-28.55
-33.07
-38.43
-44.39
-50.33
-55.11
-57.31
-55.63
-49.33
-38.67
-24.89
-9.89
4.39
16.49
25.74
32.15
36.04
37.78
37.64
35.84
32.75
28.96
25.19
22.07
20.00
18.97
18.66
18.62
18.51
18.19
17.71
17.19
16.60
15.69
14.06
11.35
7.45
2.63
-2.56
-7.50
-11.72
-15.16
-18.10
-21.13
-24.83
-29.60
-35.40
-41.64
-47.20
-50.66
-50.67
-46.35
-37.67
-25.53
-11.55
2.38
14.67
24.33
31.08
35.15
36.94
36.80
34.93
31.61
27.36
22.94
19.19
16.73
15.71
15.76
16.22
16.53
16.42
15.98
15.45
14.93
14.19
12.70
9.92
5.56
-0.10
-6.33
-12.18
-16.90
-20.26
-22.57
-24.56
-27.04
-30.63
-35.61
-41.80
-48.54
-54.72
-58.82
-59.29
-55.02
-45.77
-32.46
-16.89
-1.26
12.55
23.45
31.22
36.24
39.08
40.15
39.65
37.75
34.73
31.16
27.73
25.07
23.49
22.93
22.95
23.02
22.76
22.00
20.87
19.53
18.06
16.32
14.01
10.78
6.49
1.32
-4.25
-9.61
-14.20
-17.73
-20.30
-22.37
-24.58
-27.63
-32.06
-37.97
-44.93
-51.82
-57.06
-58.92
-56.09
-48.20
-35.98
-21.15
-5.81
8.13
19.49
27.92
33.67
37.20
38.90
38.95
37.50
34.82
31.44
28.07
25.38
23.80
23.33
23.58
23.98
24.03
23.49
22.41
21.01
19.53
18.02
16.28
13.97
10.79
6.64
1.71
-3.55
-8.58
-12.91
-16.27
-18.76
-20.76
-22.86
-25.67
-29.67
-34.99
-41.30
-47.73
-52.93
-55.41
-53.87
-47.71
-37.29
-23.90
-9.36
4.43
16.10
24.97
31.01
34.56
36.02
35.68
33.79
30.71
26.98
23.30
20.29
18.34
17.45
17.30
17.37
17.20
16.55
15.43
14.05
12.65
11.34
9.99
8.27
5.84
2.50
-1.64
-6.18
-10.57
-14.39
-17.53
-20.22
-22.98
-26.36
-30.74
-36.12
-42.00
-47.45
-51.12
-51.66
-48.03
-39.96
-28.12
-14.02
0.43
13.43
23.74
30.89
34.98
36.47
35.82
33.44
29.73
25.19
20.53
16.50
13.73
12.50
12.64
13.55
14.55
15.10
15.02
14.43
13.60
12.67
11.52
9.75
6.95
2.88
-2.29
-8.02
-13.57
-18.31
-21.93
-24.54
-26.67
-29.06
-32.36
-36.95
-42.68
-48.80
-53.98
-56.64
-55.37
-49.39
-38.89
-25.09
-9.92
4.61
16.92
26.27
32.68
36.60
38.53
38.81
37.61
35.12
31.73
28.04
24.72
22.25
20.78
20.07
19.70
19.24
18.50
17.52
16.56
15.80
15.24
14.54
13.15
10.60
6.67
1.60
-4.00
-9.35
-13.85
-17.28
-19.85
-22.10
-24.73
-28.29
-33.07
-38.96
-45.35
-51.15
-54.92
-55.22
-51.00
-42.14
-29.52
-14.84
-0.12
12.90
23.24
30.69
35.59
38.41
39.46
38.86
36.72
33.30
29.15
25.03
21.67
19.53
18.70
18.82
19.30
19.58
19.33
18.59
17.62
16.67
15.70
14.37
12.14
8.57
3.66
-2.09
-7.85
-12.79
-16.45
-18.89
-20.63
-22.40
-24.92
-28.64
-33.71
-39.82
-46.21
-51.67
-54.73
-54.01
-48.72
-38.96
-25.82
-11.10
3.23
15.51
24.78
30.75
33.65
33.99
32.32
29.17
25.08
20.58
16.28
12.72
10.29
9.16
9.21
10.06
11.25
12.33
12.99
13.04
12.41
11.03
8.81
5.68
1.68
-2.99
-7.95
-12.71
-16.88
-20.33
-23.35
-26.54
-30.59
-35.89
-42.14
-48.20
-52.28
-52.59
-47.94
-38.33
-24.97
-9.94
4.61
17.07
26.65
33.38
37.63
39.73
39.81
37.91
34.22
29.31
24.12
19.70
16.78
15.54
15.55
16.10
16.49
16.33
15.65
14.71
13.74
12.74
11.42
9.32
6.12
1.78
-3.39
-8.78
-13.78
-18.01
-21.42
-24.33
-27.26
-30.77
-35.28
-41.00
-47.69
-54.65
-60.54
-63.65
-62.32
-55.58
-43.66
-28.07
-11.14
4.73
17.85
27.61
34.31
38.62
41.10
41.87
40.92
38.32
34.58
30.51
26.98
24.58
23.36
22.97
22.86
22.56
21.92
21.03
20.10
19.25
18.39
17.14
15.05
11.76
7.15
1.54
-4.46
-10.10
-14.78
-18.30
-20.92
-23.29
-26.25
-30.48
-36.29
-43.37
-50.70
-56.71
-59.58
-57.81
-50.74
-38.86
-23.70
-7.41
7.93
20.81
30.58
37.32
41.44
43.38
43.43
41.79
38.76
34.87
30.86
27.46
25.17
24.07
23.84
23.96
23.98
23.63
22.94
22.05
21.07
19.92
18.35
16.01
12.63
8.17
2.90
-2.68
-7.97
-12.51
-16.13
-19.04
-21.74
-24.83
-28.82
-33.96
-40.13
-46.79
-52.94
-57.19
-58.10
-54.51
-46.04
-33.35
-18.01
-2.17
12.15
23.54
31.40
35.88
37.52
36.93
34.68
31.25
27.15
22.94
19.21
16.42
14.75
14.13
14.23
14.66
15.14
15.53
15.73
15.61
14.88
13.23
10.41
6.43
1.62
-3.52
-8.47
-12.92
-16.82
-20.42
-24.14
-28.44
-33.64
-39.70
-45.98
-51.25
-53.92
-52.44
-46.01
-34.91
-20.52
-4.92
9.79
22.09
31.27
37.37
40.83
42.11
41.52
39.31
35.80
31.48
27.09
23.41
20.98
19.95
20.00
20.49
20.80
20.52
19.66
18.46
17.24
16.03
14.61
12.48
9.16
4.51
-1.20
-7.33
-13.06
-17.77
-21.28
-23.86
-26.19
-29.06
-33.10
-38.57
-45.20
-52.15
-58.08
-61.44
-60.78
-55.24
-44.90
-30.87
-15.03
0.50
13.98
24.47
31.87
36.65
39.40
40.54
40.20
38.42
35.42
31.71
28.04
25.14
23.40
22.74
22.72
22.77
22.53
21.97
21.33
20.81
20.37
19.62
17.90
14.65
9.75
3.61
-2.88
-8.75
-13.33
-16.52
-18.76
-20.84
-23.55
-27.44
-32.70
-39.14
-46.13
-52.58
-57.03
-57.91
-54.05
-45.15
-32.06
-16.59
-0.95
12.95
23.96
31.79
36.78
39.41
40.07
39.00
36.40
32.70
28.59
24.86
22.21
20.97
20.98
21.67
22.33
22.43
21.79
20.63
19.35
18.25
17.29
16.07
14.04
10.72
6.03
0.31
-5.73
-11.28
-15.79
-19.12
-21.62
-23.91
-26.67
-30.38
-35.20
-40.88
-46.77
-51.81
-54.67
-54.06
-49.10
-39.75
-26.94
-12.43
1.73
13.83
22.89
28.79
31.94
32.91
32.16
29.97
26.62
22.53
18.32
14.62
11.91
10.36
9.82
9.95
10.39
10.92
11.40
11.70
11.58
10.70
8.74
5.53
1.22
-3.75
-8.75
-13.20
-16.82
-19.71
-22.30
-25.23
-29.08
-34.15
-40.24
-46.57
-51.80
-54.34
-52.78
-46.46
-35.71
-21.91
-7.08
6.77
18.21
26.70
32.45
36.01
37.88
38.30
37.36
35.28
32.56
29.93
28.10
27.45
27.82
28.61
29.08
28.68
27.31
25.24
22.95
20.75
18.61
16.13
12.80
8.24
2.46
-4.12
-10.80
-16.87
-21.84
-25.58
-28.36
-30.74
-33.42
-37.00
-41.85
-47.78
-54.01
-59.14
-61.46
-59.51
-52.59
-41.12
-26.58
-11.09
3.28
15.04
23.64
29.26
32.48
33.83
33.66
32.16
29.63
26.57
23.67
21.54
20.50
20.39
20.65
20.68
20.09
18.90
17.51
16.38
15.71
15.31
14.59
12.92
9.87
5.46
0.17
-5.27
-10.15
-14.10
-17.17
-19.77
-22.53
-26.06
-30.76
-36.62
-43.12
-49.19
-53.31
-53.97
-50.09
-41.47
-28.98
-14.35
0.35
13.35
23.61
30.88
35.48
37.91
38.54
37.56
35.12
31.56
27.48
23.68
20.88
19.44
19.19
19.56
19.82
19.44
18.34
16.86
15.49
14.54
13.90
13.03
11.18
7.81
2.95
-2.80
-8.46
-13.06
-16.13
-17.81
-18.85
-20.21
-22.70
-26.72
-32.16
-38.41
-44.52
-49.28
-51.39
-49.74
-43.74
-33.62
-20.54
-6.33
6.99
17.80
25.32
29.57
31.14
30.75
28.96
26.10
22.45
18.35
14.34
11.02
8.85
7.95
8.10
8.86
9.81
10.65
11.24
11.45
11.09
9.90
7.64
4.27
-0.01
-4.76
-9.42
-13.56
-17.00
-19.88
-22.69
-26.03
-30.42
-35.97
-42.09
-47.54
-50.65
-49.92
-44.53
-34.71
-21.72
-7.44
6.27
17.94
26.83
32.85
36.23
37.35
36.52
34.02
30.22
25.70
21.18
17.43
15.00
14.05
14.25
14.97
15.57
15.62
15.03
14.00
12.73
11.29
9.48
6.98
3.51
-0.96
-6.15
-11.52
-16.50
-20.69
-24.05
-26.94
-29.98
-33.88
-39.10
-45.63
-52.78
-59.24
-63.34
-63.46
-58.62
-48.83
-35.17
-19.50
-3.83
10.18
21.60
30.24
36.31
40.15
42.02
42.06
40.43
37.54
34.01
30.60
27.97
26.50
26.15
26.49
26.96
27.03
26.46
25.31
23.87
22.42
21.01
19.38
17.07
13.67
9.06
3.51
-2.41
-8.02
-12.80
-16.62
-19.71
-22.58
-25.83
-29.93
-35.12
-41.28
-47.87
-53.89
-57.94
-58.59
-54.76
-46.19
-33.62
-18.69
-3.42
10.37
21.56
29.85
35.56
39.22
41.22
41.76
40.90
38.82
35.91
32.78
30.08
28.27
27.48
27.55
28.09
28.66
28.92
28.68
27.87
26.53
24.69
22.40
19.66
16.40
12.53
8.03
2.98
-2.32
-7.47
-12.07
-15.89
-19.01
-21.75
-24.56
-27.86
-31.86
-36.68
-42.24
-48.29
-54.20
-58.91
-61.01
-59.13
-52.47
-41.24
-26.74
-10.97
3.98
16.59
26.19
32.83
36.98
39.09
39.42
38.12
35.42
31.83
28.13
25.13
23.42
23.10
23.77
24.72
25.26
25.02
24.05
22.67
21.22
19.78
18.16
15.96
12.84
8.70
3.77
-1.52
-6.66
-11.24
-15.04
-18.08
-20.63
-23.13
-26.10
-29.96
-34.85
-40.49
-46.05
-50.29
-51.85
-49.61
-43.12
-32.78
-19.82
-5.92
7.30
18.58
27.31
33.37
36.91
38.13
37.22
34.44
30.30
25.59
21.21
17.95
16.20
15.90
16.57
17.56
18.33
18.57
18.22
17.40
16.23
14.72
12.70
9.97
6.35
1.85
-3.30
-8.67
-13.74
-18.13
-21.67
-24.53
-27.13
-30.03
-33.77
-38.63
-44.48
-50.60
-55.74
-58.31
-56.86
-50.62
-39.86
-25.90
-10.73
3.62
15.69
24.85
31.22
35.30
37.56
38.21
37.33
35.03
31.70
28.02
24.78
22.57
21.63
21.67
22.11
22.31
21.89
20.81
19.38
17.97
16.81
15.80
14.47
12.23
8.65
3.71
-2.11
-7.97
-13.05
-16.86
-19.46
-21.38
-23.42
-26.35
-30.60
-36.21
-42.64
-48.88
-53.51
-55.00
-52.19
-44.68
-33.09
-18.98
-4.32
9.04
19.93
27.99
33.46
36.79
38.34
38.24
36.57
33.56
29.71
25.74
22.42
20.24
19.29
19.24
19.52
19.63
19.27
18.48
17.48
16.51
15.57
14.45
12.71
9.96
6.08
1.28
-3.89
-8.77
-12.88
-16.07
-18.58
-20.91
-23.55
-26.89
-31.11
-36.16
-41.71
-47.07
-51.17
-52.67
-50.40
-43.76
-33.11
-19.77
-5.65
7.32
17.75
25.01
29.21
30.87
30.62
28.99
26.39
23.18
19.75
16.51
13.85
12.04
11.15
11.00
11.33
11.81
12.19
12.29
11.97
11.07
9.43
6.93
3.63
-0.24
-4.28
-8.11
-11.54
-14.63
-17.71
-21.20
-25.50
-30.77
-36.79
-42.85
-47.78
-50.18
-48.82
-43.09
-33.28
-20.59
-6.81
6.27
17.30
25.64
31.30
34.63
36.07
35.90
34.31
31.50
27.85
23.91
20.34
17.67
16.16
15.66
15.78
16.01
15.96
15.51
14.73
13.78
12.70
11.31
9.28
6.27
2.17
-2.84
-8.24
-13.41
-17.77
-21.10
-23.58
-25.78
-28.41
-32.07
-37.05
-43.08
-49.39
-54.69
-57.54
-56.62
-51.19
-41.39
-28.28
-13.59
0.79
13.32
23.10
29.99
34.28
36.46
36.91
35.90
33.66
30.56
27.12
23.95
21.53
20.10
19.56
19.50
19.49
19.19
18.52
17.65
16.78
15.99
15.11
13.70
11.24
7.46
2.48
-3.12
-8.55
-13.11
-16.47
-18.87
-20.97
-23.61
-27.47
-32.78
-39.20
-45.81
-51.27
-54.16
-53.23
-47.87
-38.25
-25.48
-11.23
2.67
14.72
24.09
30.67
34.78
36.92
37.44
36.55
34.46
31.49
28.18
25.15
22.92
21.67
21.22
21.12
20.88
20.21
19.12
17.83
16.59
15.49
14.33
12.67
10.08
6.36
1.67
-3.50
-8.52
-12.87
-16.39
-19.25
-21.92
-24.93
-28.76
-33.64
-39.49
-45.73
-51.31
-54.77
-54.61
-49.86
-40.44
-27.41
-12.64
1.71
13.94
23.10
29.11
32.36
33.39
32.58
30.25
26.74
22.57
18.42
14.95
12.64
11.59
11.57
12.17
12.94
13.56
13.84
13.66
12.95
11.58
9.42
6.41
2.66
-1.56
-5.85
-9.84
-13.29
-16.30
-19.23
-22.62
-26.98
-32.49
-38.75
-44.74
-48.95
-49.80
-46.20
-37.92
-25.80
-11.50
2.97
15.83
25.95
32.94
37.00
38.62
38.31
36.43
33.26
29.14
24.59
20.32
17.03
15.23
14.94
15.70
16.75
17.33
17.03
15.90
14.33
12.75
11.30
9.74
7.51
4.13
-0.57
-6.21
-12.01
-17.12
-20.96
-23.53
-25.35
-27.31
-30.28
-34.80
-40.88
-47.89
-54.67
-59.71
-61.45
-58.72
-51.08
-39.08
-24.17
-8.32
6.54
19.04
28.54
35.07
39.01
40.76
40.62
38.85
35.79
31.99
28.19
25.10
23.23
22.66
23.04
23.77
24.19
23.91
22.90
21.44
19.91
18.51
17.10
15.25
12.42
8.33
3.14
-2.62
-8.19
-12.99
-16.78
-19.81
-22.59
-25.72
-29.66
-34.57
-40.26
-46.15
-51.23
-54.20
-53.77
-49.03
-39.87
-27.16
-12.58
1.88
14.51
24.32
31.17
35.50
37.92
38.86
38.51
36.89
34.15
30.68
27.16
24.35
22.82
22.70
23.62
24.90
25.80
25.87
25.02
23.52
21.73
19.81
17.67
14.99
11.45
6.94
1.70
-3.77
-8.87
-13.13
-16.39
-18.84
-20.86
-22.94
-25.57
-29.08
-33.66
-39.21
-45.25
-50.85
-54.63
-55.17
-51.35
-42.89
-30.50
-15.83
-0.89
12.44
22.94
30.20
34.40
36.05
35.68
33.74
30.64
26.81
22.79
19.12
16.22
14.29
13.25
12.87
12.84
12.97
13.13
13.23
13.12
12.58
11.34
9.17
6.04
2.14
-2.17
-6.50
-10.55
-14.20
-17.53
-20.83
-24.50
-28.87
-34.02
-39.54
-44.44
-47.29
-46.65
-41.57
-32.08
-19.26
-5.01
8.59
19.89
28.02
32.93
35.05
34.96
33.15
29.97
25.84
21.35
17.21
14.08
12.33
11.83
12.12
12.57
12.70
12.40
11.82
11.22
10.70
10.01
8.68
6.21
2.36
-2.70
-8.38
-13.88
-18.52
-21.97
-24.39
-26.41
-28.92
-32.71
-38.16
-44.89
-51.73
-56.85
-58.36
-54.88
-46.12
-33.01
-17.50
-1.85
11.99
22.89
30.60
35.47
38.07
38.84
38.04
35.87
32.70
29.14
25.88
23.49
22.20
21.77
21.70
21.48
20.80
19.71
18.51
17.53
16.85
16.22
15.07
12.82
9.11
4.06
-1.78
-7.59
-12.66
-16.61
-19.56
-21.98
-24.54
-27.86
-32.31
-37.93
-44.26
-50.31
-54.67
-55.82
-52.60
-44.72
-32.93
-18.80
-4.26
9.03
20.05
28.45
34.32
37.86
39.25
38.67
36.43
33.09
29.39
26.11
23.77
22.53
22.13
22.08
21.85
21.12
19.88
18.38
16.97
15.85
14.93
13.85
12.14
9.38
5.46
0.61
-4.67
-9.77
-14.17
-17.66
-20.35
-22.70
-25.32
-28.85
-33.66
-39.63
-46.02
-51.47
-54.36
-53.30
-47.63
-37.71
-24.82
-10.75
2.80
14.59
24.04
31.03
35.68
38.08
38.33
36.63
33.44
29.48
25.57
22.45
20.51
19.75
19.78
20.05
20.09
19.69
18.93
18.07
17.32
16.64
15.68
13.96
11.04
6.87
1.75
-3.67
-8.74
-13.04
-16.47
-19.31
-21.94
-24.82
-28.32
-32.71
-38.06
-44.08
-49.94
-54.27
-55.47
-52.23
-44.10
-31.79
-17.02
-1.94
11.53
22.16
29.55
33.86
35.46
34.76
32.15
28.11
23.31
18.53
14.44
11.48
9.72
8.98
8.96
9.33
9.89
10.43
10.74
10.55
9.59
7.64
4.70
0.99
-3.11
-7.17
-10.90
-14.28
-17.47
-20.83
-24.75
-29.49
-35.04
-40.97
-46.36
-49.87
-50.06
-45.88
-37.12
-24.62
-10.11
4.39
17.16
27.21
34.28
38.62
40.57
40.36
38.17
34.30
29.38
24.33
20.10
17.34
16.19
16.25
16.80
17.18
17.00
16.33
15.45
14.66
13.96
13.00
11.23
8.17
3.68
-1.88
-7.81
-13.31
-17.82
-21.17
-23.66
-25.89
-28.59
-32.41
-37.69
-44.25
-51.29
-57.40
-60.85
-60.12
-54.36
-43.79
-29.69
-13.99
1.30
14.62
25.16
32.80
37.81
40.57
41.35
40.37
37.89
34.37
30.48
26.98
24.45
23.16
22.89
23.14
23.28
22.91
21.97
20.71
19.45
18.35
17.21
15.52
12.78
8.72
3.56
-2.11
-7.56
-12.20
-15.86
-18.79
-21.48
-24.53
-28.38
-33.28
-39.19
-45.66
-51.74
-56.07
-57.13
-53.73
-45.51
-33.19
-18.41
-3.23
10.52
21.69
29.93
35.46
38.67
39.91
39.41
37.38
34.26
30.65
27.23
24.53
22.80
21.94
21.60
21.37
20.98
20.35
19.53
18.65
17.72
16.62
15.04
12.63
9.15
4.64
-0.55
-5.82
-10.55
-14.36
-17.27
-19.70
-22.31
-25.73
-30.36
-36.20
-42.78
-49.19
-54.14
-56.26
-54.36
-47.90
-37.22
-23.60
-8.88
5.06
16.76
25.48
31.18
34.14
34.80
33.52
30.65
26.66
22.20
18.01
14.74
12.74
11.94
12.00
12.45
12.95
13.30
13.43
13.25
12.56
11.09
8.67
5.34
1.39
-2.76
-6.78
-10.50
-13.98
-17.45
-21.18
-25.42
-30.33
-35.86
