1530122466.00
64.000000
-0.00
-0.00
-0.00
-0.00
-0.00
-0.00
-0.00
-0.00
-0.00
-0.00
0.00
0.01
0.01
-0.00
-0.03
-0.05
-0.05
0.00
0.13
0.36
0.66
1.01
1.37
1.72
2.06
2.40
2.79
3.24
3.80
4.42
5.06
5.66
6.20
6.68
7.15
7.68
8.31
9.14
10.09
11.04
11.88
12.56
13.14
13.76
14.65
15.96
17.91
20.32
22.90
25.38
27.58
29.57
31.68
34.32
37.81
42.54
48.15
54.10
59.83
64.97
69.58
74.14
79.34
85.71
93.76
103.00
112.62
121.73
129.77
136.75
143.30
150.75
157.77
166.64
177.95
191.79
206.97
220.57
228.25
225.36
208.53
176.87
132.76
80.05
23.07
-34.94
-92.44
-149.16
-205.23
-260.37
-313.74
-363.87
-409.83
-450.91
-486.50
-515.74
-537.23
-549.22
-549.96
-538.37
-514.21
-478.67
-433.88
-382.45
-327.02
-269.84
-212.63
-156.66
-102.95
-52.37
-5.90
35.58
71.43
101.35
125.50
144.38
158.69
169.15
176.37
180.75
182.57
182.07
179.51
175.23
169.65
163.18
156.15
148.81
141.30
133.69
126.02
118.33
110.69
103.16
95.80
88.68
81.83
75.25
68.95
62.95
57.25
51.86
46.78
42.03
37.59
33.45
29.61
26.07
22.81
19.82
17.11
14.66
12.48
10.54
8.84
7.36
6.09
5.01
4.11
3.37
2.76
2.28
1.91
1.62
1.42
1.28
1.18
1.13
1.11
1.11
1.13
1.17
1.22
1.27
1.34
1.42
1.51
1.62
1.75
1.89
2.06
2.25
2.47
2.72
3.01
3.32
3.68
4.07
4.51
4.98
5.50
6.07
6.69
7.36
8.09
8.88
9.72
10.63
11.60
12.62
13.71
14.86
16.08
17.36
18.71
20.12
21.60
23.15
24.77
26.48
28.29
30.19
32.19
34.22
36.21
38.03
39.49
40.33
40.30
39.14
36.63
32.60
26.97
19.78
11.23
1.62
-8.63
-19.05
-29.09
-38.21
-45.94
-51.87
-55.71
-57.38
-56.96
-54.78
-51.28
-46.99
-42.46
-38.22
-34.69
-32.11
-30.65
-30.31
-31.11
-32.90
-35.48
-38.61
-41.96
-45.20
-47.98
-50.03
-51.19
-51.59
-51.34
-50.62
-49.59
-48.30
-46.61
-44.23
-40.89
-36.43
-31.07
-25.06
-18.72
-12.30
-5.76
1.21
9.14
18.46
29.95
42.40
54.31
64.16
70.80
73.64
72.83
69.07
63.24
56.07
47.78
38.11
26.63
12.95
-3.20
-21.70
-41.64
-60.96
-76.41
-84.39
-81.95
-68.28
-45.57
-18.61
6.73
25.47
35.01
35.49
28.93
18.16
5.68
-6.93
-18.84
-29.45
-38.17
-44.41
-47.15
-46.16
-41.75
-34.60
-25.51
-15.20
-4.24
6.91
17.72
27.44
35.12
39.85
41.12
38.95
33.93
27.15
20.02
13.97
10.27
9.64
12.22
17.42
24.03
30.52
35.43
37.68
36.79
32.82
26.22
17.65
7.78
-2.86
-14.00
-25.67
-38.04
-51.22
-65.08
-79.20
-92.91
-105.60
-116.89
-126.75
-135.28
-142.45
-147.85
-150.78
-150.55
-146.81
-139.70
-129.68
-117.03
-101.47
-81.96
-56.92
-24.95
14.35
59.69
108.07
155.28
196.99
229.93
252.59
265.38
270.10
269.08
264.45
257.68
249.48
239.96
228.75
215.06
197.82
176.04
149.36
118.46
85.12
51.67
20.14
-8.58
-34.91
-60.13
-85.36
-110.57
-134.38
-154.48
-168.68
-175.90
-176.48
-171.80
-163.30
-151.86
-137.42
-119.56
-98.04
-73.36
-46.64
-19.27
7.55
33.04
56.70
78.13
96.83
112.29
124.08
132.06
136.25
136.78
133.79
127.50
118.37
107.17
94.94
82.72
71.27
60.96
51.77
43.55
36.07
29.24
23.03
17.50
12.89
9.78
9.05
11.66
18.18
28.25
40.36
52.24
61.64
67.09
68.40
66.43
62.45
57.53
52.27
46.84
41.47
36.61
32.81
30.37
29.04
28.04
26.42
23.47
19.12
13.88
8.59
4.05
0.66
-1.63
-3.25
-4.71
-6.38
-8.31
-10.21
-11.70
-12.47
-12.48
-11.95
-11.34
-11.08
-11.46
-12.46
-13.79
-14.94
-15.33
-14.45
-12.03
-8.16
-3.22
2.13
7.20
11.43
14.54
16.54
17.61
18.04
18.07
17.88
17.61
17.41
17.49
18.08
19.30
21.18
23.56
26.25
29.09
32.03
34.96
37.63
39.60
40.31
39.38
36.83
33.17
29.21
25.73
23.10
21.16
19.36
17.16
14.48
11.83
10.18
10.41
12.80
16.70
20.64
22.83
21.73
16.54
7.18
-5.87
-21.85
-39.88
-59.06
-78.47
-97.30
-114.90
-130.82
-144.58
-155.50
-162.76
-165.73
-164.56
-160.52
-155.81
-152.73
-152.72
-155.70
-160.28
-164.52
-166.99
-167.37
-166.42
-165.29
-164.73
-164.80
-164.84
-163.91
-161.29
-156.62
-149.92
-141.43
-131.45
-120.32
-108.43
-96.20
-84.05
-72.34
-61.45
-51.69
-43.42
-36.95
-32.40
-29.61
-28.13
-27.30
-26.55
-25.58
-24.51
-23.73
-23.73
-24.76
-26.70
-29.07
-31.35
-33.22
-34.81
-36.61
-39.29
-43.32
-48.86
-55.68
-63.40
-71.74
-80.68
-90.46
-101.34
-113.32
-125.93
-138.29
-149.31
-158.09
-164.27
-168.11
-170.38
-171.92
-173.36
-174.89
-176.40
-177.68
-178.48
-178.35
-176.20
-170.17
-158.08
-138.41
-111.28
-78.64
-43.40
-7.93
27.34
64.05
104.60
150.19
199.38
248.17
291.49
325.26
347.73
359.39
361.74
356.08
343.01
323.10
297.89
270.37
244.27
222.54
205.85
192.18
177.88
159.73
136.78
110.91
85.97
65.87
52.85
46.81
45.87
47.82
51.32
56.32
63.67
74.13
87.60
102.99
118.54
132.50
143.83
152.38
158.80
163.98
168.36
171.38
171.47
166.49
154.76
135.99
111.38
82.96
52.23
19.06
-18.31
-62.08
-113.10
-169.51
-226.82
-279.20
-321.40
-350.22
-364.91
-366.59
-357.30
-339.36
-315.09
-286.85
-256.92
-226.92
-197.54
-168.57
-139.48
-110.19
-81.61
-55.44
-33.35
-16.08
-2.96
7.83
18.53
31.00
46.18
63.94
83.22
102.39
119.82
134.61
147.06
158.86
172.49
190.29
213.34
240.79
270.04
297.45
319.47
333.52
338.34
334.13
322.32
305.31
286.04
267.35
251.31
238.88
230.07
224.51
221.96
222.30
225.10
228.86
230.79
227.21
214.68
191.25
157.27
115.21
68.74
21.41
-24.35
-67.41
-107.65
-145.21
-179.99
-211.84
-241.07
-268.69
-295.92
-322.54
-345.41
-358.32
-353.91
-326.94
-277.13
-209.64
-132.91
-55.04
19.05
87.84
151.19
207.73
253.74
284.45
296.86
291.76
273.87
249.66
224.58
201.50
180.96
162.62
146.68
134.24
126.45
123.30
123.14
123.07
120.30
113.59
103.99
94.48
88.70
89.29
96.55
108.00
119.14
125.02
121.95
108.65
86.49
58.66
28.74
-0.46
-27.61
-52.73
-76.48
-99.55
-122.26
-144.66
-166.86
-189.10
-211.65
-234.41
-256.69
-277.32
-295.05
-309.27
-320.50
-329.86
-338.18
-345.34
-350.25
-351.53
-348.31
-341.19
-332.43
-325.84
-324.93
-331.16
-342.62
-354.21
-359.12
-350.94
-325.85
-283.82
-229.48
-169.73
-111.45
-59.74
-17.49
14.15
35.20
46.22
48.00
39.27
19.70
-8.46
-40.29
-70.41
-95.14
-113.56
-127.27
-139.32
-157.12
-185.23
-221.77
-258.77
-286.92
-300.12
-296.75
-278.85
-250.32
-222.69
-204.96
-198.61
-197.34
-192.60
-178.96
-155.41
-124.87
-93.10
-77.21
-92.27
-143.92
-226.63
-329.38
-441.68
-554.57
-660.16
-691.97
-610.65
-427.99
-202.32
5.98
165.61
272.55
337.25
373.75
394.35
397.24
379.06
342.34
296.27
253.99
223.50
206.57
200.66
202.10
199.87
186.08
160.73
131.63
108.70
98.41
103.54
120.17
144.52
168.40
185.66
195.01
199.99
205.36
213.64
224.83
237.48
250.27
259.90
264.07
262.89
258.68
254.37
251.69
251.12
252.29
255.00
258.19
261.31
264.96
270.82
280.49
294.14
309.96
324.24
332.65
331.26
317.99
293.36
260.26
222.99
185.86
152.44
125.30
106.46
97.31
98.14
107.32
120.78
132.51
136.18
127.22
104.29
69.58
27.63
-16.33
-57.98
-94.56
-124.81
-148.39
-165.46
-176.51
-182.40
-184.47
-184.31
-183.36
-182.32
-180.85
-177.70
-171.36
-160.94
-146.86
-130.90
-115.44
-102.45
-92.50
-84.60
-76.84
-67.41
-55.41
-41.12
-25.59
-10.02
4.88
19.00
32.76
46.64
60.86
75.23
89.24
102.43
114.63
126.00
136.65
146.17
153.24
155.97
152.74
142.98
127.85
109.95
92.44
78.10
68.58
64.34
64.68
68.21
73.09
77.44
79.86
79.88
78.41
77.58
79.93
87.25
99.45
114.29
128.13
137.39
140.00
136.33
128.90
121.33
116.73
116.37
118.93
120.64
116.44
101.64
73.79
33.71
-14.75
-65.96
-114.35
-156.02
-189.25
-214.08
-231.28
-241.64
-245.87
-244.86
-239.99
-233.03
-225.61
-218.63
-211.95
-204.55
-194.94
-181.81
-164.40
-142.97
-119.00
-95.12
-74.71
-61.04
-56.30
-60.54
-71.06
-82.61
-88.58
-82.44
-59.63
-19.22
35.02
94.58
147.95
183.71
194.44
179.31
144.45
100.22
56.46
18.20
-16.24
-52.90
-97.30
-149.49
-202.16
-242.69
-258.06
-240.28
-189.28
-113.11
-25.06
60.22
129.96
175.36
192.50
182.98
153.79
116.38
83.14
64.12
63.70
79.24
102.71
124.34
137.05
138.12
129.22
112.31
88.74
58.80
22.83
-17.60
-59.13
-96.42
-125.22
-142.80
-152.33
-159.23
-168.64
-183.10
-202.25
-223.92
-243.81
-259.30
-267.98
-273.85
-281.93
-295.81
-315.51
-337.89
-358.86
-372.84
-379.30
-379.84
-385.23
-407.27
-453.89
-526.07
-618.74
-724.67
-833.87
-941.05
-995.58
-960.34
-827.70
-628.00
-410.02
-213.57
-74.73
20.12
88.16
143.97
190.56
226.97
253.72
273.71
293.14
318.43
356.57
407.15
467.08
526.33
574.43
604.42
615.42
611.85
600.14
588.39
579.82
576.22
575.37
574.88
573.82
572.87
572.66
571.21
565.00
547.69
515.37
467.15
406.58
340.15
274.63
214.53
160.76
112.20
66.08
20.91
-23.49
-66.20
-106.24
-143.46
-178.61
-212.95
-246.95
-280.12
-310.34
-334.66
-350.36
-355.84
-350.71
-335.29
-310.03
-275.36
-232.22
-182.75
-130.62
-80.51
-36.96
-2.91
21.07
36.71
47.32
56.48
67.01
80.16
95.37
110.69
123.56
131.77
134.18
131.09
124.06
115.42
107.47
101.78
98.65
97.02
95.01
90.93
84.40
76.99
71.81
72.13
79.57
93.09
109.04
122.74
130.40
130.38
123.42
111.50
96.60
79.83
61.21
39.95
14.83
-15.19
-50.24
-88.55
-125.85
-155.86
-172.11
-170.39
-150.80
-118.20
-80.68
-46.60
-21.74
-7.89
-3.10
-3.47
-5.29
-6.63
-7.58
-9.57
-14.15
-21.76
-31.59
-42.01
-51.62
-60.17
-68.57
-78.21
-89.69
-102.12
-113.26
-120.52
-122.05
-117.30
-106.90
-92.12
-74.29
-54.68
-34.65
-15.69
0.95
14.64
25.87
35.92
46.08
56.74
66.91
74.80
78.97
79.36
77.55
75.97
76.63
80.27
86.31
93.54
100.91
107.91
114.35
119.76
123.25
123.75
120.73
114.85
107.97
102.54
100.57
102.70
108.02
114.34
118.80
118.42
110.58
93.33
66.06
30.20
-10.60
-50.87
-84.88
-108.61
-121.07
-124.42
-122.44
-118.53
-114.05
-108.29
-99.49
-86.52
-69.85
-51.42
-33.59
-18.09
-5.53
4.17
11.03
14.62
14.36
10.40
4.16
-2.23
-7.22
-11.46
-18.35
-32.84
-58.81
-96.31
-140.43
-182.61
-213.92
-228.90
-227.69
-215.38
-199.32
-185.73
-177.49
-174.00
-172.38
-169.04
-160.49
-143.62
-116.04
-77.17
-29.67
19.98
62.82
90.76
100.06
93.30
78.53
65.90
63.82
76.39
102.92
139.31
179.68
217.70
247.17
262.97
262.25
245.72
217.90
185.79
156.11
132.76
115.37
99.95
80.98
53.73
16.10
-30.82
-83.16
-135.36
-181.54
-216.83
-238.55
-246.71
-243.68
-232.85
-217.06
-197.50
-173.58
-144.12
-108.80
-69.22
-28.87
7.81
36.61
54.52
60.00
53.12
35.45
10.04
-19.02
-47.25
-70.62
-86.18
-92.36
-88.83
-76.36
-56.73
-32.46
-6.43
18.73
41.28
60.94
78.71
96.23
114.80
134.18
152.61
167.28
175.33
174.88
165.75
149.08
126.24
97.74
62.64
20.24
-28.16
-78.45
-124.92
-162.70
-190.26
-209.93
-225.65
-241.30
-258.45
-275.32
-288.67
-296.72
-300.27
-301.54
-302.87
-302.51
-297.34
-284.35
-262.10
-231.13
-193.31
-150.32
-105.31
-59.85
-13.92
32.80
80.35
127.64
172.22
210.66
239.79
257.96
266.38
268.58
268.91
271.28
277.90
288.50
300.24
308.06
305.69
287.49
250.42
195.85
130.80
67.06
17.88
-6.43
-2.38
25.57
67.25
110.69
146.05
168.19
176.89
175.37
168.48
161.05
157.45
161.11
173.74
194.29
218.64
240.58
253.93
254.78
242.25
219.35
192.05
167.12
149.67
141.43
140.52
142.65
142.76
135.57
117.85
89.58
53.44
13.30
-27.51
-67.25
-105.93
-145.15
-189.02
-241.25
-302.72
-370.18
-437.00
-495.35
-538.80
-564.30
-566.25
-545.51
-510.29
-472.18
-439.55
-414.41
-394.51
-377.04
-361.74
-346.77
-331.19
-313.42
-290.91
-261.07
-222.67
-176.06
-125.02
-73.11
-22.27
26.19
72.27
116.81
160.62
203.27
242.78
276.37
301.99
319.34
329.70
336.09
342.66
353.27
369.52
389.46
407.56
416.69
410.50
386.14
344.91
292.15
235.51
182.76
139.59
108.66
89.75
80.73
80.09
86.35
98.23
114.48
133.50
152.90
169.41
179.30
179.61
170.99
155.86
137.51
119.06
102.70
89.66
80.54
75.64
63.47
37.14
-7.10
-69.48
-146.84
-232.69
-317.45
-389.77
-439.76
-464.66
-466.59
-451.68
-428.07
-403.24
-381.85
-365.62
-354.54
-348.40
-346.88
-347.63
-347.19
-341.42
-326.51
-300.26
-263.10
-217.97
-169.00
-119.74
-70.84
-21.47
28.96
79.23
125.88
163.95
188.82
197.95
191.92
174.74
152.07
129.59
111.68
100.97
98.15
102.11
110.27
119.44
127.13
132.48
136.53
141.69
150.43
163.66
180.05
196.38
208.99
215.18
214.13
206.63
194.32
178.97
162.11
145.19
129.63
116.66
106.83
99.53
93.12
85.47
74.98
61.27
45.34
29.19
14.97
4.22
-2.49
-5.56
-6.05
-5.31
-4.55
-4.61
-5.80
-7.99
-10.80
-13.78
-16.59
-19.15
-21.55
-24.12
-27.20
-31.06
-35.79
-41.16
-46.75
-52.08
-56.86
-61.11
-65.12
-69.32
-73.95
-78.95
-83.89
-88.10
-90.81
-91.31
-89.07
-83.85
-75.73
-65.13
-52.70
-39.19
-25.30
-11.58
1.59
13.91
25.16
35.15
43.84
51.31
57.75
63.35
68.17
72.13
75.09
77.04
78.24
79.12
80.13
81.46
82.78
83.35
82.31
79.06
73.64
66.75
59.58
53.32
48.64
45.35
42.30
37.85
30.48
19.55
5.68
-9.28
-22.97
-33.39
-39.71
-42.64
-43.91
-45.50
-48.50
-52.58
-56.00
-56.45
-52.38
-44.09
-33.94
-25.74
-23.20
-28.43
-41.18
-59.35
-79.79
-99.27
-114.81
-123.93
-125.37
-120.26
-113.22
-111.64
-122.69
-148.91
-185.10
-219.04
-236.47
-228.25
-195.30
-148.53
-103.48
-72.68
-60.25
-61.51
-67.30
-69.72
-65.94
-58.13
-50.47
-45.72
-43.31
-40.16
-32.85
-19.65
-1.08
20.52
42.61
63.56
83.34
103.24
124.98
149.83
177.71
206.98
234.78
257.84
273.61
280.96
280.33
273.08
260.68
243.71
221.74
193.79
159.30
118.89
74.49
28.68
-16.38
-59.59
-100.77
-139.63
-174.59
-202.33
-218.69
-220.57
-207.74
-183.56
-153.96
-125.27
-102.17
-86.54
-78.04
-75.32
-77.23
-83.29
-93.08
-105.53
-118.38
-128.60
-133.20
-130.23
-119.18
-100.90
-77.22
-50.16
-21.39
8.02
37.58
67.18
96.61
125.34
152.28
175.78
193.90
204.82
207.44
201.70
188.78
170.74
150.24
129.91
111.88
97.56
87.44
81.19
77.80
75.73
73.24
69.04
63.05
56.79
53.11
55.27
65.60
84.44
109.81
137.79
164.28
186.37
203.08
215.00
223.59
230.06
234.83
237.51
236.82
232.12
223.84
213.03
199.98
183.69
161.38
129.20
83.76
22.61
-53.95
-143.40
-242.36
-347.84
-455.84
-560.52
-653.41
-724.32
-765.39
-772.42
-746.48
-693.45
-622.44
-541.09
-453.95
-362.17
-257.62
-139.06
-12.58
109.96
216.81
300.67
361.56
402.58
425.64
429.83
411.00
367.14
301.77
228.18
154.88
89.41
35.47
-8.06
-45.30
-81.13
-116.72
-148.73
-167.19
-165.96
-144.13
-107.44
-65.52
-27.21
2.21
22.56
38.07
52.17
64.42
72.56
73.73
66.72
53.40
37.86
24.91
17.80
16.15
16.46
14.75
8.36
-2.73
-16.07
-28.30
-36.41
-39.22
-37.66
-33.89
-29.20
-23.51
-15.83
-5.33
7.72
22.09
36.04
47.85
56.34
61.15
62.50
60.86
57.59
52.76
46.45
38.83
30.14
20.80
11.41
2.74
-4.54
-10.15
-14.49
-18.14
-21.72
-25.54
-29.19
-31.71
-31.95
-28.45
-20.86
-9.93
2.92
15.97
27.73
37.54
45.83
53.98
63.75
76.49
92.35
110.18
127.48
141.06
147.94
146.16
135.40
117.02
93.68
68.68
45.03
24.62
7.63
-7.29
-22.32
-39.23
-58.42
-78.46
-96.51
-109.32
-114.52
-111.46
-101.37
-86.80
-70.67
-55.33
-41.91
-30.26
-19.41
-8.03
4.91
19.86
36.48
53.73
69.96
83.09
90.90
91.74
85.82
75.92
67.16
65.16
73.50
91.58
114.36
133.90
142.32
135.28
113.71
83.22
51.53
25.20
7.26
-3.34
-10.77
-20.68
-36.69
-58.69
-83.08
-104.75
-119.70
-126.54
-126.10
-120.71
-114.01
-107.87
-102.08
-95.49
-87.93
-81.08
-77.67
-79.16
-85.61
-97.50
-113.23
-129.75
-144.05
-154.91
-163.77
-173.41
-185.53
-201.45
-224.57
-256.65
-296.99
-342.38
-388.15
-429.75
-463.62
-486.85
-477.29
-424.95
-335.07
-226.01
-117.42
-20.43
62.52
126.17
175.87
214.02
237.77
245.76
240.83
229.79
221.27
220.99
230.51
248.61
270.70
290.06
302.30
306.27
302.96
292.77
273.80
243.15
200.51
149.29
96.83
52.36
22.90
9.71
7.20
5.34
-4.98
-27.11
-57.47
-86.47
-103.55
-101.36
-77.85
-36.98
11.99
56.87
85.08
87.50
62.80
16.69
-39.53
-91.76
-128.28
-143.86
-136.24
-111.59
-88.88
-78.80
-82.78
-98.46
-120.12
-140.87
-154.61
-157.27
-147.92
-127.44
-96.60
-57.98
-15.71
25.82
62.24
90.18
108.23
117.14
120.28
123.66
132.58
150.20
177.54
212.78
251.58
287.87
314.68
326.00
319.00
293.92
254.13
205.41
153.57
102.54
53.97
7.74
-36.51
-77.91
-114.63
-144.38
-163.13
-167.83
-158.88
-140.79
-119.80
-100.18
-82.50
-64.77
-45.28
-24.86
-7.34
1.09
-5.24
-28.25
-64.80
-107.71
-148.47
-180.37
-198.37
-201.92
-193.79
-177.43
-155.06
-127.56
-95.88
-62.37
-30.90
-5.35
11.88
21.28
26.06
30.30
36.48
44.16
50.72
53.43
51.57
47.03
43.39
44.18
51.00
62.71
76.14
87.72
95.06
97.73
96.76
93.54
89.06
83.74
77.68
71.30
65.40
60.82
57.79
55.76
53.47
49.79
44.17
36.87
28.71
20.67
13.66
8.34
5.27
4.62
6.07
8.54
10.37
9.75
5.31
-3.37
-15.84
-30.53
-45.38
-57.94
-65.97
-67.95
-63.50
-53.63
-40.43
-26.75
-14.66
-5.11
2.55
9.98
19.08
31.10
46.07
63.07
80.41
97.20
110.63
118.45
119.48
114.32
104.81
92.54
80.42
66.24
47.41
22.65
-7.06
-39.10
-69.61
-93.59
-106.40
-104.96
-89.37
-62.68
-31.04
-1.81
18.86
28.19
27.58
21.31
14.27
9.47
7.72
7.90
8.62
9.52
11.60
16.29
24.11
33.87
42.84
48.28
48.39
43.01
33.43
21.59
8.99
-3.96
-17.85
-33.73
-52.05
-72.19
-92.48
-110.81
-125.47
-135.75
-142.22
-146.35
-149.83
-153.87
-158.95
-164.81
-170.86
-176.53
-181.46
-185.54
-188.78
-191.21
-192.60
-192.59
-190.49
-185.50
-176.94
-164.39
-148.02
-128.61
-107.52
-86.36
-66.74
-49.70
-35.69
-24.63
-15.61
-7.42
1.06
10.46
20.77
31.17
41.27
51.12
61.30
73.51
89.57
110.35
135.03
160.94
183.42
198.51
203.19
195.93
178.48
155.17
131.59
113.05
103.21
102.00
108.19
118.69
129.19
137.36
143.16
148.32
155.43
166.76
182.17
202.27
227.25
246.30
249.81
232.50
196.01
147.75
106.06
73.03
47.25
27.78
15.03
8.22
8.79
17.16
31.92
50.17
67.04
80.16
88.40
91.35
90.53
88.77
88.68
91.70
97.49
102.92
105.73
104.44
98.61
89.73
80.73
74.30
72.05
74.08
78.52
83.71
87.89
89.14
86.04
77.88
64.48
46.32
24.50
0.19
-24.78
-48.73
-70.55
-89.86
-106.94
-122.68
-138.16
-153.96
-169.74
-183.90
-194.20
-198.85
-197.25
-190.29
-179.99
-168.63
-157.90
-148.35
-139.46
-130.10
-119.45
-107.41
-94.52
-81.80
-70.48
-61.83
-57.11
-57.35
-63.08
-74.16
-89.23
-105.72
-120.39
-130.30
-133.87
-131.36
-124.70
-116.52
-110.04
-107.38
-109.04
-113.84
-119.71
-124.42
-126.06
-123.32
-115.23
-103.11
-88.77
-73.85
-59.53
-46.76
-36.82
-31.28
-31.50
-37.04
-48.42
-64.01
-79.85
-90.89
-93.49
-87.60
-76.90
-66.88
-60.98
-63.52
-75.81
-96.53
-123.15
-153.60
-186.71
-221.32
-255.55
-267.84
-245.78
-190.38
-116.97
-45.32
12.34
55.53
91.29
120.11
146.93
168.62
179.83
177.70
164.40
145.62
126.84
113.00
104.42
100.47
97.20
92.41
86.40
80.94
77.12
73.97
69.12
60.25
47.83
31.92
13.42
-6.35
-25.82
-43.07
-56.06
-62.98
-63.22
-57.09
-47.75
-39.15
-34.39
-34.37
-37.60
-40.76
-40.43
-34.73
-23.70
-10.24
1.18
5.72
-0.20
-18.24
-47.93
-87.06
-132.13
-178.32
-219.89
-250.45
-264.33
-257.71
-230.13
-183.93
-123.44
-53.01
24.70
108.77
198.30
289.56
374.85
442.79
482.82
487.98
457.16
395.09
310.17
212.03
108.85
8.00
-84.76
-162.22
-219.06
-254.11
-271.75
-280.31
-287.59
-298.11
-308.17
-309.85
-290.43
-240.96
-160.46
-56.96
56.04
165.62
261.69
343.25
413.10
481.15
556.78
645.79
748.37
859.68
972.65
1076.91
1166.13
1195.34
1130.26
961.62
716.44
444.81
192.66
1.90
-137.86
-243.25
-327.18
-390.44
-429.37
-442.13
-430.86
-403.66
-371.00
-344.26
-326.64
-317.88
-311.47
-300.71
-281.60
-254.42
-222.85
-190.73
-162.29
-137.15
-115.44
-96.37
-80.72
-70.70
-69.37
-79.45
-101.27
-133.20
-168.95
-201.22
-222.34
-227.08
-214.18
-186.79
-151.53
-115.83
-86.07
-64.45
-49.97
-39.04
-27.53
-12.50
6.70
28.23
48.99
66.15
79.18
90.04
102.31
119.29
142.08
168.43
193.54
212.34
221.70
221.55
214.38
203.50
191.37
178.91
165.82
151.66
136.65
121.51
106.51
91.30
75.12
57.55
39.31
21.63
5.92
-6.82
-16.44
-24.19
-31.34
-38.49
-45.60
-52.03
-58.81
-67.87
-80.84
-98.17
-120.29
-146.03
-173.02
-198.50
-219.07
-234.70
-247.19
-258.52
-270.12
-284.44
-301.89
-320.31
-335.36
-340.38
-333.69
-317.36
-295.87
-275.26
-264.60
-270.82
-296.43
-338.43
-386.98
-434.77
-476.40
-508.27
-507.83
-462.28
-372.95
-256.02
-150.98
-65.02
4.77
63.24
118.17
171.60
220.18
259.99
288.54
305.85
316.63
322.44
324.16
323.46
322.32
320.61
317.90
313.71
307.88
302.51
296.52
288.24
276.94
262.76
245.29
224.70
201.92
178.68
158.34
141.82
128.66
117.74
107.50
95.87
81.48
64.24
45.44
27.91
13.52
3.12
-3.49
-7.41
-10.34
-13.72
-18.28
-23.89
-29.60
-34.71
-38.93
-42.37
-45.37
-48.33
-51.44
-54.67
-57.81
-60.60
-62.72
-63.82
-63.48
-61.17
-56.40
-48.89
-38.90
-27.22
-15.12
-3.92
5.36
12.15
16.34
18.05
17.47
14.78
10.33
4.71
-1.26
-6.66
-10.82
-13.51
-15.02
-15.94
-16.91
-18.43
-20.73
-23.81
-27.50
-31.49
-35.32
-38.51
-40.59
-41.30
-40.59
-38.68
-35.99
-33.03
-30.33
-28.33
-27.24
-26.89
-26.72
-25.74
-22.83
-17.02
-7.87
4.41
18.94
34.46
49.61
63.26
74.70
83.62
90.07
94.18
96.08
95.81
93.45
89.25
83.69
77.40
70.87
64.26
57.42
49.98
41.65
32.40
22.38
11.82
0.85
-10.42
-21.85
-33.16
-43.96
-53.92
-62.94
-71.24
-79.22
-87.19
-95.22
-102.98
-109.73
-114.52
-116.33
-114.37
-108.30
-98.40
-85.52
-70.90
-55.84
-41.37
-28.13
-16.41
-6.35
1.96
8.45
13.17
16.28
18.20
19.33
20.09
20.72
21.35
22.02
22.69
23.25
23.47
23.09
21.91
19.87
17.13
13.98
10.68
7.42
4.26
1.18
-1.81
-4.70
-7.63
-10.91
-14.98
-20.16
-26.22
-32.28
-36.82
-38.19
-35.24
-27.72
-16.43
-2.93
11.05
24.04
35.20
44.16
50.84
55.20
57.12
56.63
53.97
49.77
44.90
40.22
36.32
33.35
31.07
29.09
27.14
25.11
23.13
21.37
19.86
18.41
16.64
14.16
10.66
6.11
0.70
-5.23
-11.28
-17.15
-22.69
-27.86
-32.71
-37.35
-41.90
-46.53
-51.36
-56.37
-61.16
-64.93
-66.55
-64.88
-59.19
-49.48
-36.55
-21.65
-5.97
9.85
25.68
41.54
57.28
72.31
85.72
96.56
104.17
108.25
108.96
106.66
101.81
95.27
88.23
81.99
77.27
73.89
70.74
66.76
61.48
55.77
51.70
51.40
55.89
63.92
72.47
77.98
78.34
73.37
64.95
56.01
49.23
46.48
48.23
53.90
58.71
57.07
41.98
7.06
-49.61
-122.43
-198.73
-264.02
-307.70
-327.31
-328.70
-322.73
-319.63
-324.12
-336.52
-349.45
-355.25
-349.23
-330.90
-302.91
-269.35
-234.17
-200.13
-168.67
-140.14
-115.13
-94.24
-77.81
-66.58
-59.42
-53.79
-46.66
-35.66
-19.99
-1.14
18.08
34.75
47.03
55.82
63.47
72.70
85.55
102.79
123.60
146.29
169.15
191.15
213.99
239.97
270.78
306.27
343.98
379.59
408.45
427.26
435.12
435.83
434.66
436.45
443.99
457.45
475.06
494.51
514.07
519.40
500.76
453.09
377.87
282.59
177.62
72.93
-23.63
-106.58
-172.81
-219.72
-247.69
-259.96
-261.70
-258.38
-253.96
-250.12
-246.75
-243.17
-237.59
-229.23
-218.44
-206.11
-193.29
-180.78
-169.03
-158.60
-150.43
-144.96
-142.55
-142.87
-144.43
-144.76
-141.22
-132.08
-117.47
-99.38
-80.33
-62.64
-47.58
-35.33
-25.70
-18.59
-14.14
-12.47
-13.19
-15.14
-16.94
-17.78
-17.92
-18.68
-21.41
-26.51
-33.15
-39.56
-44.01
-45.65
-44.96
-42.40
-39.09
-35.71
-31.94
-26.53
-17.79
-4.65
12.71
32.61
52.26
68.51
78.97
82.91
81.43
77.20
73.51
73.02
76.93
84.61
94.08
103.14
110.38
115.61
119.56
123.09
126.53
129.48
131.14
130.91
128.87
125.71
122.21
118.63
114.52
108.95
101.06
90.60
78.16
65.05
52.88
43.00
36.02
31.64
28.72
25.74
21.35
14.96
6.92
-1.59
-9.11
-14.57
-17.68
-19.08
-19.95
-21.43
-24.12
-27.68
-30.93
-32.19
-29.79
-22.64
-10.48
6.06
25.61
46.35
66.29
83.46
96.12
102.85
102.80
95.95
83.21
66.27
47.30
28.43
11.33
-3.00
-14.28
-22.77
-29.02
-33.64
-37.11
-39.77
-41.80
-43.34
-44.60
-45.93
-47.87
-50.91
-55.33
-60.97
-67.16
-72.92
-77.21
-79.28
-78.84
-76.15
-71.89
-67.05
-62.92
-60.61
-60.81
-63.52
-67.95
-72.73
-76.26
-77.26
-75.17
-70.48
-64.36
-58.11
-52.76
-48.77
-46.20
-44.86
-44.49
-44.84
-46.24
-48.94
-52.96
-58.00
-63.59
-69.24
-74.63
-79.64
-84.29
-89.94
-97.65
-107.61
-118.89
-129.95
-139.49
-147.11
-153.38
-159.25
-168.21
-182.44
-201.66
-223.13
-242.86
-257.61
-266.03
-268.70
-267.07
-267.33
-274.30
-289.54
-310.70
-332.88
-351.04
-361.79
-364.17
-358.75
-353.59
-356.30
-371.15
-397.57
-431.21
-466.30
-497.76
-522.05
-504.79
-427.44
-290.87
-118.30
55.60
200.77
301.08
355.39
368.97
361.46
345.80
330.65
320.30
315.74
315.89
318.35
321.71
323.21
321.38
310.77
288.45
256.12
220.59
191.38
176.23
177.59
191.69
211.36
225.33
225.53
209.68
181.33
147.25
114.26
87.16
68.34
58.97
57.54
62.03
70.35
80.51
90.75
99.69
106.71
112.03
116.80
121.48
126.06
129.95
132.26
132.23
129.43
123.81
115.48
104.62
91.29
75.78
58.84
41.89
26.61
14.45
6.01
0.73
-2.75
-6.04
-10.24
-15.43
-20.74
-24.78
-26.29
-24.74
-20.45
-14.45
-7.99
-2.03
2.95
6.88
9.96
12.38
14.36
16.21
18.40
21.41
25.48
30.30
35.08
38.85
40.90
41.01
39.46
36.67
32.93
28.24
22.47
15.61
7.93
-0.06
-7.85
-15.14
-21.93
-28.43
-34.85
-41.16
-46.98
-51.56
-54.02
-53.61
-49.89
-43.01
-33.55
-22.42
-10.72
0.48
10.13
17.31
21.33
22.00
19.80
15.78
11.38
7.87
5.94
5.46
5.67
5.58
4.49
2.32
-0.37
-2.60
-3.37
-2.00
1.70
7.43
14.67
22.87
31.63
40.68
49.69
58.08
65.04
69.74
71.63
70.74
67.69
63.46
58.93
54.62
50.47
46.08
40.95
34.77
27.57
19.59
11.13
2.34
-6.81
-16.46
-26.62
-37.07
-47.32
-56.76
-64.90
-71.52
-76.76
-80.99
-84.58
-87.84
-90.86
-93.67
-96.18
-98.26
-99.57
-99.49
-97.16
-91.70
-82.45
-69.27
-52.55
-33.14
-12.10
9.53
30.92
51.39
70.50
87.92
103.50
117.22
129.14
139.38
147.94
154.65
159.14
161.06
160.18
156.64
151.00
144.14
136.93
130.05
123.71
117.74
111.73
105.24
97.91
89.46
79.69
68.49
56.00
42.77
29.63
17.59
7.37
-0.88
-7.67
-13.94
-20.67
-28.42
-37.05
-45.74
-53.22
-58.19
-59.69
-57.45
-51.89
-44.01
-35.06
-26.20
-18.23
-11.58
-6.31
-2.26
0.73
2.82
4.11
4.71
4.68
4.07
2.89
1.18
-0.98
-3.45
-6.02
-8.43
-10.53
-12.21
-13.50
-14.52
-15.42
-16.32
-17.40
-18.78
-20.58
-22.86
-25.52
-28.38
-31.18
-33.77
-36.15
-38.50
-41.11
-44.24
-47.97
-52.21
-56.73
-61.12
-64.90
-67.47
-68.27
-66.82
-62.99
-57.01
-49.47
-41.17
-32.81
-24.86
-17.52
-10.84
-4.83
0.34
4.44
7.24
8.68
8.92
8.28
7.15
5.86
4.59
3.40
2.26
1.16
0.15
-0.72
-1.41
-2.00
-2.68
-3.71
-5.32
-7.64
-10.69
-14.30
-18.22
-22.14
-25.78
-28.99
-31.74
-34.17
-36.51
-39.03
-41.92
-45.27
-48.97
-52.69
-55.85
-57.72
-57.51
-54.65
-48.94
-40.72
-30.73
-19.96
-9.37
0.31
8.58
15.19
20.01
22.99
24.22
24.00
22.75
21.03
19.31
17.87
16.74
15.83
14.96
14.09
13.29
12.65
12.22
11.86
11.26
10.05
8.03
5.22
1.87
-1.72
-5.36
-9.02
-12.77
-16.71
-20.88
-25.25
-29.89
-34.93
-40.46
-46.30
-51.87
-56.19
-58.12
-56.79
-51.91
-43.90
-33.77
-22.75
-11.93
-1.98
6.79
14.37
20.80
26.06
30.03
32.54
33.54
33.14
31.66
29.54
27.22
25.01
23.08
21.39
19.82
18.28
16.76
15.35
14.11
12.95
11.57
9.53
6.41
2.13
-3.08
-8.69
-14.15
-19.11
-23.51
-27.58
-31.67
-36.09
-41.05
-46.58
-52.47
-58.21
-63.04
-66.00
-66.25
-63.28
-57.11
-48.25
-37.55
-25.98
-14.48
-3.81
5.40
12.71
17.88
20.89
21.95
21.39
19.55
16.71
13.00
8.53
3.38
-2.29
-8.26
-14.27
-20.12
-25.67
-30.85
-35.66
-40.19
-44.68
-49.61
-55.58
-63.27
-73.13
-85.15
-98.62
-112.24
-124.43
-133.89
-140.08
-143.39
-144.86
-145.55
-145.85
-145.17
-142.12
-135.23
-123.47
-106.47
-84.41
-57.63
-26.61
7.51
42.42
74.43
99.14
113.06
115.35
108.63
98.44
91.33
92.45
103.88
124.25
149.82
175.97
198.56
214.40
221.36
218.15
204.63
182.19
153.85
123.83
96.37
74.50
59.11
49.04
41.86
35.05
26.98
17.22
6.29
-4.99
-15.97
-26.42
-36.16
-44.79
-51.39
-54.69
-53.65
-47.96
-38.30
-26.02
-12.57
1.17
15.01
29.24
44.00
58.94
73.20
85.64
95.28
101.41
103.75
102.35
97.56
90.11
80.95
71.15
61.57
52.72
44.62
37.03
29.67
22.41
15.28
8.37
1.62
-5.16
-12.28
-19.95
-28.12
-36.50
-44.67
-52.26
-59.23
-65.83
-72.50
-79.63
-87.37
-95.52
-103.84
-112.22
-120.72
-129.26
-137.09
-142.39
-142.43
-134.27
-115.52
-84.96
-42.57
10.33
70.94
134.54
194.61
243.67
275.02
284.95
274.17
247.79
213.74
180.00
152.08
131.66
116.75
102.88
84.92
58.62
21.79
-25.11
-78.78
-133.47
-181.84
-216.52
-231.98
-226.34
-202.19
-165.81
-125.13
-87.30
-56.72
-34.58
-19.04
-8.12
-0.69
2.97
2.27
-1.97
-7.41
-11.38
-12.44
-11.20
-9.81
-11.17
-17.66
-29.90
-46.21
-62.65
-73.76
-74.42
-63.46
-42.85
-18.37
2.36
13.39
13.28
5.69
-2.62
-5.03
1.61
15.45
31.08
43.04
49.23
51.12
51.97
53.99
56.61
56.73
51.07
38.84
22.15
5.75
-5.32
-8.25
-3.94
3.45
8.51
7.33
-0.92
-13.83
-27.08
-36.60
-40.27
-38.32
-32.69
-25.82
-19.58
-14.99
-12.38
-11.64
-12.61
-15.05
-18.75
-23.53
-29.07
-34.96
-40.82
-46.12
-50.33
-53.05
-54.46
-55.44
-57.22
-60.77
-65.81
-70.62
-72.50
-68.67
-57.59
-39.90
-18.53
2.21
18.01
26.23
26.12
19.00
7.86
-3.33
-10.63
-10.99
-2.95
12.84
34.33
57.84
79.52
96.87
109.92
120.97
133.66
151.22
174.49
201.93
228.99
250.10
260.96
260.23
249.26
231.24
209.51
180.56
142.87
96.45
43.09
-14.00
-70.94
-123.98
-170.62
-209.94
-241.07
-262.60
-274.03
-275.87
-269.75
-255.23
-234.81
-212.13
-190.65
-172.55
-157.77
-145.31
-134.13
-123.86
-114.94
-108.56
-105.22
-104.41
-105.03
-105.88
-106.70
-107.84
-109.45
-110.78
-110.45
-106.58
-97.63
-83.12
-63.72
-41.24
-17.99
3.77
22.31
36.40
45.62
50.31
51.50
50.84
50.48
52.80
59.86
72.74
90.92
112.41
134.16
153.07
166.73
174.09
175.46
172.11
165.51
156.71
145.93
132.65
116.06
95.78
72.35
47.30
22.66
0.36
-18.56
-34.22
-47.87
-61.26
-75.96
-92.68
-110.88
-128.95
-144.68
-155.87
-160.88
-158.89
-149.89
-134.67
-114.58
-91.42
-67.14
-43.48
-21.62
-1.99
15.47
30.82
43.58
52.83
57.73
58.16
55.03
49.87
44.15
38.60
33.17
27.53
21.54
15.51
9.86
4.78
0.02
-4.81
-9.88
-14.82
-18.89
-21.35
-21.89
-20.72
-18.36
-15.32
-11.92
-8.38
-4.98
-2.13
-0.32
0.02
-1.12
-3.31
-5.66
-6.98
-6.11
-2.23
4.85
14.63
26.09
38.16
50.07
61.56
72.78
83.87
94.67
104.62
112.86
118.72
121.92
122.83
122.26
121.21
120.48
120.44
121.04
121.89
122.58
122.79
122.41
121.46
119.96
117.86
115.06
111.49
107.25
102.63
97.94
93.25
88.12
81.61
72.46
59.62
42.79
22.59
0.54
-21.52
-41.91
-59.50
-73.72
-84.32
-91.16
-94.13
-93.29
-89.10
-82.55
-75.01
-68.01
-62.81
-60.15
-60.17
-62.36
-65.83
-69.53
-72.56
-74.36
-74.84
-74.25
-72.96
-71.20
-69.03
-66.30
-62.85
-58.65
-53.89
-48.93
-44.11
-39.61
-35.46
-31.56
-27.83
-24.31
-21.19
-18.71
-17.10
-16.45
-16.69
-17.64
-19.10
-20.90
-22.96
-25.28
-27.94
-31.02
-34.47
-38.06
-41.36
-43.75
-44.69
-43.78
-40.86
-36.04
-29.58
-21.90
-13.46
-4.71
4.03
12.66
21.35
30.42
40.06
50.03
59.59
67.62
73.18
75.92
76.25
75.22
74.00
73.46
73.94
75.26
76.95
78.53
79.60
79.89
79.22
77.41
74.34
69.90
64.11
57.09
49.17
40.84
32.67
25.09
18.21
11.75
5.14
-2.18
-10.50
-19.66
-29.03
-37.70
-44.68
-49.04
-50.08
-47.39
-41.02
-31.49
-19.76
-7.05
5.45
16.85
26.66
34.72
41.03
45.59
48.32
49.19
48.34
46.16
43.27
40.30
37.72
35.67
34.07
32.74
31.56
30.50
29.57
28.71
27.71
26.27
24.15
21.27
17.79
13.99
10.11
6.29
2.50
-1.37
-5.39
-9.47
-13.47
-17.23
-20.72
-24.16
-27.92
-32.44
-37.96
-44.30
-50.69
-55.94
-58.69
-57.91
-53.22
-45.05
-34.49
-22.89
-11.45
-0.95
8.31
16.29
23.01
28.43
32.44
35.01
36.25
36.48
36.08
35.40
34.63
33.83
32.96
31.95
30.77
29.43
28.01
26.54
25.02
23.39
21.51
19.22
16.39
12.98
9.06
4.81
0.40
-3.98
-8.16
-12.01
-15.41
-18.36
-21.03
-23.68
-26.69
-30.35
-34.83
-40.00
-45.43
-50.40
-53.98
-55.15
-53.15
-47.66
-39.01
-28.12
-16.24
-4.61
5.83
14.65
21.75
27.26
31.25
33.75
34.72
34.25
32.59
30.21
27.65
25.39
23.69
22.55
21.72
20.88
19.72
18.11
16.13
13.93
11.71
9.54
7.41
5.17
2.67
-0.20
-3.51
-7.24
-11.31
-15.62
-19.97
-24.19
-28.13
-31.80
-35.37
-39.13
-43.37
-48.15
-53.21
-57.96
-61.65
-63.50
-62.95
-59.76
-54.05
-46.23
-36.99
-27.17
-17.66
-9.27
-2.60
2.00
4.49
5.08
4.19
2.36
0.14
-2.00
-3.84
-5.39
-6.96
-8.90
-11.46
-14.57
-17.68
-19.85
-20.06
-17.62
-12.68
-6.31
-0.18
4.00
5.16
3.18
-1.12
-6.36
-11.13
-14.36
-15.51
-14.68
-12.53
-9.99
-7.99
-6.99
-6.85
-6.76
-5.66
-2.75
2.12
8.49
15.66
23.27
31.45
40.74
51.55
63.82
76.65
88.46
97.36
101.77
100.81
94.61
84.26
71.43
58.42
47.29
39.61
35.92
35.70
37.65
40.19
41.95
41.95
40.58
38.55
36.75
35.44
33.98
31.25
26.38
19.29
10.64
2.73
-2.72
-5.14
-6.35
-10.08
-20.04
-37.32
-59.09
-79.24
-88.71
-80.03
-48.56
5.80
79.26
166.16
260.60
356.90
437.54
484.40
483.05
432.07
345.04
244.25
150.31
74.60
18.16
-24.53
-54.85
-76.45
-89.41
-92.81
-87.48
-76.74
-65.07
-56.13
-51.62
-49.84
-48.88
-46.14
-40.90
-34.72
-30.15
-28.79
-30.04
-31.44
-29.27
-21.39
-7.66
8.90
22.95
28.88
22.91
4.24
-25.04
-60.53
-97.22
-129.92
-154.78
-169.94
-175.75
-174.31
-168.63
-161.43
-154.08
-146.39
-136.69
-123.28
-105.40
-84.04
-61.60
-41.03
-24.99
-15.00
-11.11
-11.81
-14.47
-16.05
-14.25
-8.12
1.61
12.90
23.13
29.94
31.63
27.06
15.57
-3.29
-29.04
-59.42
-90.37
-117.24
-136.03
-144.97
-145.13
-139.32
-131.75
-125.97
-123.74
-125.20
-130.48
-139.92
-154.29
-174.07
-197.50
-222.33
-245.38
-262.91
-272.05
-272.69
-266.46
-255.85
-243.00
-227.34
-209.43
-190.42
-171.69
-154.89
-142.71
-136.62
-136.70
-141.77
-148.29
-156.04
-167.06
-183.41
-193.81
-187.71
-158.03
-105.91
-53.76
-9.12
26.85
56.42
87.38
123.75
164.91
206.70
242.89
268.08
282.37
287.29
285.88
281.65
276.39
269.59
260.12
247.93
234.95
226.28
224.75
230.19
240.12
250.15
255.85
254.21
244.44
227.93
208.61
189.65
172.92
159.16
144.20
124.55
98.03
64.75
27.06
-10.48
-43.32
-70.04
-90.31
-104.80
-114.38
-120.36
-122.62
-121.59
-117.69
-111.81
-105.14
-98.48
-92.36
-86.48
-80.40
-73.90
-67.42
-61.72
-57.52
-55.29
-54.99
-56.55
-59.95
-65.33
-72.52
-80.59
-87.42
-90.17
-86.30
-74.47
-55.15
-30.30
-2.70
24.99
50.61
72.81
90.76
103.97
112.21
115.59
114.62
110.13
103.15
94.67
85.45
75.98
66.46
56.79
46.77
36.19
24.96
13.31
1.73
-9.09
-18.39
-25.61
-30.51
-33.19
-34.03
-33.64
-32.60
-31.35
-30.00
-28.16
-24.92
-19.05
-9.46
4.26
21.50
40.76
60.24
78.55
95.23
110.68
125.53
140.01
153.55
165.09
173.67
178.87
180.80
179.75
175.86
169.22
160.26
150.24
140.98
134.10
129.93
126.93
122.22
112.94
97.72
77.41
54.69
32.65
13.52
-2.12
-15.02
-26.41
-37.08
-46.97
-55.45
-61.96
-66.72
-70.88
-76.14
-84.20
-96.31
-113.03
-134.38
-159.78
-187.80
-215.77
-239.57
-254.32
-255.81
-242.09
-214.55
-177.56
-136.84
-97.32
-61.67
-30.12
-1.52
25.35
50.95
75.05
97.41
118.13
137.76
156.63
174.36
189.82
201.47
208.13
209.40
205.96
199.36
191.40
183.44
175.66
166.93
155.27
138.92
117.39
92.15
66.18
42.82
24.32
11.02
1.49
-6.44
-14.45
-22.95
-31.11
-37.49
-40.88
-40.98
-38.52
-35.02
-32.27
-31.46
-32.68
-34.90
-36.54
-36.41
-34.61
-32.78
-33.41
-38.78
-49.79
-65.56
-83.88
-102.22
-118.70
-132.68
-144.62
-155.61
-166.83
-179.16
-192.85
-207.39
-221.39
-232.60
-238.45
-236.62
-225.67
-205.32
-176.50
-141.25
-102.57
-64.21
-30.12
-3.67
13.27
20.87
21.05
16.70
10.45
3.95
-2.25
-8.14
-13.63
-18.32
-21.72
-23.70
-24.70
-25.46
-26.53
-27.78
-28.45
-27.44
-23.93
-17.75
-9.56
-0.55
7.94
14.83
19.53
21.91
22.18
20.71
17.84
13.84
8.99
3.69
-1.50
-5.88
-8.74
-9.74
-9.08
-7.49
-6.05
-5.74
-7.08
-9.99
-13.90
-17.99
-21.58
-24.35
-26.28
-27.66
-28.83
-30.17
-31.96
-34.45
-37.73
-41.62
-45.61
-48.84
-50.35
-49.36
-45.57
-39.25
-31.15
-22.22
-13.31
-5.04
2.33
8.76
14.32
19.09
23.13
26.46
29.08
31.01
32.27
32.90
32.98
32.63
31.99
31.19
30.36
29.58
28.91
28.36
27.92
27.52
27.02
26.28
25.13
23.45
21.19
18.41
15.26
11.96
8.69
5.51
2.39
-0.83
-4.25
-7.99
-12.02
-16.30
-20.80
-25.50
-30.28
-34.88
-38.72
-41.03
-41.08
-38.37
-32.95
-25.42
-16.77
-8.03
0.02
7.00
12.91
17.90
22.08
25.43
27.80
29.11
29.40
28.91
27.89
26.60
25.19
23.72
22.28
21.01
20.11
19.69
19.70
19.91
20.02
19.72
18.88
17.55
15.88
13.98
11.87
9.42
6.46
2.84
-1.49
-6.39
-11.62
-16.80
-21.61
-25.89
-29.71
-33.42
-37.61
-42.80
-49.23
-56.55
-63.77
-69.41
-71.92
-70.16
-63.77
-53.35
-40.25
-26.21
-12.97
-1.78
6.66
12.27
15.39
16.62
16.53
15.68
14.51
13.41
12.69
12.63
13.29
14.55
16.10
17.51
18.42
18.60
18.07
17.02
15.70
14.35
13.06
11.83
10.54
9.05
7.20
4.95
2.36
-0.42
-3.17
-5.76
-8.13
-10.41
-12.83
-15.67
-19.18
-23.47
-28.39
-33.46
-37.90
-40.74
-41.08
-38.30
-32.38
-23.81
-13.54
-2.65
7.91
17.46
25.67
32.48
37.95
42.24
45.53
47.96
49.62
50.58
50.83
50.44
49.51
48.22
46.83
45.49
44.27
43.08
41.72
40.03
37.94
35.56
33.12
30.80
28.65
26.50
24.05
20.97
17.16
12.69
7.85
2.99
-1.66
-6.03
-10.26
-14.54
-19.07
-24.01
-29.46
-35.43
-41.76
-47.98
-53.29
-56.65
-57.18
-54.36
-48.34
-39.84
-29.98
-19.86
-10.33
-1.89
5.28
11.17
15.87
19.49
22.19
24.13
25.49
26.39
26.92
27.15
27.17
27.10
27.04
27.05
27.09
27.06
26.82
26.26
25.29
23.93
22.21
20.17
17.83
15.13
12.04
8.59
4.90
1.19
-2.33
-5.50
-8.33
-10.98
-13.72
-16.83
-20.57
-25.12
-30.49
-36.45
-42.42
-47.49
-50.60
-50.82
-47.70
-41.43
-32.82
-23.00
-13.10
-3.91
4.15
10.98
16.55
20.80
23.63
24.98
25.04
24.15
22.80
21.39
20.11
18.90
17.56
15.91
13.86
11.50
8.99
6.46
3.89
1.16
-2.01
-5.87
-10.64
-16.36
-22.88
-29.90
-37.08
-44.23
-51.43
-58.93
-67.05
-75.96
-85.61
-95.80
-106.41
-117.42
-128.84
-140.35
-151.03
-159.48
-164.17
-164.13
-159.30
-150.54
-139.16
-126.40
-113.08
-99.51
-85.79
-71.96
-58.12
-44.41
-31.02
-18.39
-7.55
-0.07
2.07
-2.64
-14.35
-31.19
-49.29
-63.47
-68.55
-60.83
-39.43
-6.79
31.73
69.40
100.12
120.19
129.16
129.28
124.04
116.46
108.04
98.70
87.70
74.67
60.39
46.42
34.25
24.37
15.92
7.30
-2.59
-13.37
-22.87
-27.88
-25.59
-15.03
2.38
23.29
43.74
60.67
72.77
80.54
85.65
89.99
94.97
101.33
109.19
118.26
127.96
137.52
146.05
152.84
157.59
160.61
162.69
164.72
167.16
169.76
171.47
170.79
166.20
156.44
140.80
119.25
92.65
62.85
32.68
5.40
-16.04
-29.90
-36.27
-36.94
-34.80
-32.95
-33.99
-39.67
-50.88
-67.64
-89.01
-112.97
-136.36
-155.26
-165.81
-165.39
-153.47
-132.08
-105.24
-77.79
-53.89
-35.92
-24.11
-17.00
-12.39
-8.36
-3.77
1.72
8.01
14.94
22.54
30.86
39.77
48.78
57.07
63.83
68.59
71.43
72.97
74.04
75.29
76.77
77.93
77.83
75.66
71.08
64.43
56.52
48.32
40.47
33.12
25.99
18.58
10.49
1.53
-8.24
-18.69
-29.63
-40.83
-51.92
-62.21
-70.76
-76.52
-78.69
-76.99
-71.91
-64.48
-56.01
-47.70
-40.32
-34.25
-29.52
-26.05
-23.74
-22.55
-22.41
-23.17
-24.67
-26.70
-29.07
-31.61
-34.10
-36.31
-38.02
-39.06
-39.39
-39.11
-38.41
-37.51
-36.59
-35.84
-35.35
-35.02
-34.55
-33.16
-29.78
-23.15
-12.09
4.06
25.39
51.29
80.69
112.14
143.98
174.39
201.50
223.60
239.32
247.82
248.87
242.73
229.94
211.08
186.76
157.73
124.98
89.84
53.92
18.95
-13.39
-41.68
-64.87
-82.46
-94.55
-101.74
-104.86
-104.63
-101.37
-94.99
-85.26
-72.29
-56.88
-40.47
-24.73
-11.01
0.10
8.84
15.99
22.40
28.71
35.22
41.86
48.25
53.66
57.07
57.43
54.09
47.12
37.43
26.54
16.01
6.98
-0.11
-5.46
-9.59
-13.03
-16.13
-19.11
-22.01
-24.66
-26.67
-27.39
-26.17
-22.63
-16.96
-9.97
-2.85
3.25
7.53
9.77
10.28
9.58
8.19
6.39
4.33
2.02
-0.49
-3.10
-5.64
-7.95
-9.93
-11.49
-12.53
-12.90
-12.41
-10.98
-8.72
-6.03
-3.47
-1.63
-0.90
-1.33
-2.66
-4.45
-6.28
-7.88
-9.20
-10.39
-11.68
-13.22
-15.02
-17.00
-19.02
-21.02
-23.02
-25.12
-27.47
-30.19
-33.41
-37.25
-41.76
-46.83
-52.01
-56.46
-59.09
-58.95
-55.65
-49.56
-41.71
-33.43
-25.83
-19.52
-14.56
-10.67
-7.52
-4.91
-2.80
-1.21
-0.05
0.89
1.81
2.79
3.80
4.62
5.09
5.20
5.10
5.05
5.26
5.74
6.28
6.54
6.19
5.09
3.35
1.20
-1.02
-3.08
-4.90
-6.50
-7.97
-9.41
-10.86
-12.34
-13.86
-15.51
-17.39
-19.62
-22.25
-25.29
-28.69
-32.33
-36.04
-39.48
-42.14
-43.38
-42.57
-39.38
-33.88
-26.57
-18.27
-9.87
-2.08
4.65
10.17
14.42
17.42
19.17
19.74
19.28
18.10
16.61
15.28
14.48
14.38
14.90
15.74
16.56
17.03
16.95
16.28
15.13
13.67
12.05
10.33
8.45
6.21
3.46
0.12
-3.70
-7.77
-11.78
-15.54
-18.95
-22.09
-25.15
-28.33
-31.83
-35.76
-40.08
-44.51
-48.44
-50.99
-51.21
-48.44
-42.51
-33.90
-23.61
-12.90
-2.89
5.63
12.37
17.37
20.93
23.35
24.86
25.60
25.62
24.99
23.84
22.37
20.82
19.38
18.19
17.31
16.72
16.34
16.08
15.86
15.56
15.10
14.30
13.01
11.12
8.58
5.50
2.09
-1.43
-4.86
-8.12
-11.27
-14.36
-17.43
-20.47
-23.47
-26.51
-29.77
-33.52
-37.97
-43.05
-48.28
-52.78
-55.48
-55.32
-51.68
-44.58
-34.71
-23.27
-11.61
-0.91
8.15
15.40
21.06
25.50
29.02
31.78
33.77
34.95
35.28
34.83
33.72
32.13
30.28
28.37
26.57
25.09
24.07
23.52
23.31
23.18
22.77
21.79
20.11
17.84
15.21
12.47
9.76
7.04
4.13
0.87
-2.75
-6.65
-10.61
-14.41
-17.91
-21.10
-24.06
-26.97
-30.10
-33.75
-38.16
-43.30
-48.74
-53.50
-56.29
-55.86
-51.52
-43.43
-32.60
-20.53
-8.73
1.77
10.48
17.44
22.91
27.14
30.30
32.44
33.65
34.03
33.74
32.96
31.89
30.74
29.67
28.83
28.25
27.93
27.82
27.87
27.99
28.06
27.85
27.09
25.57
23.24
20.26
16.95
13.65
10.52
7.55
4.51
1.15
-2.68
-6.99
-11.62
-16.27
-20.65
-24.50
-27.72
-30.45
-32.99
-35.75
-39.13
-43.28
-47.96
-52.49
-55.86
-56.94
-54.84
-49.21
-40.36
-29.26
-17.23
-5.61
4.56
12.71
18.74
22.86
25.37
26.62
26.88
26.44
25.58
24.59
23.67
22.93
22.34
21.79
21.20
20.56
19.99
19.66
19.71
20.17
20.86
21.42
21.38
20.33
18.08
14.74
10.73
6.54
2.53
-1.16
-4.71
-8.35
-12.20
-16.16
-19.97
-23.41
-26.45
-29.37
-32.64
-36.63
-41.42
-46.62
-51.42
-54.71
-55.42
-52.82
-46.73
-37.66
-26.64
-14.99
-3.93
5.64
13.35
19.24
23.60
26.77
28.95
30.26
30.77
30.61
29.99
29.22
28.57
28.09
27.71
27.21
26.44
25.42
24.36
23.55
23.16
23.10
23.03
22.41
20.87
18.31
14.98
11.38
8.01
5.10
2.54
-0.06
-3.15
-7.00
-11.56
-16.41
-21.07
-25.07
-28.24
-30.80
-33.21
-36.13
-40.09
-45.29
-51.42
-57.64
-62.72
-65.36
-64.55
-59.85
-51.53
-40.49
-28.00
-15.38
-3.73
6.26
14.34
20.59
25.33
28.89
31.52
33.38
34.48
34.88
34.66
34.04
33.30
32.69
32.35
32.27
32.32
32.36
32.29
32.12
31.85
31.41
30.64
29.30
27.25
24.52
21.36
18.15
15.19
12.59
10.17
7.62
4.55
0.77
-3.70
-8.63
-13.59
-18.23
-22.27
-25.70
-28.68
-31.64
-35.06
-39.43
-44.96
-51.39
-57.96
-63.42
-66.34
-65.52
-60.47
-51.51
-39.76
-26.75
-13.92
-2.31
7.56
15.60
21.97
26.80
30.22
32.38
33.46
33.76
33.67
33.49
33.45
33.53
33.58
33.37
32.81
31.95
31.04
30.36
30.03
29.95
29.79
29.15
27.77
25.56
22.68
19.40
15.98
12.54
9.15
5.74
2.29
-1.25
-4.91
-8.65
-12.45
-16.20
-19.83
-23.27
-26.61
-30.05
-33.91
-38.45
-43.74
-49.49
-54.96
-59.07
-60.62
-58.66
-52.83
-43.44
-31.46
-18.27
-5.27
6.38
16.01
23.37
28.55
31.76
33.27
33.38
32.42
30.83
29.10
27.63
26.66
26.16
25.93
25.76
25.56
25.45
25.57
25.98
26.50
26.71
26.16
24.56
21.91
18.53
14.82
11.10
7.52
3.96
0.22
-3.87
-8.33
-13.04
-17.81
-22.42
-26.72
-30.67
-34.30
-37.80
-41.44
-45.54
-50.37
-55.92
-61.75
-66.96
-70.33
-70.69
-67.26
-59.96
-49.41
-36.79
-23.41
-10.45
1.24
11.22
19.31
25.52
29.96
32.81
34.33
34.87
34.81
34.49
34.14
33.83
33.55
33.19
32.73
32.24
31.91
31.90
32.22
32.68
32.89
32.40
30.90
28.33
24.91
21.05
17.14
13.44
9.92
6.38
2.55
-1.70
-6.29
-10.95
-15.39
-19.43
-23.04
-26.44
-29.99
-34.09
-39.10
-45.18
-52.15
-59.35
-65.70
-69.86
-70.61
-67.21
-59.70
-48.92
-36.20
-23.00
-10.49
0.65
10.12
17.94
24.17
28.94
32.29
34.38
35.43
35.72
35.57
35.23
34.84
34.46
34.10
33.72
33.36
33.06
32.85
32.69
32.43
31.87
30.73
28.81
26.09
22.71
18.95
15.08
11.29
7.59
3.86
-0.10
-4.40
-9.01
-13.79
-18.49
-22.95
-27.08
-30.97
-34.86
-39.08
-43.94
-49.63
-56.04
-62.61
-68.29
-71.74
-71.66
-67.28
-58.64
-46.65
-32.78
-18.62
-5.41
6.11
15.66
23.23
28.85
32.58
34.51
34.92
34.26
33.06
31.81
30.84
30.27
30.09
30.21
30.55
31.02
31.50
31.83
31.77
31.10
29.68
27.53
24.80
21.63
18.06
14.01
9.34
4.02
-1.78
-7.71
-13.43
-18.69
-23.50
-28.03
-32.59
-37.46
-42.92
-49.15
-56.13
-63.43
-70.09
-74.70
-75.73
-72.10
-63.63
-51.18
-36.41
-21.21
-7.16
4.88
14.67
22.48
28.62
33.31
36.63
38.58
39.28
39.00
38.13
37.14
36.43
36.24
36.68
37.63
38.85
39.99
40.70
40.70
39.83
38.07
35.51
32.27
28.43
24.07
19.21
13.88
8.16
2.13
-4.11
-10.48
-16.88
-23.20
-29.35
-35.23
-40.89
-46.52
-52.46
-59.11
-66.65
-74.85
-82.84
-89.22
-92.33
-90.82
-84.09
-72.54
-57.51
-40.81
-24.23
-9.05
4.10
15.19
24.53
32.43
39.07
44.48
48.62
51.53
53.36
54.35
54.76
54.77
54.49
54.03
53.53
53.18
53.09
53.23
53.35
53.00
51.71
49.19
45.39
40.59
35.23
29.74
24.33
18.97
13.46
7.57
1.21
-5.46
-12.12
-18.42
-24.13
-29.30
-34.21
-39.36
-45.30
-52.39
-60.66
-69.58
-78.03
-84.47
-87.25
-85.15
-77.76
-65.68
-50.35
-33.63
-17.24
-2.35
10.50
21.30
30.22
37.41
42.96
46.93
49.53
51.10
52.05
52.74
53.32
53.74
53.93
53.84
53.60
53.44
53.55
54.02
54.64
54.98
54.53
52.83
49.65
45.16
39.78
34.10
28.55
23.29
18.15
12.76
6.83
0.33
-6.39
-12.85
-18.60
-23.58
-28.07
-32.68
-38.04
-44.61
-52.52
-61.43
-70.48
-78.32
-83.36
-84.07
-79.48
-69.55
-55.27
-38.40
-20.97
-4.70
9.33
20.78
29.78
36.62
41.58
44.79
46.43
46.80
46.39
45.81
45.59
46.03
47.07
48.37
49.52
50.20
50.31
49.94
49.20
48.11
46.50
44.12
40.76
36.39
31.28
25.81
20.43
15.43
10.82
6.33
1.55
-3.89
-10.16
-17.03
-24.06
-30.71
-36.67
-41.95
-46.97
-52.36
-58.76
-66.56
-75.69
-85.46
-94.61
-101.39
-104.01
-101.13
-92.30
-78.18
-60.44
-41.20
-22.47
-5.61
8.80
20.81
30.76
39.02
45.76
51.05
54.95
57.58
59.20
60.18
60.83
61.35
61.81
62.15
62.33
62.39
62.42
62.48
62.48
62.16
61.06
58.76
55.03
49.96
43.99
37.74
31.85
26.60
21.95
17.43
12.50
6.74
0.14
-7.00
-14.15
-20.87
-26.98
-32.56
-37.93
-43.51
-49.72
-56.91
-65.18
-74.20
-83.07
-90.29
-94.13
-93.10
-86.56
-74.90
-59.50
-42.26
-25.02
-9.15
4.65
16.20
25.69
33.34
39.37
43.91
47.09
49.10
50.18
50.60
50.58
50.28
49.83
49.37
49.07
49.08
49.48
50.22
51.05
51.60
51.44
50.19
47.62
43.69
38.66
32.91
26.98
21.32
16.17
11.45
6.83
1.84
-3.76
-9.90
-16.22
-22.22
-27.51
-32.06
-36.20
-40.50
-45.54
-51.77
-59.26
-67.65
-76.07
-83.18
-87.41
-87.32
-82.03
-71.60
-57.07
-40.20
-22.98
-7.09
6.46
17.33
25.68
31.90
36.36
39.37
41.15
41.97
42.12
41.97
41.86
42.00
42.46
43.13
43.83
44.40
44.74
44.80
44.56
43.89
42.57
40.40
37.20
33.05
28.15
22.81
17.34
11.91
6.48
0.95
-4.80
-10.81
-16.93
-22.92
-28.58
-33.83
-38.86
-44.06
-50.00
-57.12
-65.53
-74.73
-83.54
-90.27
-93.17
-90.96
-83.25
-70.75
-55.04
-38.08
-21.63
-6.90
5.56
15.76
23.96
30.49
35.61
39.49
42.30
44.24
45.56
46.46
47.09
47.50
47.65
47.53
47.22
46.91
46.78
46.90
47.10
47.01
46.18
44.22
41.00
36.65
31.57
26.18
20.87
15.82
10.96
6.01
0.65
-5.34
-11.94
-18.85
-25.59
-31.73
-37.08
-41.85
-46.53
-51.79
-58.17
-65.87
-74.57
-83.37
-90.85
-95.36
-95.39
-90.08
-79.54
-64.88
-47.90
-30.59
-14.54
-0.65
10.89
20.33
28.03
34.25
39.11
42.65
45.05
46.56
47.51
48.13
48.51
48.65
48.49
48.07
47.50
46.95
46.53
46.23
45.91
45.27
44.05
41.99
39.00
35.11
30.52
25.52
20.40
15.39
10.52
5.65
0.54
-5.01
-11.03
-17.37
-23.67
-29.55
-34.76
-39.32
-43.53
-47.93
-53.10
-59.50
-67.18
-75.61
-83.57
-89.37
-91.27
-87.97
-79.14
-65.53
-48.79
-30.93
-13.77
1.44
14.13
24.24
31.99
37.64
41.45
43.71
44.77
45.04
44.93
44.77
44.75
44.86
44.94
44.84
44.48
43.90
43.30
42.81
42.43
41.94
41.01
39.26
36.49
32.78
28.39
23.70
19.01
14.50
10.13
5.74
1.17
-3.66
-8.68
-13.73
-18.55
-22.96
-26.94
-30.61
-34.31
-38.41
-43.27
-49.05
-55.62
-62.38
-68.33
-72.13
-72.49
-68.50
-60.03
-47.76
-33.10
-17.75
-3.25
9.30
19.42
27.13
32.71
36.56
38.97
40.22
40.54
40.22
39.50
38.58
37.52
36.20
34.45
32.21
29.60
26.95
24.64
22.91
21.68
20.65
19.40
17.64
15.33
12.64
9.84
7.08
4.29
1.22
-2.45
-6.94
-12.19
-17.93
-23.83
-29.66
-35.41
-41.35
-47.88
-55.27
-63.43
-71.68
-78.84
-83.47
-84.31
-80.67
-72.66
-61.21
-47.75
-33.81
-20.65
-9.02
0.73
8.62
14.76
19.27
22.30
24.00
24.61
24.41
23.73
22.83
21.94
21.16
20.53
20.12
19.97
20.13
20.62
21.30
21.96
22.28
21.96
20.90
19.14
16.90
14.40
11.77
9.01
5.97
2.47
-1.57
-6.10
-10.97
-15.95
-20.89
-25.70
-30.42
-35.25
-40.44
-46.28
-52.91
-60.15
-67.36
-73.41
-76.94
-76.64
-71.72
-62.22
-49.01
-33.59
-17.68
-2.80
10.03
20.32
28.06
33.54
37.14
39.23
40.15
40.15
39.49
38.36
36.95
35.38
33.73
32.06
30.45
29.13
28.39
28.49
29.56
31.38
33.31
34.38
33.51
29.87
23.13
13.68
2.53
-9.03
-19.90
-29.54
-38.08
-46.08
-54.14
-62.51
-70.97
-79.08
-86.57
-93.63
-100.96
-109.35
-119.24
-130.40
-141.92
-152.56
-161.16
-166.90
-169.37
-168.39
-163.93
-156.25
-146.03
-134.43
-122.89
-112.69
-104.48
-98.11
-92.86
-87.91
-82.76
-77.27
-71.50
-65.48
-59.04
-51.95
-44.03
-35.30
-25.88
-15.81
-4.94
6.94
19.95
33.93
48.43
62.75
76.21
88.04
97.38
103.30
104.97
102.11
95.26
85.82
75.62
66.20
58.30
51.67
45.37
38.36
29.97
20.09
9.15
-2.06
-12.37
-20.28
-24.04
-21.96
-13.05
2.42
22.69
44.90
65.96
83.48
96.49
105.40
111.49
116.10
120.03
123.32
125.58
126.41
125.74
123.87
121.29
118.38
115.28
111.88
107.99
103.46
98.26
92.50
86.32
79.88
73.24
66.30
58.80
50.35
40.58
29.36
16.89
3.73
-9.36
-21.67
-32.78
-42.65
-51.61
-60.31
-69.50
-79.74
-91.21
-103.37
-114.97
-124.09
-128.68
-127.07
-118.58
-103.76
-84.25
-62.34
-40.30
-19.91
-2.14
12.74
24.91
34.67
42.27
47.91
51.76
54.16
55.62
56.77
58.21
60.30
63.04
66.06
68.82
70.78
71.64
71.41
70.30
68.57
66.28
63.26
59.19
53.71
46.69
38.27
28.92
19.27
9.89
1.20
-6.67
-13.86
-20.72
-27.75
-35.44
-44.25
-54.44
-65.84
-77.74
-88.75
-96.98
-100.51
-97.91
-88.75
-73.85
-55.05
-34.64
-14.80
2.98
18.06
30.49
40.70
49.16
56.14
61.71
65.79
68.34
69.43
69.31
68.34
66.92
65.41
64.05
62.99
62.25
61.74
61.27
60.51
59.08
56.65
52.97
48.04
42.08
35.43
28.47
21.48
14.57
7.68
0.67
-6.53
-13.84
-21.09
-28.05
-34.58
-40.72
-46.78
-53.29
-60.85
-69.88
-80.34
-91.36
-101.24
-107.67
-108.43
-102.16
-88.91
-70.23
-48.52
-26.29
-5.35
13.41
29.87
44.20
56.52
66.75
74.80
80.71
84.79
87.43
89.00
89.71
89.62
88.75
87.18
85.15
82.98
80.92
79.04
77.16
74.91
71.83
67.57
62.02
55.39
48.08
40.58
33.24
26.19
19.34
12.52
5.64
-1.22
-7.78
-13.66
-18.62
-22.67
-26.18
-29.82
-34.45
-40.83
-49.35
-59.80
-71.19
-81.78
-89.47
-92.29
-89.01
-79.52
-64.90
-47.05
-28.17
-10.19
5.63
18.71
29.04
36.89
42.56
46.31
48.39
49.05
48.64
47.61
46.41
45.44
44.92
44.86
45.18
45.73
46.38
47.01
47.42
47.32
46.29
43.98
40.16
34.91
28.62
21.84
15.09
8.69
2.63
-3.33
-9.56
-16.32
-23.57
-30.99
-38.07
-44.37
-49.76
-54.56
-59.45
-65.31
-72.87
-82.36
-93.22
-104.04
-112.66
-116.82
-114.77
-105.94
-91.17
-72.42
-52.15
-32.51
-14.83
0.46
13.57
24.91
34.70
42.92
49.39
54.01
56.88
58.29
58.63
58.27
57.48
56.40
55.05
53.43
51.59
49.65
47.73
45.91
44.11
42.05
39.38
35.77
31.11
25.64
19.84
14.36
9.66
5.82
2.56
-0.71
-4.60
-9.47
-15.30
-21.73
-28.23
-34.35
-39.91
-45.05
-50.15
-55.74
-62.28
-70.01
-78.68
-87.35
-94.43
-97.92
-96.06
-87.99
-74.15
-56.23
-36.63
-17.59
-0.54
14.08
26.59
37.44
46.83
54.55
60.13
63.19
63.68
62.00
58.80
54.85
50.77
46.94
43.49
40.39
37.59
35.16
33.32
32.39
32.61
33.97
36.14
38.49
40.39
41.36
41.32
40.53
39.40
38.31
37.35
36.32
34.83
32.45
28.99
24.56
19.54
14.39
9.51
4.97
0.56
-4.10
-9.42
-15.72
-23.16
-31.69
-41.01
-50.39
-58.74
-64.59
-66.53
-63.65
-55.95
-44.40
-30.71
-16.74
-3.94
6.89
15.58
22.32
27.26
30.45
31.84
31.55
30.01
27.95
26.09
24.93
24.59
24.82
25.34
25.99
26.82
28.02
29.63
31.36
32.61
32.76
31.48
28.84
25.31
21.46
17.68
14.08
10.42
6.39
2.03
-2.32
-6.11
-8.99
-10.96
-12.52
-14.39
-17.28
-21.63
-27.05
-32.81
-38.23
-43.09
-47.66
-52.43
-57.55
-62.54
-66.38
-67.20
-63.40
-54.46
-41.26
-25.98
-11.31
0.39
7.59
9.78
8.44
6.26
6.40
11.83
24.69
45.93
75.27
111.04
143.53
162.17
158.23
129.29
81.39
26.30
-23.36
-57.99
-73.38
-71.24
-57.08
-37.11
-17.35
-1.59
8.76
13.88
14.76
12.36
7.17
0.19
-7.21
-13.49
-18.02
-20.35
-20.89
-20.80
-21.36
-23.27
-25.55
-26.03
-22.44
-13.79
-1.40
11.03
19.00
19.24
11.36
-1.68
-15.08
-24.64
-28.72
-28.66
-27.77
-29.19
-34.24
-42.14
-50.61
-57.29
-60.68
-60.40
-56.80
-50.45
-41.82
-31.20
-18.96
-5.74
7.48
19.49
29.07
35.41
38.49
39.21
39.22
40.34
43.79
49.66
56.87
63.67
68.46
70.31
69.14
65.58
60.56
55.02
49.83
45.76
43.48
43.25
44.55
45.88
45.09
40.27
30.67
17.29
2.36
-11.78
-23.99
-34.82
-45.91
-58.67
-73.06
-87.40
-99.28
-106.94
-110.23
-110.40
-109.05
-106.99
-103.89
-98.75
-90.93
-80.91
-70.18
-60.60
-53.41
-48.78
-45.96
-43.84
-41.49
-38.59
-35.28
-32.00
-29.11
-26.70
-24.62
-22.52
-19.97
-16.67
-12.48
-7.48
-2.00
3.45
8.26
11.84
13.74
14.02
13.40
13.18
14.91
19.79
28.20
39.53
52.36
64.78
75.09
82.25
86.07
87.09
86.32
84.74
82.98
81.11
78.45
74.16
67.60
58.55
47.04
33.15
16.95
-1.40
-21.43
-42.80
-64.50
-85.04
-102.94
-117.35
-128.41
-137.03
-144.43
-151.62
-160.58
-172.31
-186.68
-202.49
-218.22
-232.66
-245.25
-255.82
-264.45
-273.44
-284.25
-297.04
-310.65
-323.41
-333.96
-341.37
-344.83
-343.56
-339.86
-335.42
-330.91
-325.72
-318.77
-309.41
-297.75
-284.49
-253.00
-196.95
-120.65
-37.69
37.09
94.82
133.82
156.82
167.94
170.93
165.18
151.95
133.63
113.85
96.35
83.56
76.23
73.91
75.89
79.73
83.08
85.68
89.11
95.46
105.95
120.55
138.28
157.91
177.04
194.38
210.09
225.58
242.83
263.43
288.07
316.13
345.56
372.35
392.23
402.04
400.65
389.30
370.87
348.71
325.48
302.54
279.74
256.47
232.52
208.36
184.91
162.89
142.45
123.17
104.43
85.96
68.08
51.63
37.59
26.67
18.98
14.09
11.20
9.45
7.99
6.12
3.26
-0.93
-6.51
-13.17
-20.29
-27.16
-33.19
-38.06
-41.78
-44.54
-46.67
-48.48
-50.23
-52.08
-54.05
-56.08
-58.00
-59.61
-60.75
-61.33
-61.38
-61.05
-60.56
-60.16
-59.93
-59.73
-59.18
-57.75
-55.05
-50.98
-45.81
-40.10
-34.51
-29.49
-25.30
-22.00
-19.54
-17.85
-16.87
-16.51
-16.60
-16.92
-17.25
-17.42
-17.36
-17.10
-16.74
-16.42
-16.23
-16.21
-16.24
-16.21
-15.96
-15.45
-14.76
-14.09
-13.72
-13.86
-14.57
-15.73
-17.13
-18.54
-19.85
-21.16
-22.65
-24.50
-26.79
-29.39
-32.09
-34.59
-36.62
-37.94
-38.32
-37.50
-35.28
-31.59
-26.58
-20.72
-14.64
-8.99
-4.22
-0.53
2.17
4.02
5.14
5.56
5.29
4.39
3.09
1.74
0.71
0.23
0.40
1.07
2.06
3.16
4.21
5.11
5.75
6.12
6.19
5.96
5.38
4.33
2.68
0.36
-2.54
-5.75
-8.90
-11.67
-13.89
-15.62
-17.12
-18.68
-20.58
-22.99
-25.95
-29.31
-32.77
-35.82
-37.86
-38.27
-36.66
-32.97
-27.54
-21.02
-14.17
-7.68
-1.96
2.80
6.62
9.62
11.89
13.52
14.55
15.05
15.12
14.90
14.56
14.27
14.20
14.40
14.87
15.48
16.05
16.39
16.42
16.11
15.52
14.76
13.88
12.94
11.87
10.64
9.16
7.41
5.40
3.17
0.78
-1.73
-4.28
-6.82
-9.29
-11.66
-13.97
-16.30
-18.76
-21.39
-24.10
-26.54
-28.18
-28.43
-26.88
-23.45
-18.46
-12.56
-6.47
-0.85
3.93
7.74
10.61
12.72
14.21
15.23
15.85
16.10
15.96
15.37
14.29
12.79
11.02
9.18
7.49
6.06
4.85
3.76
2.63
1.35
-0.15
-1.85
-3.71
-5.63
-7.47
-9.07
-10.32
-11.20
-11.84
-12.44
-13.27
-14.52
-16.18
-18.13
-20.16
-22.09
-23.86
-25.53
-27.23
-29.19
-31.55
-34.34
-37.33
-40.06
-41.89
-42.11
-40.25
-36.19
-30.28
-23.23
-15.92
-9.08
-3.19
1.65
5.55
8.70
11.18
12.99
14.06
14.39
14.09
13.40
12.59
11.87
11.32
10.89
10.47
9.91
9.15
8.16
6.96
5.61
4.14
2.56
0.87
-0.88
-2.67
-4.44
-6.18
-7.94
-9.76
-11.64
-13.40
-14.75
-15.33
-14.88
-13.42
-11.21
-8.73
-6.33
-4.14
-1.87
1.05
5.40
11.91
21.09
33.21
48.13
65.46
84.55
104.71
125.31
145.93
166.22
185.77
203.88
219.44
231.20
238.09
239.79
236.99
231.19
224.16
217.14
210.30
202.61
192.09
176.46
153.73
122.82
83.88
38.45
-10.66
-59.87
-105.50
-144.54
-175.16
-196.82
-209.90
-215.13
-213.26
-204.94
-190.88
-172.26
-150.72
-128.32
-107.17
-89.26
-76.23
-69.38
-69.68
-77.67
-93.33
-115.73
-142.98
-172.26
-200.19
-223.40
-239.21
-246.11
-244.01
-234.15
-218.56
-199.51
-178.82
-157.60
-136.28
-114.94
-93.75
-73.24
-54.38
-38.17
-25.42
-16.25
-10.14
-6.06
-2.88
0.25
3.74
7.46
10.98
13.78
15.46
15.89
15.24
13.85
12.12
10.31
8.47
6.46
4.05
1.09
-2.43
-6.35
-10.46
-14.62
-18.85
-23.30
-28.13
-33.42
-39.10
-45.14
-51.62
-58.71
-66.51
-74.69
-82.19
-87.34
-88.25
-83.52
-72.88
-57.35
-38.98
-20.08
-2.55
12.63
25.36
36.16
45.60
53.99
61.29
67.21
71.53
74.33
76.01
77.12
78.21
79.51
80.98
82.43
83.67
84.68
85.58
86.42
87.08
87.23
86.44
84.41
81.15
77.00
72.48
68.03
63.84
59.75
55.35
50.19
44.04
37.08
29.73
22.60
16.13
10.46
5.33
0.27
-5.32
-11.93
-19.86
-29.07
-39.06
-48.83
-56.88
-61.62
-61.76
-56.79
-47.19
-34.34
-19.99
-5.76
7.27
18.63
28.31
36.44
43.10
48.26
51.90
54.19
55.51
56.35
57.23
58.44
60.09
62.02
64.05
65.99
67.76
69.38
70.87
72.17
73.12
73.42
72.71
70.75
67.49
63.18
58.28
53.35
48.79
44.71
40.85
36.80
32.17
26.86
21.13
15.45
10.26
5.74
1.71
-2.28
-6.75
-12.00
-17.87
-23.67
-28.31
-30.56
-29.44
-24.49
-15.97
-4.81
7.57
19.60
29.90
37.48
41.85
42.98
41.18
37.03
31.16
24.24
16.85
9.46
2.51
-3.57
-8.36
-11.48
-12.77
-12.35
-10.67
-8.40
-6.32
-5.09
-5.14
-6.59
-9.29
-12.91
-16.98
-21.05
-24.78
-28.05
-30.97
-33.86
-37.09
-40.97
-45.51
-50.44
-55.31
-59.64
-63.16
-65.90
-68.22
-70.69
-73.92
-78.34
-83.98
-90.32
-96.23
-100.14
-100.42
-95.87
-86.16
-72.02
-55.02
-37.14
-20.12
-5.07
7.61
18.09
26.81
34.17
40.38
45.51
49.55
52.55
54.63
56.02
56.91
57.41
57.54
57.28
56.71
56.03
55.54
55.40
55.55
55.56
54.81
52.73
49.11
44.15
38.44
32.65
27.25
22.36
17.69
12.80
7.32
1.14
-5.52
-12.24
-18.57
-24.19
-29.11
-33.60
-38.23
-43.62
-50.27
-58.32
-67.31
-76.20
-83.46
-87.43
-86.78
-80.97
-70.42
-56.38
-40.54
-24.60
-9.77
3.28
14.44
23.83
31.65
38.02
43.00
46.63
49.02
50.40
51.05
51.25
51.23
51.11
50.90
50.57
50.10
49.57
49.11
48.83
48.70
48.44
47.62
45.79
42.65
38.28
33.13
27.84
23.01
18.96
15.57
12.39
8.79
4.32
-1.15
-7.38
-13.85
-20.06
-25.68
-30.70
-35.38
-40.17
-45.59
-51.98
-59.51
-67.88
-76.22
-83.20
-87.17
-86.70
-81.04
-70.43
-56.08
-39.78
-23.39
-8.32
4.62
15.22
23.61
30.03
34.73
37.95
39.94
41.01
41.49
41.72
41.95
42.34
42.91
43.60
44.27
44.76
45.02
45.03
44.86
44.58
44.13
43.36
41.97
39.66
36.29
31.99
27.15
22.30
17.83
13.88
10.22
6.35
1.79
-3.68
-9.89
-16.31
-22.30
-27.45
-31.71
-35.51
-39.48
-44.27
-50.25
-57.42
-65.27
-72.94
-79.24
-82.90
-82.80
-78.28
-69.34
-56.72
-41.79
-26.15
-11.29
1.73
12.38
20.57
26.49
30.43
32.75
33.78
33.89
33.45
32.83
32.31
32.07
32.16
32.57
33.26
34.18
35.27
36.39
37.32
37.79
37.49
36.22
33.92
30.68
26.75
22.44
18.00
13.57
9.09
4.40
-0.71
-6.37
-12.53
-18.97
-25.32
-31.25
-36.58
-41.39
-46.09
-51.31
-57.65
-65.36
-74.10
-82.71
-89.46
-92.44
-90.21
-82.35
-69.63
-53.74
-36.77
-20.53
-6.16
5.95
15.94
24.13
30.72
35.81
39.44
41.76
43.10
43.87
44.47
45.15
45.89
46.52
46.80
46.61
46.01
45.23
44.56
44.15
43.90
43.45
42.34
40.15
36.72
32.21
27.04
21.72
16.65
11.98
7.60
3.24
-1.42
-6.60
-12.29
-18.27
-24.21
-29.79
-34.78
-39.23
-43.43
-47.90
-53.24
-59.89
-67.91
-76.71
-85.00
-90.97
-92.78
-89.14
-79.78
-65.60
-48.43
-30.47
-13.59
1.00
12.96
22.50
30.11
36.15
40.78
44.02
45.92
46.72
46.89
46.95
47.30
48.06
49.04
49.90
50.35
50.36
50.12
49.92
49.95
50.09
49.91
48.86
46.45
42.57
37.49
31.83
26.24
21.21
16.84
12.82
8.66
3.86
-1.82
-8.26
-15.03
-21.54
-27.37
-32.36
-36.73
-40.99
-45.80
-51.73
-59.12
-67.88
-77.33
-86.26
-93.04
-96.00
-93.88
-86.23
-73.65
-57.60
-40.01
-22.74
-7.20
5.95
16.59
25.03
31.66
36.78
40.59
43.20
44.74
45.45
45.61
45.51
45.34
45.19
45.02
44.78
44.46
44.11
43.79
43.48
43.01
42.07
40.28
37.41
33.47
28.73
23.67
18.69
13.98
9.42
4.74
-0.36
-5.97
-11.89
-17.70
-23.00
-27.52
-31.34
-34.88
-38.77
-43.67
-50.00
-57.80
-66.52
-75.04
-81.90
-85.51
-84.64
-78.80
-68.32
-54.37
-38.61
-22.73
-8.17
4.14
13.77
20.62
24.84
26.77
26.86
25.67
23.88
22.09
20.71
19.89
19.56
19.49
19.42
19.11
18.44
17.35
15.84
14.01
12.01
9.99
8.08
6.29
4.53
2.62
0.41
-2.26
-5.50
-9.46
-14.32
-20.27
-27.41
-35.64
-44.71
-54.21
-63.85
-73.53
-83.48
-94.26
-106.53
-120.75
-136.90
-154.32
-171.62
-187.09
-199.19
-207.17
-211.34
-212.90
-213.29
-213.28
-212.56
-209.89
-203.85
-193.80
-180.37
-165.27
-150.59
-137.87
-127.61
-119.35
-112.11
-104.90
-97.01
-87.93
-77.21
-64.37
-48.95
-30.73
-9.72
13.85
39.77
68.01
98.99
133.57
172.87
217.53
266.76
317.69
365.44
404.30
429.55
439.11
434.19
418.62
397.10
373.48
349.74
326.15
302.13
277.23
251.56
225.60
199.80
174.27
148.84
123.47
98.49
74.72
53.33
35.46
21.91
12.90
7.99
6.27
6.59
7.86
9.24
10.25
10.71
10.57
9.79
8.26
5.84
2.44
-1.83
-6.69
-11.83
-17.02
-22.21
-27.41
-32.53
-37.26
-41.08
-43.51
-44.31
-43.68
-42.17
-40.45
-39.09
-38.34
-38.21
-38.57
-39.37
-40.60
-42.30
-44.38
-46.64
-48.79
-50.62
-52.12
-53.50
-55.08
-57.20
-59.97
-63.20
-66.39
-68.73
-69.38
-67.67
-63.36
-56.76
-48.62
-39.90
-31.41
-23.64
-16.65
-10.31
-4.50
0.70
5.07
8.44
10.77
12.29
13.33
14.24
15.17
16.13
17.01
17.71
18.18
18.45
18.56
18.49
18.20
17.55
16.45
14.83
12.73
10.27
7.64
5.00
2.41
-0.19
-2.94
-5.92
-9.11
-12.38
-15.55
-18.48
-21.17
-23.80
-26.66
-30.07
-34.22
-39.05
-44.12
-48.63
-51.64
-52.27
-50.10
-45.30
-38.68
-31.35
-24.41
-18.56
-14.00
-10.52
-7.77
-5.53
-3.84
-2.92
-3.03
-4.24
-6.33
-8.82
-11.16
-12.94
-14.04
-14.67
-15.20
-16.06
-17.61
-19.97
-22.89
-25.55
-26.44
-23.45
-14.36
2.44
27.23
58.63
93.82
129.21
161.42
187.87
207.15
218.85
223.27
221.17
213.57
201.68
186.62
169.25
149.86
128.20
103.58
75.24
42.74
6.41
-32.35
-71.05
-106.48
-135.30
-155.04
-164.75
-165.33
-159.10
-149.02
-137.67
-126.71
-116.75
-107.71
-99.27
-91.13
-83.06
-74.82
-66.08
-56.59
-46.27
-35.40
-24.58
-14.56
-6.04
0.60
5.32
8.42
10.28
11.08
10.56
7.92
2.09
-7.76
-21.69
-38.68
-56.82
-73.98
-88.55
-99.99
-108.98
-116.87
-125.15
-134.82
-146.16
-158.66
-171.10
-181.77
-188.66
-189.88
-184.15
-171.24
-152.10
-128.68
-103.29
-78.00
-54.23
-32.64
-13.36
3.70
18.65
31.57
42.57
51.82
59.55
65.99
71.35
75.77
79.40
82.38
84.86
86.99
88.84
90.46
91.80
92.72
92.97
92.26
90.33
87.05
82.58
77.25
71.55
65.83
60.19
54.42
48.13
41.02
33.07
24.63
16.26
8.45
1.44
-4.95
-11.21
-17.99
-25.85
-35.08
-45.48
-56.32
-66.29
-73.71
-76.94
-74.81
-67.08
-54.53
-38.80
-21.85
-5.36
9.66
22.96
34.80
45.54
55.31
63.91
70.96
76.13
79.39
81.02
81.53
81.42
81.01
80.44
79.70
78.77
77.69
76.57
75.52
74.54
73.48
72.04
69.90
66.80
62.62
57.48
51.62
45.43
39.22
33.25
27.53
21.94
16.21
10.07
3.42
-3.65
-10.77
-17.48
-23.41
-28.44
-32.82
-37.09
-41.95
-47.99
-55.53
-64.42
-73.88
-82.62
-88.97
-91.33
-88.61
-80.56
-67.92
-52.20
-35.24
-18.71
-3.77
9.04
19.68
28.30
35.08
40.13
43.55
45.55
46.53
47.02
47.52
48.31
49.40
50.56
51.48
51.99
52.12
52.04
51.89
51.62
50.96
49.49
46.85
42.91
37.87
32.22
26.51
21.23
16.52
12.14
7.62
2.39
-3.78
-10.79
-18.13
-25.15
-31.35
-36.60
-41.21
-45.79
-51.07
-57.59
-65.50
-74.33
-82.92
-89.53
-92.14
-89.02
-79.28
-63.24
-42.43
-19.12
4.25
25.75
44.20
59.19
70.73
79.04
84.30
86.71
86.59
84.49
81.12
77.21
73.32
69.75
66.52
63.55
60.81
58.35
56.31
54.83
53.90
53.39
53.06
52.63
51.84
50.49
48.45
45.74
42.46
38.80
34.94
30.96
26.78
22.26
17.23
11.65
5.56
-0.86
-7.48
-14.21
-21.08
-28.18
-35.70
-43.79
-52.55
-61.84
-71.23
-80.02
-87.36
-92.52
-95.04
-94.84
-92.03
-86.83
-79.45
-70.19
-59.47
-47.98
-36.58
-26.15
-17.37
-10.63
-6.03
-3.42
-2.48
-2.74
-3.56
-4.17
-3.91
-2.36
0.44
4.10
8.07
11.86
15.21
18.07
20.51
22.53
24.01
24.72
24.49
23.23
21.02
18.03
14.47
10.54
6.36
2.05
-2.38
-6.94
-11.67
-16.53
-21.40
-26.04
-30.25
-33.99
-37.42
-41.00
-45.26
-50.63
-57.19
-64.56
-71.85
-77.83
-81.14
-80.67
-75.81
-66.65
-54.05
-39.42
-24.38
-10.38
1.59
11.18
18.51
24.03
28.24
31.55
34.17
36.21
37.69
38.64
39.14
39.33
39.31
39.18
38.98
38.75
38.55
38.46
38.54
38.80
39.10
39.18
38.74
37.53
35.39
32.40
28.72
24.64
20.40
16.22
12.17
8.22
4.25
0.08
-4.38
-9.14
-14.03
-18.78
-23.18
-27.13
-30.73
-34.28
-38.14
-42.66
-48.00
-54.11
-60.57
-66.58
-70.97
-72.50
-70.13
-63.44
-52.82
-39.37
-24.66
-10.21
2.84
13.94
22.99
30.13
35.52
39.23
41.35
42.08
41.82
41.09
40.36
39.85
39.47
38.95
38.19
37.52
37.77
40.00
45.00
52.77
62.38
72.17
80.36
85.67
87.70
86.83
83.88
79.58
74.29
68.03
60.62
52.01
42.41
32.23
21.94
11.86
1.96
-8.09
-18.92
-31.32
-46.19
-64.24
-85.81
-110.43
-136.50
-161.23
-180.80
-191.12
-188.89
-172.53
-142.80
-102.61
-56.30
-8.55
36.59
76.31
109.02
134.25
152.35
164.35
171.75
176.38
179.93
183.47
187.12
189.95
190.23
186.07
175.94
159.38
137.33
112.07
86.60
63.70
44.85
29.65
16.16
1.93
-14.57
-33.10
-51.69
-67.62
-78.53
-83.09
-81.04
-72.88
-59.72
-43.51
-27.27
-15.00
-10.63
-16.84
-34.00
-60.24
-92.71
-129.20
-169.14
-212.88
-259.72
-306.03
-345.01
-368.56
-370.67
-350.09
-310.80
-260.01
-204.80
-149.54
-95.54
-42.76
7.80
52.88
87.74
108.46
114.15
107.76
94.81
81.03
70.21
63.34
58.99
54.82
49.02
41.16
32.09
23.21
15.47
8.77
2.06
-6.01
-16.18
-28.05
-40.29
-51.23
-59.77
-65.77
-69.94
-73.30
-76.51
-79.57
-81.91
-82.93
-82.44
-80.93
-79.39
-78.86
-79.99
-82.71
-86.20
-89.09
-89.89
-87.36
-80.89
-70.61
-57.33
-42.23
-26.57
-11.42
2.43
14.49
24.50
32.39
38.32
42.59
45.61
47.79
49.43
50.69
51.60
52.08
52.12
51.73
51.05
50.31
49.79
49.66
49.89
50.21
50.14
49.25
47.27
44.28
40.58
36.52
32.31
27.88
23.02
17.52
11.39
4.92
-1.45
-7.38
-12.77
-17.84
-22.99
-28.58
-34.84
-41.75
-49.13
-56.65
-63.74
-69.63
-73.34
-73.91
-70.64
-63.46
-52.93
-40.12
-26.31
-12.69
-0.09
10.95
20.11
27.18
32.06
34.86
36.03
36.37
36.94
38.77
42.61
48.61
56.27
64.43
71.82
77.36
80.68
82.15
82.59
82.87
83.35
83.78
83.38
81.24
76.74
69.78
60.74
50.27
38.99
27.34
15.57
3.84
-7.64
-18.65
-28.97
-38.51
-47.34
-55.56
-63.18
-69.80
-74.64
-76.68
-75.05
-69.45
-60.28
-48.63
-35.84
-23.08
-11.07
-0.06
9.90
18.76
26.32
32.29
36.50
39.01
40.21
40.65
40.91
41.30
41.94
42.69
43.37
43.79
43.91
43.72
43.24
42.44
41.21
39.42
36.94
33.72
29.82
25.35
20.45
15.21
9.70
3.93
-2.09
-8.35
-14.80
-21.43
-28.29
-35.48
-43.12
-51.07
-58.85
-65.56
-69.97
-70.97
-67.84
-60.58
-49.97
-37.23
-23.73
-10.61
1.42
11.99
20.94
28.14
33.43
36.71
38.05
37.77
36.43
34.71
33.24
32.40
32.27
32.63
33.09
33.22
32.78
31.74
30.26
28.63
27.02
25.45
23.73
21.57
18.70
15.00
10.54
5.51
0.12
-5.43
-10.98
-16.45
-21.78
-27.01
-32.34
-38.06
-44.43
-51.47
-58.77
-65.41
-70.20
-71.96
-69.91
-63.89
-54.41
-42.45
-29.27
-16.02
-3.64
7.28
16.45
23.88
29.70
34.10
37.24
39.24
40.20
40.28
39.71
38.76
37.73
36.82
36.17
35.83
35.78
35.99
36.31
36.56
36.50
35.87
34.49
32.26
29.23
25.52
21.30
16.71
11.85
6.77
1.55
-3.72
-8.91
-13.84
-18.50
-22.99
-27.59
-32.70
-38.63
-45.43
-52.70
-59.56
-64.84
-67.35
-66.25
-61.28
-52.88
-42.05
-29.96
-17.75
-6.22
4.19
13.31
21.16
27.73
33.03
37.05
39.85
41.58
42.46
42.75
42.69
42.48
42.26
42.11
42.07
42.18
42.44
42.77
43.03
42.98
42.38
41.05
38.93
36.12
32.77
29.01
24.95
20.63
16.06
11.28
6.35
1.33
-3.73
-8.80
-13.89
-18.94
-23.92
-28.81
-33.68
-38.78
-44.41
-50.78
-57.77
-64.82
-70.89
-74.73
-75.26
-71.90
-64.77
-54.65
-42.67
-29.99
-17.57
-6.02
4.29
13.16
20.49
26.24
30.52
33.51
35.54
36.93
37.96
38.76
39.36
39.67
39.55
39.04
38.23
37.38
36.74
36.43
36.36
36.20
35.60
34.22
31.98
29.00
25.56
21.95
18.40
14.99
11.71
8.48
5.22
1.86
-1.61
-5.19
-8.83
-12.48
-16.08
-19.63
-23.16
-26.79
-30.70
-35.16
-40.42
-46.58
-53.45
-60.35
-66.26
-69.93
-70.32
-66.86
-59.69
-49.60
-37.72
-25.21
-13.00
-1.70
8.37
17.02
24.14
29.69
33.68
36.29
37.83
38.62
39.01
39.20
39.30
39.29
39.17
38.94
38.68
38.51
38.56
38.86
39.34
39.72
39.68
38.90
37.23
34.73
31.67
28.38
25.12
22.00
18.94
15.84
12.61
9.22
5.64
1.84
-2.28
-6.74
-11.45
-16.21
-20.79
-25.06
-29.11
-33.22
-37.75
-42.97
-48.81
-54.84
-60.22
-63.89
-64.82
-62.34
-56.36
-47.41
-36.52
-24.91
-13.63
-3.38
5.56
13.17
19.48
24.52
28.22
30.58
31.75
32.05
31.89
31.60
31.32
31.03
30.64
30.16
29.74
29.62
30.00
30.86
31.92
32.78
33.07
32.57
31.28
29.28
26.69
23.58
20.07
16.25
12.31
8.41
4.65
1.06
-2.40
-5.79
-9.09
-12.24
-15.19
-17.92
-20.57
-23.32
-26.41
-30.06
-34.42
-39.46
-44.89
-50.12
-54.29
-56.41
-55.68
-51.69
-44.61
-35.14
-24.33
-13.27
-2.83
6.45
14.29
20.57
25.24
28.27
29.73
29.85
29.00
27.60
26.03
24.52
23.20
22.09
21.24
20.69
20.48
20.56
20.75
20.84
20.64
20.01
18.92
17.34
15.25
12.64
9.57
6.16
2.57
-1.02
-4.58
-8.15
-11.81
-15.63
-19.57
-23.56
-27.56
-31.65
-36.07
-41.07
-46.68
-52.58
-57.92
-61.63
-62.62
-60.22
-54.38
-45.68
-35.14
-23.89
-12.90
-2.84
5.94
13.28
19.10
23.39
26.16
27.53
27.74
27.14
26.12
25.05
24.20
23.66
23.41
23.31
23.19
22.95
22.49
21.84
21.03
20.08
19.03
17.83
16.36
14.47
12.01
8.84
4.93
0.35
-4.73
-10.07
-15.40
-20.51
-25.31
-29.85
-34.37
-39.14
-44.39
-50.07
-55.81
-60.90
-64.44
-65.54
-63.59
-58.46
-50.45
-40.31
-29.00
-17.53
-6.71
2.90
10.98
17.45
22.27
25.54
27.35
27.93
27.62
26.85
25.99
25.30
24.79
24.38
23.98
23.56
23.19
22.95
22.78
22.52
21.89
20.68
18.77
16.28
13.37
10.23
6.94
3.48
-0.26
-4.35
-8.76
-13.40
-18.09
-22.72
-27.29
-31.91
-36.79
-42.05
-47.66
-53.35
-58.57
-62.62
-64.71
-64.15
-60.53
-53.76
-44.24
-32.80
-20.53
-8.54
2.33
11.62
19.26
25.39
30.21
33.82
36.25
37.54
37.84
37.45
36.73
36.03
35.55
35.36
35.44
35.70
35.99
36.18
36.07
35.48
34.30
32.57
30.42
28.00
25.36
22.37
18.81
14.45
9.23
3.35
-2.77
-8.66
-14.01
-18.77
-23.13
-27.47
-32.18
-37.60
-43.85
-50.81
-57.98
-64.50
-69.25
-71.11
-69.26
-63.52
-54.36
-42.75
-29.94
-17.09
-5.04
5.70
14.95
22.70
29.03
34.02
37.74
40.28
41.77
42.44
42.60
42.51
42.39
42.35
42.39
42.46
42.56
42.69
42.78
42.70
42.15
40.81
38.45
35.06
30.91
26.45
22.09
18.12
14.53
11.08
7.44
3.36
-1.27
-6.33
-11.56
-16.65
-21.36
-25.63
-29.58
-33.53
-37.91
-43.08
-49.18
-55.91
-62.50
-67.78
-70.49
-69.61
-64.72
-56.10
-44.72
-31.88
-18.89
-6.81
3.76
12.58
19.69
25.23
29.34
32.19
33.95
34.87
35.23
35.32
35.42
35.69
36.23
36.98
37.82
38.60
39.19
39.53
39.62
39.44
38.96
38.04
36.50
34.22
31.20
27.60
23.72
19.84
16.17
12.70
9.30
5.74
1.87
-2.34
-6.79
-11.28
-15.63
-19.73
-23.59
-27.31
-31.10
-35.21
-39.88
-45.30
-51.43
-57.97
-64.22
-69.13
-71.58
-70.66
-65.96
-57.72
-46.82
-34.45
-21.84
-9.97
0.64
9.82
17.63
24.15
29.36
33.17
35.51
36.46
36.29
35.46
34.43
33.55
32.98
32.74
32.74
32.93
33.26
33.67
34.09
34.38
34.34
33.80
32.61
30.68
28.06
24.90
21.44
17.96
14.62
11.41
8.17
4.69
0.84
-3.31
-7.52
-11.49
-15.09
-18.36
-21.59
-25.14
-29.31
-34.29
-39.98
-46.09
-52.08
-57.23
-60.65
-61.57
-59.45
-54.17
-46.09
-35.91
-24.50
-12.72
-1.30
9.16
18.19
25.43
30.73
34.10
35.83
36.34
36.09
35.50
34.83
34.28
33.91
33.78
33.90
34.22
34.63
34.99
35.16
35.01
34.46
33.46
31.99
30.01
27.55
24.64
21.36
17.89
14.38
10.96
7.63
4.28
0.73
-3.19
-7.54
-12.20
-16.91
-21.39
-25.43
-29.02
-32.33
-35.62
-39.21
-43.35
-48.18
-53.60
-59.24
-64.35
-67.98
-69.08
-66.90
-61.17
-52.27
-41.05
-28.68
-16.29
-4.74
5.44
14.05
21.16
26.90
31.45
34.91
37.33
38.71
39.15
38.84
38.10
37.34
36.87
36.84
37.19
37.69
38.07
38.15
37.86
37.19
36.20
34.85
33.08
30.77
27.91
24.58
21.04
17.56
14.32
11.40
8.68
5.97
3.07
-0.15
-3.72
-7.59
-11.66
-15.81
-19.95
-24.02
-28.00
-31.95
-36.03
-40.46
-45.43
-50.98
-56.89
-62.63
-67.35
-70.12
-70.06
-66.66
-59.93
-50.43
-39.07
-26.95
-15.03
-3.98
5.87
14.39
21.56
27.31
31.61
34.43
35.89
36.29
36.00
35.43
34.90
34.59
34.56
34.75
35.08
35.45
35.83
36.22
36.63
37.03
37.30
37.20
36.44
34.79
32.20
28.83
24.97
20.99
17.14
13.58
10.30
7.17
4.01
0.64
-3.04
-7.06
-11.25
-15.37
-19.14
-22.40
-25.17
-27.69
-30.33
-33.50
-37.49
-42.38
-47.99
-53.81
-59.05
-62.73
-63.91
-61.94
-56.69
-48.61
-38.63
-27.80
-17.07
-7.08
1.87
9.66
16.22
21.47
25.32
27.77
28.99
29.27
29.00
28.50
28.01
27.66
27.51
27.59
27.93
28.52
29.33
30.24
31.07
31.59
31.62
31.01
29.69
27.73
25.25
22.42
19.47
16.53
13.71
11.02
8.38
5.68
2.80
-0.36
-3.84
-7.63
-11.62
-15.66
-19.59
-23.23
-26.55
-29.61
-32.65
-35.99
-39.98
-44.73
-50.04
-55.25
-59.35
-61.24
-60.03
-55.42
-47.74
-37.90
-27.01
-16.07
-5.79
3.46
11.46
18.05
23.03
26.28
27.85
28.01
27.23
26.05
24.92
24.08
23.58
23.31
23.17
23.14
23.25
23.60
24.22
24.99
25.65
25.90
25.46
24.22
22.26
19.77
17.00
14.12
11.19
8.17
4.95
1.48
-2.25
-6.14
-10.06
-13.81
-17.27
-20.39
-23.23
-25.95
-28.82
-32.13
-36.10
-40.72
-45.66
-50.24
-53.58
-54.79
-53.21
-48.65
-41.37
-31.98
-21.30
-10.13
0.86
11.14
20.38
28.37
35.02
40.39
44.57
47.70
49.90
51.27
51.92
51.93
51.39
50.33
48.73
46.61
44.02
41.12
38.15
35.36
32.91
30.78
28.77
26.55
23.79
20.29
16.06
11.33
6.39
1.55
-3.07
-7.49
-11.90
-16.50
-21.42
-26.64
-32.00
-37.26
-42.21
-46.71
-50.79
-54.66
-58.63
-63.00
-67.93
-73.23
-78.28
-82.15
-83.79
-82.39
-77.65
-69.84
-59.72
-48.25
-36.37
-24.83
-14.10
-4.54
3.62
10.19
15.15
18.70
21.18
23.05
24.65
26.15
27.49
28.56
29.26
29.58
29.70
29.79
30.02
30.45
31.01
31.52
31.78
31.51
30.50
28.63
25.91
22.54
18.81
15.03
11.36
7.83
4.27
0.50
-3.60
-7.99
-12.51
-16.89
-20.91
-24.51
-27.76
-30.85
-34.10
-37.81
-42.23
-47.46
-53.30
-59.24
-64.43
-67.86
-68.65
-66.21
-60.50
-51.94
-41.34
-29.66
-17.84
-6.68
3.24
11.52
18.02
22.79
26.07
28.25
29.72
30.87
31.91
32.94
33.90
34.63
35.00
35.00
34.74
34.45
34.37
34.65
35.28
36.05
36.65
36.73
35.97
34.15
31.21
27.29
22.70
17.89
13.27
9.11
5.43
2.05
-1.29
-4.77
-8.42
-12.15
-15.80
-19.29
-22.69
-26.16
-29.95
-34.31
-39.44
-45.36
-51.82
-58.19
-63.50
-66.60
-66.47
-62.60
-55.15
-44.91
-33.07
-20.87
-9.25
1.20
10.24
17.74
23.62
27.82
30.41
31.69
32.10
32.18
32.33
32.72
33.31
33.98
34.64
35.29
36.03
36.88
37.72
38.28
38.22
37.33
35.54
33.02
30.02
26.83
23.63
20.45
17.21
13.78
10.05
6.00
1.71
-2.69
-7.04
-11.20
-15.07
-18.61
-21.85
-24.95
-28.19
-31.92
-36.41
-41.70
-47.37
-52.61
-56.33
-57.48
-55.38
-49.91
-41.53
-31.12
-19.67
-8.12
2.74
12.32
20.20
26.16
30.14
32.33
33.07
32.77
31.80
30.49
29.06
27.71
26.66
26.10
26.12
26.70
27.71
28.88
29.90
30.51
30.48
29.67
28.08
25.77
22.91
19.67
16.18
12.52
8.68
4.60
0.25
-4.34
-9.02
-13.60
-17.85
-21.69
-25.18
-28.58
-32.30
-36.72
-42.10
-48.39
-55.19
-61.76
-67.14
-70.34
-70.50
-67.16
-60.31
-50.43
-38.48
-25.59
-12.92
-1.31
8.75
17.16
24.05
29.60
33.94
37.08
39.04
39.93
39.99
39.53
38.87
38.18
37.51
36.86
36.25
35.77
35.51
35.52
35.64
35.59
35.03
33.67
31.46
28.58
25.31
21.97
18.70
15.50
12.23
8.73
4.91
0.74
-3.70
-8.33
-13.06
-17.77
-22.39
-26.88
-31.30
-35.87
-40.92
-46.76
-53.44
-60.55
-67.17
-72.06
-73.98
-72.16
-66.43
-57.28
-45.69
-32.79
-19.68
-7.20
4.03
13.62
21.41
27.43
31.95
35.31
37.85
39.83
41.40
42.58
43.39
43.87
44.07
44.10
44.07
44.06
44.16
44.40
44.81
45.29
45.67
45.67
44.97
43.30
40.54
36.81
32.45
27.87
23.47
19.43
15.69
12.05
8.22
4.01
-0.63
-5.56
-10.56
-15.40
-19.91
-24.10
-28.04
-31.99
-36.23
-41.02
-46.53
-52.76
-59.45
-65.97
-71.44
-74.74
-74.88
-71.23
-63.79
-53.22
-40.66
-27.40
-14.54
-2.82
7.44
16.15
23.37
29.17
33.61
36.82
38.92
40.12
40.65
40.82
40.90
41.12
41.58
42.22
42.91
43.47
43.85
44.10
44.30
44.50
44.61
44.40
43.57
41.95
39.55
36.60
33.45
30.47
27.94
25.92
24.29
22.72
20.87
18.41
15.17
11.21
6.84
2.44
-1.57
-4.96
-7.74
-10.25
-13.10
-16.98
-22.50
-29.96
-39.13
-49.26
-59.18
-67.53
-73.09
-74.98
-72.83
-66.86
-57.71
-46.40
-34.05
-21.74
-10.36
-0.53
7.43
13.40
17.48
19.90
21.02
21.31
21.25
21.26
21.59
22.22
22.98
23.68
24.22
24.69
25.27
26.10
27.20
28.39
29.36
29.81
29.56
28.55
26.88
24.73
22.32
19.81
17.34
14.90
12.40
9.62
6.28
2.14
-2.89
-8.73
-15.06
-21.44
-27.45
-32.80
-37.45
-41.66
-45.88
-50.56
-55.84
-61.37
-66.30
-69.44
-69.67
-66.36
-59.54
-49.97
-38.81
-27.30
-16.43
-6.80
1.29
7.79
12.72
16.13
18.11
18.95
19.05
18.93
19.08
19.77
20.97
22.35
23.52
24.20
24.38
24.33
24.39
24.86
25.68
26.54
26.96
26.50
24.96
22.43
19.21
15.68
12.14
8.72
5.35
1.87
-1.87
-5.91
-10.20
-14.56
-18.80
-22.79
-26.48
-29.94
-33.33
-36.92
-40.97
-45.69
-51.06
-56.77
-62.12
-66.13
-67.78
-66.27
-61.33
-53.25
-42.86
-31.27
-19.55
-8.57
1.15
9.39
16.14
21.51
25.64
28.73
30.92
32.38
33.24
33.63
33.66
33.47
33.17
32.92
32.83
32.98
33.40
34.07
34.90
35.71
36.26
36.29
35.54
33.85
31.28
28.03
24.41
20.75
17.24
13.90
10.53
6.86
2.71
-1.99
-7.03
-12.13
-16.99
-21.49
-25.72
-29.93
-34.47
-39.61
-45.47
-51.91
-58.53
-64.64
-69.36
-71.71
-70.89
-66.55
-58.91
-48.77
-37.26
-25.55
-14.54
-4.76
3.57
10.45
15.96
20.23
23.42
25.75
27.45
28.72
29.73
30.53
31.16
31.64
32.04
32.43
32.86
33.36
33.88
34.35
34.64
34.55
33.90
32.52
30.32
27.35
23.79
19.90
15.98
12.28
8.86
5.65
2.42
-1.12
-5.14
-9.65
-14.40
-19.00
-23.12
-26.65
-29.83
-33.11
-37.02
-41.95
-47.95
-54.70
-61.46
-67.23
-70.84
-71.31
-68.06
-61.16
-51.35
-39.81
-27.87
-16.64
-6.76
1.57
8.48
14.22
19.10
23.39
27.31
31.06
34.70
38.11
41.04
43.15
44.20
44.19
43.35
42.13
40.98
40.16
39.68
39.28
38.55
37.14
34.86
31.77
28.09
24.13
20.19
16.45
12.96
9.64
6.34
2.91
-0.77
-4.71
-8.84
-12.98
-16.94
-20.58
-23.88
-26.92
-29.96
-33.34
-37.38
-42.25
-47.73
-53.18
-57.56
-59.72
-58.76
-54.32
-46.76
-36.99
-26.13
-15.22
-4.93
4.42
12.66
19.68
25.25
29.14
31.24
31.68
30.85
29.32
27.64
26.25
25.34
24.93
24.92
25.22
25.74
26.41
27.14
27.76
28.03
27.69
26.56
24.56
21.79
18.47
14.89
11.30
7.83
4.46
1.04
-2.67
-6.81
-11.35
-16.10
-20.72
-24.93
-28.66
-32.13
-35.83
-40.31
-45.96
-52.70
-60.00
-66.80
-71.85
-73.99
-72.43
-66.94
-57.94
-46.34
-33.31
-20.04
-7.51
3.65
13.14
20.96
27.28
32.35
36.38
39.53
41.90
43.56
44.58
45.08
45.26
45.35
45.55
45.94
46.47
47.00
47.35
47.41
47.10
46.33
45.06
43.18
40.65
37.50
33.87
30.01
26.14
22.36
18.59
14.62
10.21
5.24
-0.19
-5.78
-11.17
-16.10
-20.58
-24.85
-29.32
-34.37
-40.23
-46.92
-54.22
-61.67
-68.54
-73.89
-76.71
-76.12
-71.70
-63.63
-52.71
-40.11
-27.06
-14.52
-3.08
7.00
15.66
22.90
28.70
33.07
36.08
37.91
38.83
39.12
39.05
38.84
38.58
38.36
38.26
38.34
38.62
39.05
39.49
39.77
39.71
39.21
38.23
36.80
34.88
32.43
29.41
25.81
21.79
17.53
13.29
9.23
5.41
1.71
-2.00
-5.86
-9.91
-14.05
-18.11
-21.91
-25.40
-28.71
-32.16
-36.14
-41.01
-46.86
-53.38
-59.86
-65.24
-68.38
-68.39
-64.84
-57.88
-48.16
-36.64
-24.34
-12.19
-0.94
8.93
17.11
23.52
28.20
31.34
33.15
33.92
33.92
33.47
32.90
32.47
32.34
32.49
32.79
33.10
33.33
33.48
33.58
33.62
33.44
32.86
31.69
29.82
27.33
24.45
21.43
18.47
15.61
12.74
9.66
6.20
2.30
-1.91
-6.14
-10.12
-13.67
-16.78
-19.69
-22.69
-26.13
-30.25
-35.16
-40.73
-46.60
-52.15
-56.57
-59.02
-58.76
-55.42
-49.04
-40.12
-29.48
-18.05
-6.71
3.84
13.07
20.60
26.18
29.71
31.29
31.24
30.12
28.49
26.89
25.61
24.76
24.30
24.14
24.24
24.54
25.00
25.51
25.95
26.12
25.85
25.00
23.48
21.29
18.54
15.38
12.00
8.52
4.93
1.18
-2.82
-7.10
-11.58
-16.12
-20.57
-24.91
-29.22
-33.69
-38.56
-43.99
-49.96
-56.19
-62.09
-66.82
-69.42
-69.05
-65.22
-57.94
-47.76
-35.67
-22.86
-10.46
0.67
10.00
17.34
22.77
26.50
28.79
29.91
30.17
29.83
29.14
28.33
27.58
27.05
26.88
27.14
27.82
28.78
29.77
30.51
30.73
30.29
29.11
27.25
24.78
21.87
18.63
15.19
11.63
7.96
4.10
-0.07
-4.67
-9.66
-14.89
-20.05
-24.81
-29.02
-32.75
-36.39
-40.43
-45.31
-51.13
-57.49
-63.52
-68.06
-69.99
-68.51
-63.42
-55.08
-44.34
-32.28
-20.00
-8.39
1.98
10.81
18.04
23.72
27.99
31.02
33.04
34.31
35.08
35.59
35.94
36.21
36.39
36.50
36.57
36.66
36.82
37.04
37.21
37.09
36.43
35.03
32.80
29.82
26.30
22.54
18.80
15.24
11.83
8.37
4.63
0.41
-4.30
-9.33
-14.40
-19.22
-23.63
-27.70
-31.70
-35.99
-40.91
-46.61
-52.95
-59.41
-65.19
-69.27
-70.69
-68.73
-63.17
-54.35
-43.12
-30.60
-17.99
-6.27
4.00
12.61
19.70
25.47
30.09
33.59
35.95
37.26
37.72
37.73
37.67
37.82
38.22
38.74
39.15
39.30
39.21
38.95
38.66
38.38
38.01
37.33
36.12
34.20
31.52
28.17
24.35
20.36
16.39
12.57
8.84
5.02
0.96
-3.41
-8.03
-12.70
-17.16
-21.27
-24.99
-28.48
-32.00
-35.89
-40.45
-45.90
-52.24
-59.08
-65.59
-70.57
-72.71
-71.03
-65.22
-55.77
-43.82
-30.82
-18.02
-6.26
4.16
13.21
20.98
27.43
32.41
35.79
37.55
37.93
37.36
36.34
35.28
34.38
33.66
33.06
32.55
32.19
32.10
32.34
32.79
33.16
33.03
32.10
30.24
27.60
24.46
21.12
17.77
14.39
10.84
7.01
2.84
-1.61
-6.20
-10.76
-15.16
-19.29
-23.13
-26.73
-30.27
-34.00
-38.26
-43.32
-49.18
-55.48
-61.42
-65.93
-67.93
-66.65
-61.85
-53.89
-43.69
-32.34
-20.90
-10.24
-0.93
6.68
12.42
16.20
18.10
18.30
17.15
15.13
12.75
10.48
8.73
7.78
7.77
8.68
10.29
12.39
14.78
17.21
19.40
21.01
21.76
21.49
20.20
18.05
15.65
13.61
12.39
12.04
12.18
12.33
12.16
11.64
11.01
11.17
12.96
16.74
21.94
27.17
30.82
31.79
30.02
26.65
24.55
27.04
36.76
54.64
79.49
108.45
137.96
164.49
180.83
181.32
163.85
132.06
93.94
57.96
29.77
11.26
1.26
-2.96
-3.62
-2.50
-0.54
1.60
3.21
3.33
1.25
-3.34
-10.40
-19.24
-29.66
-41.58
-55.06
-69.85
-84.89
-98.32
-108.31
-114.16
-113.30
-106.42
-95.96
-85.09
-76.35
-70.78
-67.81
-65.92
-63.66
-60.04
-55.43
-50.67
-46.72
-44.29
-43.49
-43.78
-44.03
-43.01
-39.56
-33.45
-24.92
-14.75
-3.95
6.48
15.78
23.49
29.53
34.02
37.08
38.99
40.11
40.75
41.13
41.31
41.23
40.82
40.02
38.74
36.98
34.83
32.45
29.98
27.61
25.39
23.28
21.11
18.66
15.80
12.58
9.17
5.75
2.41
-0.93
-4.39
-8.07
-11.89
-15.64
-19.11
-22.15
-24.84
-27.37
-30.10
-33.36
-37.40
-42.26
-47.62
-52.76
-56.70
-58.37
-56.98
-52.26
-44.61
-34.91
-24.30
-13.80
-4.18
4.12
10.94
16.21
19.94
22.20
23.16
23.08
22.32
21.22
20.10
19.15
18.49
18.20
18.27
18.67
19.30
19.94
20.39
20.43
19.99
19.07
17.75
16.12
14.17
11.87
9.18
6.19
3.05
-0.01
-2.86
-5.50
-8.08
-10.87
-14.12
-17.98
-22.44
-27.40
-32.57
-37.57
-41.80
-44.57
-45.10
-42.84
-37.60
-29.76
-20.22
-10.14
-0.65
7.44
13.85
18.68
22.23
24.81
26.51
27.27
27.04
25.82
23.90
21.71
19.75
18.41
17.79
17.76
17.96
18.01
17.67
16.91
15.92
14.97
14.18
13.47
12.56
11.09
8.85
5.88
2.56
-0.57
-2.97
-4.27
-4.33
-3.27
-1.46
0.58
2.22
2.80
1.76
-1.19
-5.97
-12.01
-18.34
-23.69
-26.96
-27.37
-24.81
-19.87
-13.54
-6.94
-0.90
4.21
8.50
12.27
15.75
18.97
21.73
23.77
24.87
24.98
24.22
22.75
20.80
18.58
16.33
14.32
12.76
11.73
11.13
10.69
10.05
8.92
7.20
4.99
2.51
0.00
-2.40
-4.70
-7.00
-9.48
-12.29
-15.50
-19.06
-22.85
-26.65
-30.30
-33.71
-36.98
-40.37
-44.23
-48.94
-54.71
-61.39
-68.46
-74.93
-79.59
-81.31
-79.41
-73.87
-65.36
-54.92
-43.72
-32.70
-22.48
-13.34
-5.37
1.42
7.05
11.63
15.33
18.41
21.08
23.52
25.77
27.82
29.64
31.21
32.53
33.67
34.64
35.48
36.20
36.75
37.10
37.12
36.65
35.47
33.42
30.48
26.85
22.90
19.02
15.49
12.34
9.33
6.13
2.43
-1.87
-6.62
-11.53
-16.28
-20.69
-24.70
-28.42
-32.01
-35.66
-39.62
-44.15
-49.47
-55.64
-62.33
-68.74
-73.65
-75.76
-74.13
-68.49
-59.38
-47.99
-35.70
-23.74
-12.87
-3.36
4.85
11.94
18.04
23.21
27.41
30.68
33.12
34.90
36.25
37.38
38.36
39.20
39.88
40.38
40.76
41.14
41.58
42.02
42.30
42.19
41.52
40.18
38.17
35.57
32.48
29.01
25.30
21.49
17.65
13.78
9.77
5.44
0.71
-4.34
-9.44
-14.23
-18.43
-22.00
-25.11
-28.11
-31.43
-35.43
-40.32
-46.05
-52.20
-57.94
-62.13
-63.61
-61.53
-55.62
-46.33
-34.69
-22.01
-9.54
1.83
11.60
19.62
25.92
30.59
33.73
35.46
36.03
35.75
35.07
34.40
34.03
34.05
34.41
34.94
35.54
36.14
36.74
37.35
37.92
38.31
38.36
37.85
36.62
34.63
31.92
28.67
25.09
21.38
17.62
13.74
9.57
4.96
-0.15
-5.64
-11.32
-16.89
-22.13
-26.89
-31.20
-35.28
-39.46
-44.18
-49.80
-56.44
-63.80
-71.09
-77.07
-80.32
-79.61
-74.34
-64.79
-52.09
-37.86
-23.77
-11.04
-0.27
8.58
15.83
21.85
26.91
31.06
34.30
36.64
38.20
39.14
39.73
40.16
40.56
40.98
41.37
41.72
42.02
42.31
42.65
42.99
43.11
42.67
41.27
38.67
34.91
30.29
25.32
20.49
16.16
12.39
9.02
5.74
2.20
-1.80
-6.32
-11.21
-16.18
-20.96
-25.35
-29.38
-33.22
-37.18
-41.63
-46.92
-53.31
-60.92
-69.47
-78.24
-85.97
-91.11
-92.21
-88.45
-79.97
-67.83
-53.64
-38.98
-24.98
-12.13
-0.45
10.20
19.88
28.54
36.03
42.26
47.31
51.35
54.56
57.09
58.99
60.32
61.14
61.58
61.89
62.33
63.12
64.28
65.68
66.97
67.76
67.71
66.64
64.56
61.68
58.35
54.83
51.33
47.81
44.09
39.92
35.09
29.66
23.90
18.33
13.52
9.94
7.77
6.89
6.75
6.48
4.96
1.07
-5.95
-16.18
-28.75
-41.82
-53.06
-60.37
-62.53
-59.59
-52.76
-43.87
-34.86
-27.09
-21.20
-17.19
-14.77
-13.55
-13.17
-13.29
-13.49
-13.49
-12.98
-11.71
-9.60
-6.88
-4.07
-1.82
-0.65
-0.74
-2.20
-4.66
-7.37
-9.71
-11.64
-13.72
-16.79
-21.37
-27.29
-34.57
-42.55
-50.17
-56.60
-61.75
-66.34
-71.40
-77.61
-84.90
-94.03
-104.80
-116.10
-126.65
-135.69
-143.50
-151.19
-160.36
-172.52
-190.41
-214.57
-242.35
-268.56
-287.21
-294.05
-288.08
-271.74
-238.16
-188.69
-131.26
-76.65
-33.02
-2.87
15.08
23.23
23.97
19.75
11.50
0.68
-9.48
-16.11
-17.47
-14.01
-7.53
0.06
7.85
14.98
22.54
33.53
48.79
68.74
92.17
116.82
140.36
161.46
179.21
194.31
208.79
225.03
245.33
270.67
300.18
330.99
358.42
376.57
380.55
368.46
342.16
307.11
270.21
237.41
211.86
193.32
178.96
165.26
149.80
131.96
112.84
94.15
77.23
62.53
49.63
37.72
26.14
14.86
4.27
-5.01
-12.71
-19.13
-25.03
-31.23
-38.12
-45.53
-52.79
-59.14
-64.12
-67.83
-70.81
-73.78
-77.27
-81.36
-85.76
-89.87
-93.09
-95.00
-95.42
-94.49
-92.50
-89.87
-86.94
-83.89
-80.65
-76.99
-72.71
-67.77
-62.46
-57.24
-52.65
-48.99
-46.35
-44.62
-43.70
-43.57
-44.31
-45.82
-47.70
-49.17
-49.25
-47.10
-42.32
-35.08
-26.00
-15.98
-5.91
3.52
11.89
19.03
24.92
29.65
33.35
36.17
38.27
39.80
40.87
41.62
42.12
42.44
42.58
42.54
42.29
41.81
41.07
40.01
38.54
36.53
33.86
30.51
26.51
22.05
17.42
12.97
8.94
5.39
2.18
-1.02
-4.54
-8.61
-13.23
-18.17
-23.10
-27.69
-31.80
-35.49
-39.04
-42.84
-47.30
-52.59
-58.55
-64.64
-69.97
-73.51
-74.37
-72.03
-66.58
-58.64
-49.22
-39.44
-30.27
-22.34
-15.95
-11.09
-7.56
-5.06
-3.16
-1.37
0.81
3.74
7.47
11.69
15.85
19.39
21.93
23.49
24.36
24.92
25.38
25.69
25.55
24.64
22.87
20.40
17.59
14.75
11.94
8.93
5.33
0.82
-4.68
-10.93
-17.56
-24.17
-30.55
-36.63
-42.45
-48.12
-53.76
-59.60
-65.83
-72.53
-79.36
-85.54
-89.93
-91.33
-88.95
-82.66
-73.10
-61.46
-49.11
-37.25
-26.58
-17.32
-9.31
-2.26
4.07
9.84
15.12
20.08
24.87
29.70
34.61
39.52
44.19
48.40
52.05
55.20
57.95
60.34
62.27
63.55
63.99
63.56
62.37
60.64
58.55
56.18
53.43
50.16
46.24
41.66
36.56
31.19
25.78
20.47
15.17
9.65
3.57
-3.39
-11.30
-19.87
-28.35
-35.64
-40.53
-42.05
-39.74
-33.76
-24.89
-14.24
-3.06
7.65
17.16
25.11
31.42
36.19
39.59
41.82
43.05
43.48
43.30
42.71
41.88
40.88
39.73
38.39
36.80
35.01
33.13
31.29
29.54
27.78
25.79
23.24
19.89
15.68
10.73
5.34
-0.16
-5.58
-10.85
-16.08
-21.38
-26.75
-32.09
-37.17
-41.79
-45.89
-49.60
-53.20
-57.10
-61.73
-67.35
-73.98
-81.18
-88.06
-93.34
-95.65
-93.93
-87.74
-77.43
-64.04
-49.00
-33.76
-19.44
-6.67
4.38
13.82
21.84
28.53
33.90
37.91
40.63
42.35
43.49
44.51
45.74
47.23
48.85
50.37
51.63
52.58
53.31
53.89
54.25
54.21
53.44
51.63
48.62
44.51
39.64
34.48
29.49
24.95
20.90
17.12
13.26
9.03
4.29
-0.93
-6.41
-11.89
-17.13
-22.01
-26.55
-30.90
-35.30
-40.03
-45.30
-51.13
-57.20
-62.72
-66.58
-67.55
-64.71
-57.75
-47.08
-33.73
-19.07
-4.42
9.17
21.03
30.77
38.24
43.34
46.07
46.57
45.20
42.62
39.66
37.13
35.56
35.06
35.32
35.80
36.02
35.78
35.16
34.39
33.63
32.83
31.80
30.28
28.12
25.30
22.01
18.48
14.94
11.57
8.44
5.51
2.65
-0.34
-3.67
-7.45
-11.68
-16.18
-20.70
-24.96
-28.73
-31.93
-34.66
-37.22
-40.03
-43.47
-47.72
-52.55
-57.18
-60.53
-61.40
-58.95
-52.91
-43.70
-32.21
-19.54
-6.70
5.48
16.42
25.69
33.07
38.50
42.16
44.40
45.61
46.20
46.46
46.59
46.74
47.04
47.53
48.13
48.69
49.03
48.97
48.42
47.39
45.85
43.80
41.22
38.12
34.55
30.60
26.34
21.77
16.89
11.71
6.36
1.06
-3.96
-8.53
-12.72
-16.76
-21.07
-26.11
-32.18
-39.35
-47.37
-55.66
-63.43
-69.82
-74.09
-75.81
-74.91
-71.67
-66.61
-60.38
-53.71
-47.31
-41.93
-38.19
-36.38
-36.27
-36.95
-36.85
-33.94
-26.11
-11.48
11.09
41.65
78.73
119.25
158.65
191.76
213.86
221.88
215.03
194.82
164.29
127.14
86.92
46.73
9.15
-23.74
-50.47
-70.48
-84.23
-93.11
-98.93
-103.34
-107.27
-110.92
-113.94
-115.96
-116.98
-117.50
-118.39
-120.59
-124.69
-130.61
-137.44
-143.57
-147.03
-146.03
-139.47
-127.29
-110.53
-90.98
-70.63
-51.17
-33.61
-18.29
-5.14
6.04
15.36
22.87
28.60
32.74
35.59
37.51
38.78
39.56
39.83
39.59
38.91
38.02
37.24
36.84
36.87
37.18
37.37
36.99
35.70
33.38
30.14
26.30
22.25
18.33
14.73
11.45
8.29
4.97
1.24
-3.04
-7.75
-12.55
-16.98
-20.68
-23.48
-25.61
-27.65
-30.34
-34.32
-39.82
-46.45
-53.18
-58.65
-61.53
-60.81
-56.04
-47.33
-35.21
-20.46
-3.96
13.46
31.15
48.72
66.06
83.30
100.66
118.32
136.37
154.69
173.08
191.15
208.42
224.25
238.01
249.12
257.17
261.96
263.41
261.56
256.50
248.50
237.97
225.38
211.16
195.56
178.63
160.33
140.76
120.17
99.01
77.69
56.38
35.09
13.75
-7.51
-28.21
-47.63
-65.12
-80.39
-93.69
-105.75
-117.43
-129.41
-141.84
-154.27
-165.72
-174.90
-180.53
-181.63
-177.82
-169.38
-157.27
-142.84
-127.56
-112.70
-99.11
-87.17
-76.78
-67.63
-59.27
-51.40
-43.83
-36.59
-29.78
-23.54
-17.97
-13.10
-8.92
-5.31
-2.04
1.26
5.00
9.42
14.41
19.40
23.56
26.06
26.56
25.27
22.94
20.47
18.53
17.39
16.90
16.78
16.84
17.11
17.75
18.85
20.26
21.49
21.87
20.72
17.60
12.37
5.18
-3.66
-13.68
-24.28
-34.70
-43.97
-51.15
-55.43
-56.53
-54.73
-50.85
-46.00
-41.21
-37.28
-34.60
-33.30
-33.37
-34.76
-37.44
-41.37
-46.32
-51.85
-57.33
-62.04
-65.42
-67.22
-67.58
-66.86
-65.47
-63.62
-61.27
-58.27
-54.50
-50.02
-45.06
-40.01
-35.22
-31.01
-27.61
-25.21
-23.88
-23.54
-23.95
-24.71
-25.53
-26.34
-27.43
-29.31
-32.52
-37.26
-43.16
-49.24
-54.07
-56.13
-54.21
-47.71
-36.85
-22.54
-6.20
10.55
26.24
39.75
50.40
58.02
62.74
64.92
64.94
63.16
59.87
55.32
49.80
43.59
37.06
30.55
24.41
18.90
14.21
10.32
6.97
3.68
-0.06
-4.53
-9.51
-14.37
-18.36
-21.02
-22.51
-23.57
-25.14
-27.86
-31.75
-36.31
-40.91
-45.19
-49.31
-53.76
-59.04
-65.35
-72.55
-80.29
-88.22
-95.95
-103.04
-108.76
-112.12
-112.03
-107.74
-99.07
-86.59
-71.52
-55.39
-39.69
-25.61
-13.86
-4.68
2.07
6.77
9.83
11.62
12.40
12.34
11.66
10.64
9.59
8.79
8.41
8.47
8.92
9.74
10.92
12.41
14.06
15.54
16.48
16.61
15.89
14.53
12.93
11.47
10.40
9.82
9.68
9.91
10.37
10.97
11.61
12.21
12.69
12.96
12.79
11.85
9.75
6.27
1.63
-3.36
-7.35
-8.88
-6.77
-0.59
9.20
21.46
34.69
47.46
58.73
67.87
74.66
79.11
81.37
81.70
80.44
77.97
74.70
70.99
67.07
63.02
58.83
54.45
49.92
45.46
41.42
38.11
35.61
33.65
31.64
28.88
24.90
19.71
13.80
7.88
2.56
-1.92
-5.79
-9.59
-13.93
-19.21
-25.55
-32.66
-39.96
-46.60
-51.66
-54.34
-54.18
-51.30
-46.40
-40.48
-34.24
-27.59
-19.39
-7.65
9.61
33.54
63.78
98.48
134.85
170.12
202.35
230.55
254.51
274.24
289.53
300.01
305.42
305.90
302.10
294.90
285.10
273.15
259.16
243.15
225.30
206.01
185.84
165.22
144.36
123.22
101.73
79.91
57.95
36.16
14.71
-6.38
-27.27
-48.05
-68.67
-88.77
-107.82
-125.22
-140.58
-153.90
-165.49
-175.94
-185.88
-195.82
-205.99
-216.32
-226.41
-235.61
-243.10
-248.00
-249.56
-247.29
-241.06
-231.15
-218.15
-202.83
-185.96
-168.25
-150.33
-132.72
-115.72
-99.36
-83.21
-66.52
-48.46
-28.63
-7.35
14.12
33.90
50.14
61.62
68.19
70.76
70.89
70.12
69.43
68.87
67.57
63.98
56.38
43.45
24.83
1.59
-23.72
-47.52
-66.25
-77.57
-81.10
-78.34
-71.80
-63.78
-55.57
-47.31
-38.79
-30.31
-23.16
-19.27
-20.41
-27.12
-38.26
-51.26
-63.05
-71.02
-73.80
-71.47
-65.19
-56.51
-46.72
-36.50
-25.98
-15.12
-4.22
6.00
14.58
20.88
24.92
27.51
29.92
33.24
37.97
43.85
50.14
55.97
60.79
64.52
67.45
70.08
72.80
75.77
78.80
81.37
82.79
82.34
79.62
74.61
67.74
59.55
50.33
39.99
28.08
14.19
-1.62
-18.61
-35.54
-51.09
-64.36
-75.20
-84.16
-92.21
-100.35
-109.21
-118.91
-128.93
-138.12
-144.86
-147.47
-144.63
-135.89
-121.83
-103.94
-84.17
-64.36
-45.84
-29.25
-14.72
-2.06
8.95
18.47
26.63
33.54
39.36
44.29
48.53
52.24
55.56
58.61
61.47
64.18
66.72
69.00
70.89
72.26
72.98
72.96
72.10
70.34
67.67
64.16
59.95
55.33
50.61
46.01
41.65
37.42
33.06
28.28
22.90
16.90
10.43
3.75
-2.87
-9.26
-15.34
-21.16
-26.88
-32.81
-39.38
-47.01
-55.98
-66.03
-76.19
-84.77
-89.76
-89.43
-82.99
-70.89
-54.67
-36.42
-18.14
-1.22
13.69
26.49
37.26
46.08
52.87
57.63
60.45
61.66
61.78
61.32
60.69
60.12
59.69
59.42
59.31
59.39
59.69
60.21
60.81
61.22
61.11
60.15
58.11
54.95
50.82
46.03
40.98
35.99
31.29
26.88
22.60
18.12
13.12
7.34
0.76
-6.39
-13.70
-20.72
-27.15
-32.92
-38.18
-43.29
-48.62
-54.58
-61.44
-69.22
-77.51
-85.36
-91.30
-93.61
-90.89
-82.52
-68.96
-51.67
-32.68
-13.95
3.02
17.46
29.14
38.12
44.57
48.61
50.47
50.54
49.46
47.94
46.62
45.86
45.70
45.99
46.51
47.14
47.80
48.43
48.87
48.81
47.96
46.08
43.09
39.15
34.53
29.55
24.49
19.45
14.41
9.19
3.56
-2.61
-9.25
-16.09
-22.74
-28.84
-34.28
-39.27
-44.32
-50.05
-56.90
-64.87
-73.30
-80.90
-85.98
-86.92
-82.70
-73.24
-59.53
-43.28
-26.45
-10.69
3.00
14.31
23.40
30.59
36.10
40.01
42.37
43.39
43.48
43.24
43.21
43.70
44.68
45.79
46.64
47.00
46.95
46.81
46.88
47.20
47.44
47.02
45.36
42.19
37.65
32.24
26.54
20.99
15.75
10.67
5.45
-0.18
-6.30
-12.78
-19.36
-25.68
-31.54
-36.89
-41.92
-47.04
-52.70
-59.36
-67.17
-75.88
-84.65
-92.12
-96.68
-96.89
-91.95
-81.94
-67.86
-51.30
-34.00
-17.40
-2.44
10.45
21.22
30.01
36.98
42.25
45.95
48.26
49.45
49.89
49.98
50.01
50.09
50.17
50.06
49.62
48.88
48.00
47.18
46.56
46.00
45.18
43.68
41.20
37.67
33.32
28.57
23.84
19.37
15.19
11.05
6.62
1.64
-3.98
-10.07
-16.32
-22.39
-27.99
-33.03
-37.61
-41.98
-46.54
-51.72
-57.90
-65.12
-72.93
-80.31
-85.76
-87.73
-85.08
-77.49
-65.57
-50.67
-34.45
-18.45
-3.82
8.82
19.23
27.45
33.66
38.12
41.16
43.09
44.22
44.79
44.99
44.95
44.73
44.38
43.91
43.35
42.76
42.27
41.98
41.92
41.93
41.69
40.74
38.71
35.45
31.11
26.12
20.97
16.06
11.52
7.22
2.85
-1.97
-7.41
-13.44
-19.81
-26.12
-31.92
-36.88
-40.89
-44.11
-46.99
-50.18
-54.26
-59.54
-65.76
-72.03
-76.95
-78.99
-76.89
-70.19
-59.27
-45.25
-29.67
-14.03
0.54
13.29
23.84
32.04
37.76
41.06
42.11
41.30
39.17
36.29
33.16
30.13
27.41
25.12
23.27
21.85
20.77
19.88
19.14
18.56
18.28
18.40
18.78
19.00
18.49
16.94
14.64
12.73
12.92
16.75
24.85
36.57
50.25
63.93
76.12
86.06
93.48
98.11
99.38
96.56
89.14
77.27
61.59
42.69
20.70
-4.47
-32.28
-60.52
-85.10
-101.03
-104.30
-93.74
-71.77
-43.46
-14.56
10.61
30.39
45.58
58.24
70.29
82.51
94.38
104.59
111.73
114.96
114.44
111.28
107.21
103.79
101.68
100.21
97.56
91.51
80.51
64.39
44.49
23.01
2.11
-16.86
-33.59
-48.59
-62.58
-76.00
-88.68
-100.01
-109.26
-115.95
-120.16
-122.48
-123.76
-124.75
-125.78
-126.77
-127.47
-127.69
-127.47
-126.90
-125.75
-123.24
-118.19
-109.52
-96.87
-80.99
-63.65
-47.00
-32.83
-21.94
-14.11
-8.44
-4.00
-0.26
2.76
4.73
5.40
4.77
3.17
1.00
-1.23
-2.94
-3.27
-1.15
4.20
12.77
23.41
34.02
42.16
45.90
44.35
37.91
28.16
17.55
9.00
5.30
8.25
18.04
32.85
49.35
63.80
73.39
77.09
75.61
70.65
63.85
56.26
48.33
40.27
32.37
25.08
18.88
14.21
11.51
11.52
15.39
24.34
38.95
58.16
78.84
96.02
104.16
98.69
77.70
42.64
-1.95
-49.67
-93.97
-129.73
-154.09
-166.50
-168.21
-161.40
-148.55
-131.89
-113.24
-93.84
-74.52
-55.85
-38.40
-22.88
-10.15
-0.99
4.37
6.40
6.27
5.42
4.97
5.31
6.17
6.88
6.86
5.84
3.80
0.85
-2.90
-7.23
-11.77
-15.96
-19.20
-21.10
-21.79
-21.79
-21.87
-22.60
-24.09
-25.92
-27.29
-27.44
-25.87
-22.55
-17.78
-12.08
-5.97
0.06
5.55
10.07
13.27
14.89
14.96
13.72
11.65
9.27
7.04
5.26
4.05
3.37
3.10
3.07
3.15
3.29
3.43
3.54
3.55
3.34
2.71
1.49
-0.41
-2.92
-5.78
-8.63
-11.13
-13.09
-14.52
-15.61
-16.63
-17.75
-19.00
-20.22
-21.20
-21.79
-21.99
-21.97
-22.02
-22.42
-23.33
-24.82
-26.78
-28.96
-31.00
-32.35
-32.41
-30.55
-26.37
-19.92
-11.79
-3.04
5.14
11.83
16.67
19.84
21.85
23.12
23.84
23.92
23.22
21.87
20.26
18.94
18.30
18.40
18.91
19.43
19.72
19.88
20.21
20.94
21.93
22.64
22.25
20.00
15.48
8.71
0.17
-9.35
-18.93
-27.83
-35.67
-42.61
-49.28
-56.41
-64.47
-73.28
-82.03
-89.61
-95.18
-98.59
-100.44
-101.84
-103.85
-107.18
-111.81
-117.04
-121.52
-123.55
-121.41
-113.86
-100.53
-82.11
-60.23
-36.99
-14.38
6.09
23.57
37.85
49.05
57.56
63.84
68.39
71.69
74.11
75.89
77.10
77.76
77.84
77.40
76.60
75.67
74.99
74.84
75.32
76.07
76.36
75.11
71.28
64.20
53.89
41.15
27.28
13.82
2.11
-7.02
-13.34
-17.13
-18.96
-19.43
-18.96
-17.76
-15.82
-13.13
-9.87
-6.47
-3.62
-2.13
-2.61
-5.23
-9.56
-14.63
-19.27
-22.52
-24.08
-24.38
-24.51
-25.88
-29.71
-36.69
-46.60
-58.28
-69.88
-79.27
-84.73
-85.42
-81.68
-74.71
-66.15
-57.43
-49.43
-42.51
-36.70
-32.05
-28.68
-26.60
-25.60
-25.14
-24.56
-23.34
-21.35
-18.89
-16.42
-14.31
-12.68
-11.30
-9.92
-8.34
-6.62
-4.99
-3.72
-3.07
-3.16
-4.06
-5.80
-8.37
-11.69
-15.52
-19.56
-23.54
-27.32
-30.94
-34.54
-38.29
-42.37
-47.00
-52.52
-59.26
-67.25
-75.79
-83.32
-87.54
-86.02
-76.98
-60.05
-36.37
-8.29
21.37
50.08
76.11
98.55
116.96
131.03
140.41
144.93
144.86
141.07
134.81
127.08
118.23
107.82
95.14
80.01
63.30
46.88
32.94
23.06
17.57
15.56
15.53
16.05
16.30
15.94
14.82
12.78
9.55
4.99
-0.66
-6.80
-12.67
-17.71
-21.76
-25.07
-27.96
-30.70
-33.38
-35.96
-38.53
-41.38
-44.96
-49.77
-56.22
-64.50
-74.46
-85.41
-95.97
-104.13
-107.48
-103.91
-92.26
-72.89
-47.66
-19.48
8.54
33.90
55.16
71.91
84.34
92.78
97.45
98.52
96.31
91.63
85.69
79.83
75.10
71.99
70.32
69.55
69.11
68.70
68.25
67.85
67.48
66.96
65.94
64.06
61.13
57.16
52.41
47.28
42.15
37.22
32.36
27.15
21.09
13.83
5.39
-3.72
-12.73
-20.90
-27.89
-33.89
-39.73
-46.55
-55.39
-66.67
-79.73
-92.65
-102.59
-106.52
-102.22
-88.99
-68.00
-41.86
-13.84
13.07
36.78
56.38
71.87
83.80
92.85
99.51
104.06
106.66
107.47
106.84
105.27
103.28
101.27
99.32
97.34
95.19
92.89
90.65
88.70
87.02
85.13
82.22
77.42
70.23
60.79
49.90
38.74
28.40
19.44
11.75
4.62
-2.89
-11.48
-21.28
-31.83
-42.26
-51.67
-59.51
-65.81
-71.20
-76.76
-83.68
-92.84
-104.42
-117.51
-130.12
-139.47
-142.72
-137.76
-124.02
-102.66
-76.25
-48.07
-21.13
2.47
21.79
36.88
48.38
57.03
63.38
67.69
70.11
70.83
70.23
68.86
67.32
66.04
65.18
64.63
64.22
63.83
63.57
63.62
64.06
64.61
64.63
63.34
60.10
54.84
48.00
40.48
33.12
26.41
20.30
14.24
7.56
-0.21
-9.09
-18.60
-27.99
-36.51
-43.75
-49.79
-55.22
-60.99
-68.15
-77.41
-88.90
-101.74
-114.14
-123.58
-127.46
-123.84
-112.10
-93.19
-69.36
-43.52
-18.41
3.99
22.60
37.20
48.02
55.47
60.01
62.11
62.35
61.43
60.08
59.02
58.77
59.60
61.39
63.81
66.36
68.62
70.33
71.38
71.74
71.32
69.87
67.07
62.65
56.55
49.04
40.63
31.99
23.71
16.11
9.18
2.51
-4.40
-11.91
-20.01
-28.27
-36.04
-42.74
-48.22
-52.84
-57.41
-62.89
-70.01
-79.10
-89.75
-100.75
-110.21
-115.82
-115.43
-107.77
-92.89
-72.34
-48.68
-24.82
-3.10
15.10
29.36
39.97
47.43
52.19
54.56
54.86
53.56
51.30
48.79
46.65
45.21
44.54
44.46
44.77
45.28
45.84
46.33
46.51
46.09
44.76
42.29
38.68
34.09
28.82
23.11
17.11
10.82
4.16
-2.97
-10.55
-18.47
-26.42
-34.12
-41.36
-48.21
-54.96
-62.22
-70.63
-80.65
-92.20
-104.38
-115.39
-122.90
-124.66
-119.21
-106.48
-87.93
-66.09
-43.84
-23.67
-7.13
5.32
14.10
20.20
24.67
28.40
31.88
35.25
38.36
41.01
43.08
44.63
45.78
46.70
47.48
48.25
49.23
50.71
52.87
55.56
58.18
59.86
59.73
57.37
53.00
47.39
41.55
36.15
31.27
26.30
20.40
12.87
3.71
-6.42
-16.41
-25.24
-32.42
-38.18
-43.38
-49.15
-56.47
-65.88
-77.13
-89.16
-100.07
-107.46
-109.00
-103.14
-89.67
-69.93
-46.48
-22.32
-0.17
18.19
32.00
41.40
47.04
49.74
50.33
49.51
47.90
45.93
43.89
41.94
40.14
38.52
37.14
36.16
35.80
36.25
37.51
39.33
41.14
42.16
41.62
38.93
33.98
27.16
19.30
11.44
4.48
-1.09
-5.40
-9.08
-12.98
-17.77
-23.60
-30.02
-36.21
-41.29
-44.77
-46.74
-47.88
-49.15
-51.58
-55.91
-62.30
-70.18
-78.14
-84.17
-86.04
-81.97
-71.20
-54.34
-33.20
-10.32
11.87
31.55
47.77
60.40
69.79
76.47
80.97
83.80
85.40
86.13
86.21
85.68
84.46
82.46
79.74
76.56
73.41
70.86
69.29
68.79
68.92
68.83
67.39
63.54
56.49
46.06
32.74
17.67
2.33
-11.77
-23.55
-32.61
-39.26
-44.29
-48.55
-52.61
-56.61
-60.36
-63.56
-66.09
-68.10
-70.03
-72.38
-75.53
-79.57
-84.07
-87.98
-89.86
-88.09
-81.47
-69.59
-52.99
-33.09
-11.77
9.11
28.05
44.03
56.54
65.44
70.92
73.38
73.33
71.42
68.20
64.19
59.78
55.30
51.01
47.15
43.89
41.36
39.60
38.53
37.90
37.33
36.37
34.59
31.77
27.98
23.57
19.07
14.90
11.23
7.84
4.31
0.16
-4.81
-10.37
-15.95
-20.86
-24.61
-27.16
-28.95
-30.87
-33.95
-39.07
-46.56
-55.90
-65.64
-73.60
-77.37
-75.10
-66.06
-50.98
-31.82
-11.07
8.89
26.38
40.54
51.09
58.07
61.62
62.08
60.10
56.74
53.25
50.68
49.50
49.38
49.42
48.68
46.62
43.42
39.77
36.44
33.83
31.77
29.64
26.73
22.58
17.17
10.80
3.97
-2.93
-9.58
-15.86
-21.77
-27.43
-33.06
-38.87
-44.91
-51.01
-56.80
-61.91
-66.17
-69.83
-73.48
-77.92
-83.78
-91.25
-99.72
-107.74
-113.15
-113.58
-107.15
-93.16
-72.48
-47.48
-21.40
2.65
22.52
37.42
47.80
54.73
59.27
62.10
63.46
63.45
62.23
60.23
57.91
55.71
53.69
51.68
49.39
46.59
43.38
40.07
37.01
34.43
32.19
29.90
27.03
23.13
18.10
12.24
6.14
0.43
-4.46
-8.57
-12.29
-16.28
-21.02
-26.64
-32.80
-38.87
-44.27
-48.70
-52.33
-55.63
-59.28
-63.92
-70.05
-77.85
-86.98
-96.32
-103.99
-107.68
-105.24
-95.54
-78.99
-57.56
-34.17
-11.88
7.10
21.70
31.97
38.60
42.38
43.92
43.67
42.02
39.48
36.71
34.34
32.82
32.27
32.45
32.89
33.15
33.03
32.63
32.25
32.17
32.41
32.58
32.00
29.99
26.15
20.58
13.90
7.00
0.67
-4.64
-9.01
-12.90
-17.00
-21.81
-27.47
-33.67
-39.76
-45.07
-49.21
-52.29
-54.88
-57.83
-61.87
-67.42
-74.36
-82.03
-89.25
-94.44
-95.86
-91.99
-81.95
-65.93
-45.31
-22.37
0.27
20.31
36.32
47.84
55.15
58.95
59.94
58.74
55.85
51.87
47.46
43.33
40.05
37.85
36.68
36.16
35.92
35.69
35.34
34.78
33.89
32.37
29.93
26.36
21.75
16.47
10.99
5.66
0.52
-4.69
-10.30
-16.54
-23.31
-30.22
-36.72
-42.35
-46.93
-50.63
-53.96
-57.67
-62.52
-69.04
-77.16
-85.95
-93.60
-97.72
-96.06
-87.28
-71.58
-50.64
-27.18
-4.03
16.52
33.23
45.79
54.47
59.72
61.95
61.56
59.03
55.08
50.55
46.27
42.82
40.34
38.63
37.26
35.89
34.42
33.02
31.99
31.40
30.99
30.19
28.32
24.96
20.20
14.56
8.83
3.62
-0.88
-4.96
-9.23
-14.28
-20.34
-27.17
-34.16
-40.57
-45.90
-50.07
-53.45
-56.82
-61.09
-67.09
-75.19
-85.08
-95.54
-104.51
-109.48
-108.17
-99.28
-82.98
-61.01
-36.15
-11.40
10.81
29.15
43.32
53.79
61.19
66.08
68.77
69.47
68.52
66.45
63.97
61.73
60.13
59.16
58.50
57.64
56.23
54.17
51.68
49.08
46.56
44.00
41.00
37.08
31.93
25.65
18.76
11.93
5.77
0.49
-4.21
-8.95
-14.40
-20.95
-28.50
-36.50
-44.17
-50.81
-56.06
-60.14
-63.71
-67.84
-73.53
-81.38
-91.15
-101.63
-110.59
-115.41
-113.71
-104.16
-86.99
-63.96
-37.94
-11.98
11.42
30.83
45.86
56.89
64.55
69.44
71.99
72.61
71.76
70.01
68.00
66.20
64.97
64.44
64.67
65.68
67.48
69.97
72.86
75.71
77.96
79.08
78.70
76.58
72.68
67.04
59.90
51.67
42.93
34.32
26.37
19.36
13.19
7.50
1.89
-3.88
-9.80
-15.62
-21.09
-26.15
-31.06
-36.38
-42.74
-50.68
-60.41
-71.70
-83.80
-95.44
-104.92
-110.32
-109.89
-102.48
-88.06
-67.86
-44.25
-20.14
1.79
19.71
33.01
42.05
47.72
50.84
51.87
51.01
48.44
44.68
40.58
37.11
34.90
33.98
33.77
33.41
32.20
29.94
26.92
23.72
20.79
18.14
15.32
11.55
6.17
-1.01
-9.54
-18.39
-26.34
-32.43
-36.36
-38.68
-40.56
-43.37
-48.04
-54.65
-62.43
-70.07
-76.40
-81.00
-84.47
-88.26
-94.10
-103.23
-115.79
-130.63
-145.49
-157.63
-164.60
-165.03
-159.03
-148.14
-134.81
-121.56
-110.20
-101.23
-93.78
-86.04
-76.17
-63.13
-47.29
-30.41
-15.13
-3.97
1.73
2.53
0.98
0.81
5.67
17.74
36.95
61.09
86.74
110.59
130.54
146.06
157.83
166.77
173.29
176.95
176.84
172.39
163.86
152.47
139.89
127.52
116.07
105.46
95.30
85.45
76.34
68.81
63.57
60.67
59.19
57.38
53.33
45.65
34.06
19.56
4.18
-9.64
-19.79
-25.11
-25.56
-21.95
-15.46
-7.19
2.10
11.85
21.41
29.87
36.06
38.96
38.14
34.00
27.75
21.10
15.82
13.32
14.35
18.89
26.22
35.03
43.73
50.80
55.12
56.25
54.61
51.55
49.19
49.95
55.98
68.32
86.52
108.44
130.77
149.81
162.46
166.82
162.45
150.10
131.34
108.17
82.80
57.48
34.18
14.31
-1.79
-15.01
-27.34
-41.40
-59.81
-84.34
-115.11
-150.08
-185.07
-214.59
-233.36
-238.21
-229.36
-210.44
-187.08
-164.63
-146.10
-131.41
-118.10
-103.16
-84.72
-62.99
-39.78
-17.42
2.33
18.74
31.72
41.23
46.95
48.44
45.41
38.05
26.78
11.90
-6.67
-29.13
-55.23
-83.60
-111.57
-135.72
-152.97
-161.66
-162.08
-156.22
-146.99
-137.21
-128.86
-122.79
-118.93
-116.72
-115.75
-116.23
-118.97
-125.11
-135.54
-150.35
-168.51
-187.77
-204.96
-216.52
-219.20
-210.83
-190.95
-161.02
-124.14
-84.35
-45.68
-11.31
16.95
38.74
54.92
67.15
77.24
86.61
95.87
104.73
112.33
117.77
120.67
121.36
120.71
119.66
118.77
118.04
117.11
115.46
112.71
108.58
102.71
94.70
84.14
70.91
55.48
38.89
22.53
7.71
-4.80
-14.88
-22.98
-29.82
-36.04
-42.11
-48.40
-55.26
-63.13
-72.25
-82.39
-92.39
-100.17
-103.08
-98.55
-85.06
-62.66
-33.06
0.83
35.72
68.85
98.33
123.24
143.36
158.78
169.73
176.53
179.58
179.47
176.95
172.82
167.86
162.75
157.96
153.81
150.41
147.68
145.32
142.75
139.21
133.92
126.30
116.14
103.63
89.31
73.78
57.60
41.11
24.55
8.09
-8.06
-23.65
-38.50
-52.49
-65.71
-78.38
-90.89
-103.69
-117.25
-131.82
-147.23
-162.57
-176.10
-185.37
-187.73
-181.08
-164.61
-139.14
-107.10
-71.82
-36.75
-4.59
23.07
45.82
63.96
78.13
88.82
96.35
100.87
102.59
101.96
99.61
96.31
92.69
89.12
85.74
82.57
79.75
77.43
75.78
74.73
73.84
72.40
69.69
65.26
59.17
51.90
44.19
36.62
29.39
22.25
14.60
5.90
-4.06
-14.94
-25.90
-35.92
-44.28
-50.88
-56.36
-61.93
-68.90
-78.23
-90.08
-103.47
-116.31
-125.69
-128.53
-122.47
-106.66
-82.14
-51.61
-18.62
13.39
41.95
65.80
84.73
99.14
109.53
116.38
120.14
121.36
120.75
119.06
116.95
114.76
112.55
110.14
107.36
104.17
100.83
97.80
95.58
94.44
94.20
94.15
93.24
90.45
85.13
77.29
67.65
57.27
47.23
38.19
30.18
22.67
14.78
5.71
-4.90
-16.85
-29.42
-41.62
-52.57
-61.82
-69.52
-76.41
-83.58
-92.16
-102.86
-115.56
-129.02
-140.97
-148.54
-149.03
-140.77
-123.80
-99.82
-71.79
-43.02
-16.30
6.59
24.90
38.72
48.56
55.00
58.60
59.92
59.55
58.19
56.56
55.29
54.80
55.19
56.41
58.37
61.13
64.81
69.49
74.93
80.46
85.06
87.66
87.47
84.22
78.22
70.19
61.04
51.60
42.43
33.80
25.65
17.66
9.48
0.86
-8.23
-17.53
-26.69
-35.36
-43.38
-50.80
-57.92
-65.17
-73.08
-82.18
-92.77
-104.62
-116.57
-126.55
-131.91
-130.24
-120.29
-102.51
-78.99
-52.78
-26.89
-3.52
16.25
32.21
44.48
53.23
58.51
60.52
59.80
57.32
54.23
51.58
49.90
49.17
48.93
48.59
47.82
46.63
45.29
44.04
42.91
41.53
39.37
35.88
30.81
24.32
16.83
8.88
0.89
-6.99
-14.91
-23.18
-32.10
-41.70
-51.66
-61.27
-69.68
-76.15
-80.38
-82.66
-83.92
-85.42
-88.49
-93.93
-101.48
-109.59
-115.57
-116.26
-109.11
-93.11
-69.23
-40.27
-9.93
18.16
41.32
58.17
68.60
73.34
73.54
70.43
65.20
58.78
51.85
44.74
37.52
30.11
22.46
14.70
7.22
0.56
-4.77
-8.58
-11.12
-12.91
-14.42
-15.64
-15.89
-13.98
-8.67
0.73
14.01
29.86
46.13
60.27
69.83
73.10
69.50
59.78
45.83
30.13
15.01
2.00
-8.47
-17.01
-24.78
-33.03
-42.64
-53.82
-65.92
-77.45
-86.20
-89.75
-86.16
-74.64
-56.01
-32.55
-7.35
16.52
36.81
52.60
64.06
72.11
77.81
81.91
84.68
86.08
85.99
84.56
82.10
79.04
75.58
71.67
67.08
61.65
55.57
49.36
43.74
39.23
35.92
33.38
30.87
27.62
23.14
17.32
10.51
3.35
-3.40
-9.13
-13.53
-16.77
-19.32
-21.87
-24.96
-28.82
-33.31
-38.12
-42.95
-47.82
-52.98
-58.87
-65.90
-74.29
-83.96
-94.42
-104.69
-113.28
-118.28
-117.81
-110.54
-96.33
-76.40
-53.13
-29.36
-7.62
10.42
24.06
33.38
38.79
40.79
39.92
36.85
32.47
27.84
23.83
20.91
18.90
17.19
15.05
12.11
8.54
4.99
2.21
0.58
-0.16
-0.92
-2.85
-6.97
-13.71
-22.85
-33.48
-44.24
-53.61
-60.33
-63.95
-65.30
-66.57
-70.84
-81.01
-98.47
-122.07
-147.84
-169.88
-182.06
-180.03
-162.78
-132.91
-95.90
-58.47
-26.77
-5.15
4.47
2.49
-8.70
-25.22
-42.12
-54.10
-56.60
-47.02
-25.82
3.48
35.43
64.57
87.29
102.72
112.36
118.66
123.52
127.42
129.59
128.95
125.12
118.76
111.36
104.42
98.89
94.85
91.75
88.83
85.42
81.05
75.51
68.71
60.69
51.60
41.67
31.24
20.74
10.85
2.48
-3.19
-4.97
-2.11
5.29
16.20
28.74
40.73
50.20
55.77
56.81
53.30
45.66
34.67
21.35
6.98
-7.01
-19.19
-28.24
-33.24
-33.69
-29.74
-22.10
-12.02
-0.92
9.83
19.27
27.05
33.24
38.22
42.22
45.21
46.82
46.64
44.45
40.38
34.94
28.85
22.81
17.36
12.81
9.24
6.60
4.72
3.36
2.30
1.30
0.21
-1.05
-2.57
-4.44
-6.83
-9.94
-13.89
-18.69
-24.24
-30.33
-36.73
-43.22
-49.58
-55.56
-60.77
-64.73
-66.93
-67.07
-65.14
-61.44
-56.38
-50.15
-42.60
-33.26
-21.72
-8.07
6.89
21.82
35.21
45.86
53.16
57.13
58.12
56.68
53.33
48.67
43.35
38.04
33.27
29.36
26.34
24.12
22.59
21.72
21.52
21.97
22.94
24.16
25.34
26.14
26.26
25.50
23.75
21.02
17.53
13.62
9.72
6.19
3.22
0.79
-1.27
-3.16
-4.98
-6.69
-8.26
-9.83
-11.81
-14.84
-19.41
-25.36
-31.66
-36.47
-37.82
-34.37
-26.01
-13.96
-0.50
11.69
20.00
22.24
17.00
4.05
-15.35
-38.36
-61.15
-80.11
-93.09
-100.30
-103.99
-107.34
-112.76
-120.75
-129.55
-135.98
-136.83
-130.23
-116.49
-98.06
-78.91
-63.45
-55.43
-57.10
-68.68
-88.40
-112.83
-137.65
-158.70
-172.94
-179.28
-178.77
-174.20
-169.13
-166.71
-168.94
-176.33
-188.20
-203.32
-220.45
-238.58
-256.92
-274.65
-290.89
-304.67
-315.12
-321.47
-323.13
-319.63
-310.72
-296.45
-277.22
-253.91
-227.72
-200.01
-172.07
-144.94
-119.30
-95.41
-73.19
-52.16
-31.61
-10.78
10.93
33.86
58.08
83.35
109.13
134.51
158.17
178.58
194.27
204.38
208.85
208.50
204.62
198.50
191.08
182.73
173.57
163.67
153.32
142.99
133.07
123.67
114.50
105.03
94.75
83.46
71.43
59.23
47.40
36.05
24.70
12.52
-1.04
-15.63
-29.57
-40.14
-44.40
-40.21
-27.16
-6.70
18.31
44.59
69.38
91.02
108.88
122.94
133.34
140.13
143.38
143.41
141.06
137.50
133.99
131.41
129.97
129.28
128.69
127.68
126.13
124.30
122.55
121.04
119.56
117.58
114.52
110.05
104.20
97.23
89.50
81.16
72.13
62.16
51.05
38.81
25.78
12.52
-0.30
-12.10
-22.55
-31.69
-39.96
-48.11
-57.08
-67.71
-80.36
-94.59
-108.94
-121.01
-128.03
-127.57
-118.38
-100.76
-76.56
-48.58
-19.74
7.61
32.07
53.14
70.90
85.57
97.32
106.22
112.34
115.93
117.47
117.56
116.86
115.85
114.76
113.55
112.12
110.40
108.47
106.59
104.97
103.59
102.11
99.86
96.12
90.41
82.74
73.60
63.86
54.38
45.72
37.92
30.54
22.90
14.45
4.99
-5.21
-15.56
-25.40
-34.27
-42.11
-49.31
-56.62
-64.99
-75.26
-87.79
-102.06
-116.50
-128.64
-135.62
-135.06
-125.80
-108.29
-84.45
-57.02
-28.82
-2.12
21.68
41.91
58.46
71.50
81.33
88.33
92.92
95.52
96.55
96.40
95.43
94.04
92.62
91.44
90.61
90.09
89.66
89.09
88.20
86.87
85.01
82.50
79.11
74.58
68.68
61.45
53.13
44.24
35.37
27.01
19.31
12.09
4.82
-3.05
-11.88
-21.59
-31.68
-41.36
-49.97
-57.22
-63.37
-69.14
-75.48
-83.26
-92.95
-104.51
-117.15
-129.34
-138.95
-143.61
-141.30
-130.96
-112.93
-88.90
-61.50
-33.51
-7.26
15.85
35.30
51.15
63.72
73.27
80.01
84.13
85.94
85.94
84.75
83.01
81.21
79.68
78.54
77.77
77.29
77.01
76.80
76.48
75.77
74.35
71.87
68.10
62.97
56.67
49.57
42.10
34.65
27.41
20.29
13.03
5.30
-3.06
-11.91
-20.84
-29.23
-36.50
-42.35
-46.85
-50.48
-54.06
-58.54
-64.79
-73.22
-83.49
-94.36
-103.80
-109.49
-109.50
-102.92
-90.13
-72.67
-52.58
-31.89
-12.12
5.77
21.27
34.08
44.01
50.93
54.95
56.45
56.10
54.70
53.04
51.65
50.79
50.39
50.32
50.43
50.75
51.41
52.46
53.72
54.68
54.67
53.14
49.84
44.99
39.13
32.87
26.64
20.57
14.48
7.99
0.79
-7.28
-16.17
-25.59
-35.11
-44.30
-52.81
-60.57
-67.86
-75.32
-83.79
-93.92
-105.88
-118.99
-131.76
-142.08
-147.86
-147.54
-140.62
-127.75
-110.51
-90.97
-71.22
-53.01
-37.60
-25.66
-17.39
-12.53
-10.50
-10.60
-12.17
-14.78
-18.32
-22.89
-28.69
-35.83
-44.21
-53.53
-63.31
-73.04
-82.22
-90.54
-98.00
-104.83
-111.51
-118.61
-126.61
-135.77
-145.97
-156.71
-166.99
-175.61
-181.39
-183.80
-183.20
-180.83
-178.36
-177.12
-177.57
-179.23
-181.11
-182.33
-182.51
-181.66
-179.76
-176.33
-170.37
-160.74
-146.71
-128.24
-105.99
-80.80
-53.18
-23.10
9.97
46.87
88.47
135.23
186.67
240.87
294.33
342.43
380.67
406.04
418.00
418.46
410.78
398.29
383.22
366.45
348.04
328.15
307.54
287.36
268.57
251.41
235.26
219.17
202.41
184.91
167.23
150.27
134.72
120.76
108.02
95.81
83.50
70.80
57.82
45.03
33.02
22.28
13.01
5.10
-1.82
-8.26
-14.68
-21.43
-28.64
-36.23
-43.93
-51.32
-57.88
-63.07
-66.43
-67.67
-66.75
-63.89
-59.54
-54.24
-48.60
-43.14
-38.27
-34.23
-31.09
-28.78
-27.16
-26.07
-25.40
-25.08
-25.07
-25.34
-25.81
-26.41
-27.06
-27.69
-28.24
-28.63
-28.77
-28.58
-28.06
-27.32
-26.49
-25.78
-25.36
-25.34
-25.79
-26.71
-28.06
-29.72
-31.50
-33.21
-34.64
-35.75
-36.63
-37.50
-38.69
-40.46
-42.95
-46.12
-49.68
-53.15
-55.87
-57.04
-56.01
-52.38
-46.19
-38.00
-28.71
-19.34
-10.74
-3.44
2.44
6.96
10.33
12.65
13.99
14.42
14.09
13.29
12.37
11.68
11.39
11.49
11.83
12.17
12.34
12.26
11.94
11.42
10.69
9.69
8.32
6.51
4.30
1.77
-0.98
-3.90
-7.06
-10.54
-14.41
-18.59
-22.86
-26.96
-30.64
-33.85
-36.68
-39.37
-42.23
-45.53
-49.35
-53.51
-57.46
-60.31
-61.07
-58.90
-53.46
-45.10
-34.75
-23.66
-13.00
-3.55
4.35
10.78
15.97
20.16
23.46
25.95
27.70
28.80
29.41
29.68
29.79
29.82
29.88
29.99
30.21
30.49
30.78
30.96
30.90
30.48
29.63
28.32
26.52
24.24
21.46
18.23
14.66
10.86
6.95
2.95
-1.16
-5.44
-9.88
-14.39
-18.82
-23.04
-27.12
-31.25
-35.77
-40.93
-46.75
-52.85
-58.53
-62.80
-64.65
-63.33
-58.56
-50.60
-40.29
-28.77
-17.19
-6.45
2.95
10.93
17.61
23.13
27.62
31.08
33.54
35.10
35.98
36.44
36.67
36.73
36.55
36.01
35.04
33.72
32.28
31.02
30.09
29.45
28.77
27.59
25.48
22.26
18.06
13.33
8.59
4.25
0.38
-3.29
-7.27
-12.01
-17.67
-24.02
-30.58
-36.79
-42.30
-47.12
-51.58
-56.23
-61.62
-67.98
-75.17
-82.46
-88.61
-91.92
-90.54
-82.89
-68.20
-46.78
-20.15
9.24
38.66
65.68
88.66
106.86
120.24
129.12
133.96
135.23
133.43
129.19
123.21
116.13
108.41
100.20
91.50
82.25
72.56
62.73
53.22
44.42
36.52
29.49
23.07
16.93
10.79
4.45
-2.14
-8.97
-15.97
-22.95
-29.72
-36.01
-41.63
-46.45
-50.42
-53.64
-56.28
-58.57
-60.81
-63.38
-66.53
-70.32
-74.42
-78.07
-80.14
-79.51
-75.34
-67.41
-56.28
-43.05
-29.13
-15.80
-3.99
5.83
13.57
19.33
23.34
25.80
26.92
26.98
26.28
25.18
24.03
23.13
22.68
22.68
22.96
23.23
23.13
22.39
20.92
18.80
16.22
13.36
10.33
7.11
3.65
-0.08
-4.06
-8.19
-12.40
-16.60
-20.78
-24.95
-29.03
-32.93
-36.56
-39.90
-43.06
-46.34
-50.08
-54.42
-59.17
-63.60
-66.64
-67.10
-64.13
-57.49
-47.68
-35.76
-23.07
-10.87
-0.07
8.86
15.86
21.14
24.99
27.63
29.17
29.65
29.07
27.54
25.29
22.63
19.86
17.25
14.97
13.16
11.99
11.56
11.91
12.88
14.11
15.10
15.43
14.82
13.26
10.97
8.22
5.27
2.20
-1.07
-4.67
-8.74
-13.31
-18.31
-23.55
-28.78
-33.83
-38.62
-43.29
-48.07
-53.26
-58.96
-64.94
-70.50
-74.55
-75.87
-73.50
-67.06
-56.88
-43.90
-29.38
-14.49
-0.22
12.79
24.12
33.53
40.92
46.38
50.22
52.89
54.89
56.52
57.80
58.52
58.35
57.09
54.79
51.74
48.39
45.11
42.09
39.24
36.31
32.94
28.90
24.15
18.88
13.42
8.08
3.00
-1.99
-7.29
-13.29
-20.21
-27.86
-35.69
-43.02
-49.26
-54.26
-58.32
-62.07
-66.32
-71.67
-78.45
-86.53
-95.32
-103.82
-110.76
-114.79
-114.91
-110.68
-102.46
-91.23
-78.24
-64.39
-49.80
-33.72
-14.94
7.59
33.95
63.06
92.76
120.48
143.79
160.88
170.57
172.27
165.99
152.47
133.46
111.55
89.75
70.68
55.98
46.19
40.88
39.06
39.39
40.27
39.82
36.23
28.28
15.84
0.08
-16.97
-33.13
-46.90
-57.73
-65.94
-72.17
-77.02
-80.84
-83.85
-86.26
-88.30
-90.02
-91.17
-91.02
-88.45
-82.26
-71.59
-56.34
-37.33
-16.22
4.85
23.80
39.11
50.08
56.89
60.42
61.86
62.35
62.63
62.88
62.82
61.99
60.05
57.13
53.89
51.40
50.81
52.87
57.62
64.24
71.19
76.56
78.57
75.97
68.30
55.84
39.58
20.90
1.37
-17.46
-34.25
-48.05
-58.36
-65.30
-69.42
-71.52
-72.45
-72.88
-73.25
-73.76
-74.42
-75.03
-75.30
-74.80
-73.00
-69.31
-63.22
-54.45
-43.05
-29.39
-14.02
1.98
17.50
31.58
43.74
53.92
62.36
69.33
75.05
79.77
83.15
84.85
84.91
83.83
82.41
81.33
80.92
81.14
82.04
82.63
81.95
79.58
75.93
71.94
68.37
65.06
60.61
53.02
38.76
15.16
-18.25
-59.16
-103.24
-145.77
-183.18
-213.75
-230.18
-227.13
-202.91
-161.58
-111.33
-60.51
-14.79
23.14
50.67
69.84
81.27
85.07
81.61
72.04
58.19
41.81
25.68
11.84
2.31
-2.68
-3.65
-1.65
2.09
6.34
10.02
12.48
13.42
13.38
12.24
9.82
6.01
1.06
-4.37
-9.44
-13.46
-16.32
-18.22
-20.06
-22.74
-26.72
-31.82
-37.36
-42.52
-46.69
-49.74
-51.90
-53.86
-56.37
-60.00
-64.84
-70.38
-75.65
-79.27
-79.92
-76.42
-68.19
-55.34
-38.69
-19.62
0.28
19.44
36.59
50.79
61.57
68.76
72.63
73.72
72.84
70.90
68.76
67.02
65.88
65.14
64.35
63.12
61.39
59.54
58.32
58.47
60.34
63.59
67.17
69.68
69.89
67.08
61.26
53.10
43.72
34.54
26.90
21.57
18.32
15.72
11.55
3.78
-8.20
-22.82
-36.61
-45.39
-46.03
-37.80
-22.68
-4.62
11.96
23.75
29.55
30.43
29.16
28.90
31.85
38.19
46.05
52.36
54.40
51.17
43.83
34.98
27.32
22.42
20.25
19.85
20.28
21.34
23.58
27.51
32.88
38.35
41.90
41.69
36.92
28.24
17.39
6.47
-2.97
-10.51
-16.92
-23.64
-32.10
-42.94
-55.74
-69.03
-80.72
-88.72
-91.54
-88.56
-80.21
-67.71
-52.77
-37.13
-22.29
-9.24
1.46
9.61
15.11
17.85
17.63
14.29
7.84
-1.38
-12.63
-24.84
-36.84
-47.48
-55.85
-61.37
-63.74
-63.00
-59.42
-53.59
-46.41
-39.00
-32.51
-27.93
-25.82
-26.18
-28.52
-32.06
-36.02
-39.87
-43.45
-46.99
-50.95
-55.78
-61.58
-68.00
-74.02
-78.22
-79.07
-75.37
-66.70
-53.53
-37.17
-19.43
-2.13
13.24
25.68
34.73
40.32
42.69
42.31
39.86
36.13
31.94
28.05
24.98
22.95
21.94
21.72
21.98
22.44
22.94
23.38
23.72
23.80
23.36
21.99
19.28
15.03
9.36
2.81
-3.87
-9.97
-15.06
-19.21
-22.90
-26.86
-31.79
-38.06
-45.46
-53.14
-59.67
-63.30
-62.51
-56.40
-45.10
-29.78
-12.32
5.20
21.01
33.96
43.51
49.65
52.62
52.78
50.56
46.55
41.47
36.13
31.26
27.37
24.64
22.92
21.86
21.14
20.59
20.18
19.99
20.00
19.98
19.46
17.94
15.01
10.61
5.03
-1.15
-7.26
-12.70
-17.14
-20.64
-23.59
-26.71
-30.81
-36.51
-43.91
-52.40
-60.60
-66.68
-68.83
-65.81
-57.37
-44.32
-28.34
-11.40
4.67
18.54
29.52
37.41
42.35
44.60
44.46
42.31
38.63
34.05
29.29
25.06
21.86
19.97
19.34
19.67
20.59
21.72
22.77
23.52
23.80
23.44
22.26
20.12
16.97
12.84
7.91
2.44
-3.28
-8.92
-14.24
-19.04
-23.33
-27.24
-31.08
-35.21
-40.03
-45.75
-52.22
-58.77
-64.16
-66.87
-65.48
-59.18
-48.13
-33.52
-17.22
-1.21
12.87
24.11
32.27
37.54
40.33
40.96
39.70
36.83
32.75
28.03
23.33
19.29
16.33
14.57
13.79
13.65
13.74
13.80
13.69
13.37
12.80
11.83
10.25
7.79
4.27
-0.25
-5.54
-11.17
-16.67
-21.70
-26.12
-30.02
-33.64
-37.24
-41.06
-45.22
-49.81
-54.89
-60.38
-65.92
-70.70
-73.50
-72.95
-68.04
-58.56
-45.29
-29.88
-14.36
-0.51
10.49
18.25
22.95
25.08
25.14
23.62
21.02
17.89
14.89
12.66
11.67
12.14
14.00
16.96
20.53
24.15
27.22
29.24
29.95
29.39
27.91
25.99
24.06
22.33
20.69
18.84
16.47
13.47
9.93
6.12
2.29
-1.45
-5.20
-9.18
-13.68
-18.89
-24.85
-31.37
-37.96
-43.85
-48.04
-49.44
-47.16
-40.80
-30.70
-17.85
-3.70
10.25
22.70
32.75
39.99
44.27
45.74
44.77
41.94
38.02
33.78
29.85
26.59
24.11
22.33
21.13
20.47
20.34
20.71
21.43
22.27
22.92
23.13
22.74
21.71
20.01
17.56
14.21
9.83
4.47
-1.53
-7.61
-13.15
-17.77
-21.48
-24.71
-28.09
-32.20
-37.32
-43.27
-49.44
-54.89
-58.48
-59.11
-55.99
-48.83
-38.01
-24.60
-10.04
4.08
16.44
26.15
32.79
36.24
36.61
34.17
29.40
23.10
16.32
10.11
5.28
2.16
0.56
-0.04
-0.11
0.12
0.71
1.73
3.07
4.23
4.43
2.86
-1.01
-7.20
-15.24
-24.21
-33.04
-40.73
-46.69
-51.12
-55.18
-61.17
-71.95
-90.03
-116.39
-149.61
-185.72
-219.11
-244.19
-257.07
-256.72
-244.99
-225.62
-202.81
-179.96
-159.02
-140.67
-124.92
-111.66
-100.92
-92.62
-86.38
-81.26
-75.83
-68.46
-57.62
-42.12
-21.18
5.39
36.95
71.71
106.70
138.13
162.27
176.49
180.06
174.34
162.28
147.37
132.60
119.54
108.29
97.89
87.03
74.83
61.22
46.94
33.03
20.42
9.66
0.91
-5.68
-9.79
-10.96
-8.87
-3.71
3.69
12.16
20.61
28.47
35.75
42.73
49.53
55.80
60.86
64.03
65.10
64.44
62.82
61.03
59.49
58.24
57.14
56.21
55.80
56.49
58.78
62.75
68.12
74.46
81.60
89.94
100.29
113.28
128.71
144.87
158.52
165.70
163.08
149.40
126.22
97.42
67.57
40.15
16.24
-5.42
-27.33
-51.79
-79.98
-112.11
-147.77
-186.16
-225.39
-261.80
-289.77
-302.91
-296.42
-269.39
-225.59
-172.27
-117.53
-67.61
-25.39
9.20
37.64
61.20
80.23
94.52
104.14
109.90
113.17
115.08
115.95
115.32
112.28
106.36
97.93
88.19
78.66
70.54
64.29
59.48
55.12
50.08
43.55
35.34
25.80
15.57
5.28
-4.83
-14.87
-24.99
-35.01
-44.01
-50.35
-52.01
-47.37
-35.86
-18.28
3.19
25.62
46.06
62.33
73.28
78.72
79.05
74.93
67.13
56.61
44.54
31.92
19.02
5.15
-11.05
-30.59
-53.04
-76.10
-96.22
-110.04
-115.83
-114.22
-107.84
-100.06
-93.81
-90.75
-91.17
-94.19
-98.23
-101.42
-102.19
-99.77
-94.71
-88.87
-84.79
-84.69
-89.52
-98.54
-109.56
-119.69
-126.14
-126.77
-120.40
-106.76
-86.39
-60.68
-31.72
-2.11
25.47
48.78
66.49
78.42
85.42
88.92
90.44
91.09
91.39
91.28
90.51
88.91
86.67
84.36
82.66
82.08
82.64
83.73
84.38
83.53
80.39
74.72
66.84
57.35
46.99
36.47
26.42
17.37
9.57
2.73
-4.13
-12.37
-23.18
-36.74
-51.69
-65.30
-74.23
-75.72
-68.51
-53.18
-31.66
-6.43
20.36
47.23
73.25
97.58
119.00
135.89
146.55
149.81
145.53
134.95
120.31
104.28
89.37
77.39
69.32
65.33
64.96
67.28
71.06
74.98
77.97
79.32
78.77
76.38
72.30
66.61
59.38
50.76
41.10
30.93
20.85
11.26
2.30
-6.15
-14.45
-23.03
-32.41
-43.06
-55.18
-68.36
-81.37
-92.22
-98.60
-98.60
-91.44
-77.72
-59.28
-38.51
-17.67
1.63
18.52
32.65
43.90
52.20
57.60
60.38
61.16
60.84
60.24
59.93
60.03
60.29
60.30
59.80
58.80
57.62
56.64
56.04
55.57
54.60
52.29
47.91
41.16
32.24
21.82
10.74
-0.28
-10.80
-20.66
-29.89
-38.53
-46.61
-54.14
-61.12
-67.54
-73.32
-78.28
-82.30
-85.50
-88.37
-91.64
-95.96
-101.33
-106.76
-110.36
-109.86
-103.43
-90.39
-71.51
-48.67
-24.24
-0.29
21.85
41.68
59.19
74.27
86.41
94.72
98.28
96.68
90.47
80.99
70.06
59.34
49.93
42.32
36.66
33.07
31.80
33.17
37.31
44.00
52.58
61.91
70.50
76.64
78.62
75.01
65.03
48.85
27.71
3.87
-19.74
-40.08
-54.71
-62.43
-63.58
-59.90
-53.88
-47.96
-43.83
-42.24
-43.18
-46.47
-52.11
-60.12
-70.18
-81.20
-91.34
-98.42
-100.56
-96.67
-86.65
-71.22
-51.64
-29.49
-6.57
15.31
34.46
49.67
60.53
67.43
71.43
73.69
75.05
75.73
75.52
74.11
71.37
67.52
62.97
58.11
53.08
47.77
41.89
35.30
28.12
20.81
14.03
8.42
4.41
1.98
0.70
-0.13
-1.32
-3.56
-7.23
-12.38
-18.74
-25.83
-33.13
-40.14
-46.42
-51.71
-56.04
-59.76
-63.53
-68.00
-73.55
-79.92
-86.04
-90.33
-91.05
-86.96
-77.75
-64.14
-47.72
-30.38
-13.85
0.65
12.52
21.62
28.12
32.30
34.51
35.12
34.64
33.64
32.68
32.17
32.27
32.94
33.94
35.07
36.28
37.63
39.25
41.04
42.65
43.45
42.82
40.32
35.99
30.31
24.03
17.86
12.22
7.13
2.33
-2.58
-7.86
-13.56
-19.52
-25.45
-31.07
-36.19
-40.75
-44.89
-48.91
-53.26
-58.47
-64.97
-72.77
-81.18
-88.71
-93.35
-93.10
-86.75
-74.42
-57.59
-38.75
-20.54
-5.02
6.77
14.85
19.92
22.90
24.54
25.30
25.43
25.09
24.58
24.22
24.33
25.07
26.30
27.64
28.60
28.83
28.29
27.25
26.16
25.42
25.07
24.78
23.97
22.15
19.15
15.30
11.25
7.62
4.68
2.16
-0.58
-4.18
-8.99
-14.83
-21.10
-27.07
-32.14
-36.05
-38.97
-41.39
-44.07
-47.79
-53.19
-60.42
-68.88
-77.15
-83.18
-84.90
-80.83
-70.64
-55.35
-36.97
-17.93
-0.38
14.30
25.62
33.75
39.23
42.54
44.09
44.14
43.04
41.20
39.08
37.11
35.53
34.38
33.59
33.11
32.95
33.18
33.83
34.75
35.62
35.96
35.32
33.38
30.09
25.62
20.36
14.76
9.29
4.28
-0.20
-4.29
-8.37
-12.76
-17.66
-22.98
-28.35
-33.33
-37.61
-41.12
-44.16
-47.28
-51.21
-56.54
-63.54
-71.81
-80.20
-86.93
-89.94
-87.48
-78.74
-64.11
-45.17
-24.17
-3.48
15.03
30.18
41.58
49.34
53.85
55.60
55.15
53.05
49.99
46.62
43.55
41.20
39.71
39.00
38.78
38.78
38.82
38.91
39.10
39.41
39.70
39.63
38.75
36.71
33.38
28.97
23.97
18.92
14.24
10.04
6.15
2.16
-2.31
-7.52
-13.38
-19.57
-25.61
-31.02
-35.56
-39.34
-42.79
-46.57
-51.37
-57.62
-65.25
-73.48
-80.83
-85.41
-85.41
-79.61
-67.93
-51.44
-32.15
-12.40
5.67
20.63
31.83
39.28
43.42
44.83
44.10
41.83
38.63
35.09
31.80
29.22
27.63
27.09
27.42
28.34
29.55
30.80
31.85
32.50
32.50
31.62
29.70
26.71
22.82
18.29
13.42
8.37
3.20
-2.11
-7.59
-13.23
-18.90
-24.44
-29.64
-34.38
-38.63
-42.60
-46.68
-51.45
-57.46
-64.90
-73.34
-81.56
-87.70
-89.70
-85.99
-76.02
-60.55
-41.47
-21.19
-2.01
14.49
27.61
37.42
44.30
48.69
50.91
51.20
49.93
47.64
45.00
42.64
40.99
40.11
39.79
39.71
39.61
39.37
39.01
38.54
37.82
36.58
34.48
31.30
27.06
22.08
16.78
11.50
6.29
0.96
-4.77
-11.04
-17.70
-24.40
-30.71
-36.38
-41.40
-46.05
-50.77
-56.02
-62.24
-69.51
-77.46
-85.04
-90.59
-92.23
-88.41
-78.55
-63.33
-44.51
-24.45
-5.41
11.02
24.07
33.70
40.30
44.40
46.48
46.94
46.19
44.61
42.63
40.63
38.91
37.64
36.88
36.58
36.68
37.09
37.69
38.32
38.65
38.31
36.93
34.29
30.46
25.67
20.33
14.77
9.19
3.56
-2.21
-8.28
-14.73
-21.51
-28.42
-35.25
-41.76
-47.87
-53.73
-59.66
-66.14
-73.57
-81.89
-90.36
-97.47
-101.23
-99.79
-92.04
-78.17
-59.60
-38.63
-17.77
0.94
16.28
27.91
36.13
41.62
45.09
47.10
48.12
48.40
48.14
47.52
46.73
46.03
45.59
45.57
45.96
46.74
47.82
49.00
50.01
50.44
49.84
47.84
44.36
39.63
34.10
28.32
22.65
17.17
11.75
6.14
0.19
-6.09
-12.51
-18.75
-24.51
-29.57
-34.00
-38.18
-42.75
-48.45
-55.66
-64.01
-72.10
-77.77
-78.58
-72.64
-59.34
-39.56
-15.54
9.71
33.09
52.13
65.29
72.16
73.36
70.23
64.52
58.05
52.43
48.88
48.09
50.13
54.47
60.05
65.42
69.00
69.39
65.71
57.87
46.70
33.79
21.13
10.62
3.58
0.41
0.53
2.65
5.09
6.23
4.94
0.71
-6.29
-15.34
-25.42
-35.45
-44.57
-52.23
-58.32
-63.12
-67.22
-71.42
-76.51
-82.91
-90.36
-97.72
-103.12
-104.49
-100.20
-89.71
-73.85
-54.53
-34.21
-15.14
1.08
13.76
22.90
28.91
32.31
33.59
33.20
31.64
29.48
27.40
26.03
25.79
26.78
28.76
31.25
33.72
35.79
37.27
38.16
38.51
38.33
37.53
35.99
33.54
30.12
25.71
20.39
14.30
7.69
0.92
-5.56
-11.35
-16.18
-20.11
-23.50
-26.99
-31.34
-37.22
-44.95
-54.25
-64.17
-73.10
-79.06
-80.20
-75.39
-64.57
-48.90
-30.44
-11.57
5.63
19.83
30.57
38.04
42.83
45.51
46.55
46.29
45.04
43.15
41.12
39.43
38.48
38.50
39.48
41.14
43.12
44.98
46.30
46.76
46.12
44.18
40.87
36.29
30.70
24.59
18.41
12.50
6.92
1.53
-3.97
-9.77
-15.89
-22.09
-28.07
-33.62
-38.72
-43.69
-49.09
-55.58
-63.73
-73.69
-84.86
-95.78
-104.27
-107.94
-104.99
-94.79
-78.21
-57.39
-35.05
-13.75
4.75
19.67
31.03
39.29
44.98
48.52
50.30
50.72
50.26
49.45
48.74
48.39
48.37
48.51
48.59
48.53
48.48
48.67
49.27
50.20
51.05
51.22
50.10
47.34
43.06
37.73
32.03
26.58
21.74
17.49
13.54
9.41
4.71
-0.79
-7.02
-13.68
-20.34
-26.58
-32.17
-37.23
-42.25
-48.02
-55.36
-64.77
-75.99
-87.84
-98.27
-104.75
-105.05
-97.92
-83.57
-63.65
-40.79
-17.77
3.13
20.58
34.15
44.05
50.81
54.91
56.84
57.07
56.18
54.79
53.46
52.63
52.45
52.87
53.65
