1530649957.00
64.000000
-0.00
-0.00
-0.00
-0.00
-0.00
-0.00
-0.00
-0.00
-0.00
-0.00
0.00
0.01
0.01
-0.00
-0.03
-0.05
-0.05
0.00
0.13
0.36
0.66
1.01
1.37
1.72
2.06
2.40
2.79
3.24
3.80
4.43
5.08
5.70
6.27
6.81
7.36
8.02
8.83
9.89
11.12
12.41
13.66
14.80
15.90
17.11
18.61
20.53
23.07
26.02
29.12
32.10
34.85
37.48
40.31
43.78
48.17
53.83
60.39
67.33
74.14
80.52
86.62
92.95
100.17
108.76
119.18
130.88
143.11
155.11
166.46
177.34
188.38
200.82
213.17
227.49
244.27
263.69
284.81
305.07
320.41
326.21
318.84
297.00
262.59
219.23
171.36
122.70
75.45
30.37
-12.65
-53.82
-93.24
-130.46
-165.35
-197.85
-227.76
-254.63
-277.86
-297.08
-312.34
-324.45
-334.69
-344.99
-357.11
-371.99
-389.12
-406.00
-418.83
-423.49
-416.86
-397.91
-368.36
-332.08
-293.79
-257.55
-225.71
-198.62
-175.13
-153.66
-133.02
-113.01
-94.16
-77.19
-62.41
-49.47
-37.50
-25.62
-13.53
-1.70
8.74
16.63
21.49
23.92
25.46
27.87
32.28
38.50
45.06
49.85
51.35
49.44
45.66
42.43
41.72
43.97
47.75
50.57
50.31
46.53
40.74
35.59
33.32
34.51
37.70
40.33
40.21
36.78
31.40
26.50
24.12
24.80
27.26
29.22
28.75
25.40
20.50
16.31
14.77
16.24
19.38
21.86
21.75
18.68
13.98
9.94
8.38
9.64
12.36
14.44
14.25
11.60
7.74
4.59
3.54
4.68
6.80
8.10
7.26
4.11
-0.32
-4.41
-6.96
-7.81
-7.90
-8.62
-10.96
-14.86
-19.27
-22.82
-24.74
-25.48
-26.43
-29.06
-33.99
-40.42
-46.64
-51.01
-53.00
-53.66
-55.13
-59.39
-67.07
-76.72
-85.15
-88.66
-84.55
-72.47
-54.78
-35.83
-20.34
-11.64
-10.47
-14.77
-20.88
-25.03
-24.69
-19.04
-8.61
5.52
22.46
41.66
62.59
84.20
104.82
122.51
135.66
143.59
146.75
146.39
144.00
140.70
136.89
132.33
126.46
118.87
109.61
99.25
88.67
78.74
70.01
62.56
56.05
50.01
44.02
37.93
31.86
26.12
21.04
16.80
13.36
10.56
8.11
5.84
3.61
1.47
-0.50
-2.19
-3.54
-4.55
-5.28
-5.81
-6.21
-6.54
-6.80
-7.00
-7.11
-7.14
-7.08
-6.97
-6.77
-6.51
-6.20
-5.84
-5.47
-5.11
-4.82
-4.59
-4.52
-4.69
-5.12
-5.83
-6.82
-8.02
-9.35
-10.70
-11.94
-12.93
-13.56
-13.74
-13.42
-12.60
-11.33
-9.71
-7.85
-5.93
-4.10
-2.49
-1.17
-0.15
0.62
1.20
1.66
1.99
2.20
2.26
2.14
1.91
1.61
1.37
1.26
1.29
1.42
1.53
1.51
1.27
0.84
0.34
-0.04
-0.14
0.09
0.56
0.98
1.04
0.55
-0.43
-1.58
-2.43
-2.54
-1.82
-0.52
0.71
1.15
0.39
-1.44
-3.65
-5.25
-5.42
-3.94
-1.36
1.13
2.23
1.25
-1.58
-5.09
-7.65
-7.97
-5.88
-2.27
1.36
3.42
3.21
0.90
-2.90
-7.61
-12.37
-15.50
-14.21
-5.78
10.63
32.30
53.12
65.98
66.22
54.18
35.14
16.50
4.06
-0.60
0.22
2.60
3.84
3.84
4.29
6.89
11.78
17.42
21.63
23.21
22.24
20.20
19.15
20.49
24.47
30.20
36.13
40.66
43.08
43.53
42.96
42.45
42.66
43.49
44.17
43.57
40.65
35.03
27.00
17.42
7.31
-2.48
-11.45
-19.50
-26.25
-32.15
-37.21
-41.29
-44.12
-45.49
-45.44
-44.17
-42.32
-40.09
-37.84
-35.76
-33.85
-32.05
-30.29
-28.50
-26.70
-24.96
-23.29
-21.84
-20.59
-19.49
-18.46
-17.43
-16.36
-15.28
-14.29
-13.49
-13.03
-12.90
-13.03
-13.20
-13.27
-13.15
-12.88
-12.75
-13.05
-14.04
-15.73
-17.88
-20.01
-21.70
-22.73
-23.24
-23.82
-25.13
-27.73
-31.67
-36.43
-41.10
-44.82
-47.11
-48.14
-48.80
-50.13
-52.82
-56.79
-61.10
-64.30
-65.19
-63.60
-59.63
-54.46
-49.62
-46.44
-45.90
-48.58
-54.32
-61.68
-67.40
-66.78
-55.37
-31.01
4.58
45.86
85.43
116.89
137.23
147.32
150.44
149.93
147.39
142.58
134.45
122.58
107.75
91.60
75.61
60.10
45.06
29.65
13.15
-4.27
-21.53
-37.11
-49.72
-58.83
-64.86
-68.88
-72.44
-76.65
-81.95
-88.08
-94.27
-99.83
-104.37
-107.99
-110.87
-113.62
-116.40
-118.81
-120.09
-119.14
-114.97
-106.87
-94.90
-78.71
-58.80
-35.90
-10.89
15.18
41.33
66.48
89.64
109.03
124.42
135.53
142.51
145.73
145.61
142.77
137.73
130.89
122.48
113.29
102.80
90.86
77.96
63.87
48.86
33.48
18.46
4.66
-6.91
-15.68
-21.06
-22.84
-21.23
-16.70
-10.03
-2.26
5.54
12.46
17.66
20.76
21.60
20.30
17.31
13.36
9.19
5.54
2.95
1.73
2.06
3.72
6.35
9.48
12.65
15.49
17.72
19.15
19.84
20.05
19.80
19.27
18.42
17.29
15.79
13.81
11.10
7.59
3.40
-1.82
-8.18
-16.17
-25.86
-37.25
-50.15
-64.28
-80.23
-96.22
-110.78
-122.16
-130.04
-133.87
-133.47
-128.83
-120.38
-108.10
-92.15
-73.50
-52.12
-29.81
-7.55
13.52
32.24
47.73
60.12
69.66
76.02
80.67
83.00
83.75
83.81
84.61
83.22
79.88
75.62
65.33
59.13
56.03
56.05
58.64
62.86
67.95
73.62
79.24
76.76
62.60
35.38
-0.25
-37.72
-71.28
-96.87
-112.53
-116.01
-109.11
-92.03
-67.08
-36.93
-6.13
20.05
39.26
48.80
50.72
49.30
50.64
57.56
69.54
82.47
85.42
72.90
46.22
11.75
-25.19
-62.43
-101.54
-143.11
-183.77
-215.50
-229.85
-221.29
-189.71
-141.36
-84.79
-27.39
27.68
81.76
130.35
170.81
200.38
216.74
218.87
208.31
188.71
164.46
139.24
115.10
93.66
75.46
60.21
47.11
35.52
25.27
16.59
9.63
4.10
0.18
-2.30
-3.96
-5.53
-7.53
-10.00
-12.46
-14.32
-15.11
-14.29
-11.91
-8.66
-5.58
-3.65
-3.26
-4.07
-5.27
-5.81
-4.83
-2.12
1.83
6.21
9.91
11.39
9.94
3.89
-6.73
-19.59
-30.56
-35.41
-32.15
-22.84
-13.02
-9.48
-15.69
-30.01
-46.49
-57.89
-59.85
-51.80
-36.83
-19.64
-4.75
4.18
4.27
-6.51
-27.97
-56.02
-82.53
-97.67
-93.80
-69.17
-28.99
17.11
59.56
92.42
114.63
128.55
136.60
139.72
137.55
129.97
118.50
106.37
96.95
91.86
90.14
88.24
82.15
69.10
48.37
20.74
-12.69
-51.28
-94.73
-138.63
-176.66
-200.69
-203.04
-179.42
-131.46
-66.97
2.28
64.49
111.44
139.86
151.27
150.03
140.89
127.32
110.96
91.99
69.53
42.20
8.28
-33.00
-80.32
-129.75
-174.99
-208.79
-225.16
-221.44
-199.21
-163.72
-121.76
-79.58
-41.75
-11.47
8.75
16.72
11.29
-6.44
-32.45
-60.27
-82.78
-94.56
-93.76
-81.91
-62.55
-39.30
-15.28
6.44
21.95
27.04
18.74
-3.48
-36.56
-74.54
-110.34
-138.18
-154.37
-157.45
-146.83
-122.26
-85.36
-40.69
4.13
40.11
59.42
58.74
39.49
7.04
-26.64
-50.13
-56.93
-49.01
-34.14
-20.12
-9.45
-1.12
7.26
17.14
27.23
34.36
35.34
28.47
11.82
-11.56
-37.53
-61.12
-76.89
-80.46
-69.75
-45.66
-8.52
32.45
67.89
91.77
103.39
106.14
104.34
100.78
96.29
90.71
83.65
76.87
72.54
72.24
75.90
82.82
90.04
95.19
97.50
97.60
98.14
101.71
109.36
119.86
129.96
135.43
133.18
122.53
105.26
85.60
68.05
55.60
49.05
47.40
48.77
51.83
55.86
61.27
69.11
80.03
93.21
106.85
118.66
126.19
127.34
120.75
105.97
83.86
56.76
27.22
-0.93
-23.27
-36.38
-39.38
-34.29
-25.64
-18.29
-15.72
-21.19
-34.39
-51.83
-69.03
-83.14
-93.65
-102.59
-111.68
-120.94
-131.90
-143.47
-153.25
-160.13
-166.30
-175.91
-194.32
-224.30
-265.62
-320.17
-385.45
-454.36
-516.66
-562.17
-582.61
-575.58
-542.86
-463.92
-340.22
-192.60
-49.76
69.44
156.44
223.28
278.78
327.35
370.29
400.22
412.80
408.87
393.92
374.65
356.65
340.26
322.67
299.12
258.72
200.55
134.80
77.15
38.70
21.22
17.62
19.31
20.36
17.75
13.29
10.40
11.40
15.74
21.17
24.59
24.47
19.37
10.39
0.01
-9.54
-17.23
-23.70
-30.32
-38.65
-45.64
-51.41
-55.87
-58.38
-58.41
-56.10
-52.33
-48.17
-44.49
-41.56
-39.71
-38.33
-36.80
-34.69
-32.14
-29.56
-27.38
-25.78
-24.69
-24.36
-24.49
-24.85
-25.15
-25.43
-25.79
-26.29
-26.96
-27.77
-29.02
-30.70
-32.87
-35.22
-37.57
-39.59
-40.99
-41.42
-40.79
-39.27
-36.97
-34.92
-32.13
-28.02
-22.03
-13.94
-3.83
7.62
19.24
30.33
39.37
45.99
50.46
53.67
56.39
59.17
61.65
62.77
61.23
56.03
47.40
36.34
24.56
13.13
2.83
-6.81
-17.10
-29.37
-44.54
-62.49
-82.62
-102.89
-121.64
-135.52
-140.60
-133.53
-113.27
-82.26
-45.87
-10.88
18.50
40.46
56.48
69.19
80.67
91.57
101.03
108.33
113.74
118.88
124.59
132.83
144.04
156.98
168.96
175.84
173.36
158.42
131.06
94.92
56.90
24.26
2.02
-8.88
-11.26
-9.51
-7.22
-5.55
-3.77
-0.60
3.96
8.32
10.24
8.11
2.01
-6.70
-15.83
-23.57
-29.35
-33.85
-38.47
-44.36
-51.96
-59.98
-67.53
-73.07
-75.53
-74.62
-70.83
-65.12
-58.18
-51.10
-43.22
-34.31
-24.01
-12.42
-0.18
11.68
22.05
30.13
35.34
37.70
37.19
34.32
29.59
23.25
15.64
7.12
-1.70
-10.28
-17.10
-22.33
-25.86
-27.71
-28.27
-27.64
-26.77
-24.78
-21.31
-16.16
-9.70
-2.60
4.06
8.79
10.65
9.24
5.03
-1.20
-8.48
-16.24
-24.31
-31.82
-40.24
-50.20
-61.54
-73.18
-83.68
-91.83
-97.09
-99.85
-101.29
-103.07
-106.42
-112.31
-121.25
-133.26
-146.99
-159.32
-165.60
-161.23
-144.22
-116.26
-82.86
-51.12
-26.88
-12.12
-4.68
0.04
6.44
16.53
29.94
44.86
59.71
74.05
88.51
103.84
119.16
133.62
145.39
152.68
154.60
151.48
144.83
136.84
129.68
124.76
122.87
122.67
122.45
120.63
116.53
110.45
103.67
97.77
93.97
92.93
94.59
98.70
104.71
111.19
115.32
113.28
101.50
78.79
47.58
13.49
-16.68
-37.84
-48.60
-51.30
-49.90
-47.78
-46.06
-43.96
-40.44
-35.70
-31.62
-30.82
-35.19
-44.64
-57.25
-70.10
-80.88
-88.79
-94.91
-101.35
-110.14
-122.37
-137.29
-154.24
-171.61
-187.10
-197.42
-198.73
-187.83
-163.74
-128.89
-88.95
-50.32
-17.67
7.13
25.30
39.76
53.04
65.86
77.18
85.53
90.15
91.63
91.26
90.11
88.24
84.79
78.72
69.39
57.35
44.04
31.25
20.51
12.48
6.86
2.61
-1.45
-6.18
-11.83
-17.94
-23.82
-28.68
-32.27
-34.83
-37.03
-39.60
-43.06
-47.52
-52.81
-58.60
-64.28
-69.54
-74.37
-78.99
-83.70
-88.86
-94.67
-101.30
-108.90
-117.08
-125.66
-134.53
-143.65
-153.01
-162.64
-172.56
-182.86
-193.72
-204.53
-214.78
-223.77
-230.89
-235.73
-237.97
-236.97
-231.30
-223.86
-215.13
-205.05
-193.00
-178.47
-161.30
-141.87
-120.96
-99.53
-78.53
-57.86
-37.19
-15.25
8.90
35.39
63.16
90.25
114.34
133.27
146.32
153.78
158.84
164.48
172.36
182.19
192.53
201.74
208.83
214.31
219.86
231.59
253.80
287.11
327.98
370.96
410.87
444.13
469.41
487.43
506.25
532.05
567.57
611.25
659.38
707.26
748.48
774.52
775.98
753.00
707.48
644.09
569.30
492.33
423.27
369.11
331.08
258.56
128.24
-50.40
-240.81
-407.81
-534.54
-621.15
-676.59
-711.61
-734.68
-739.96
-726.18
-694.93
-653.22
-609.95
-572.05
-543.21
-523.59
-510.24
-492.15
-466.27
-431.74
-392.65
-354.89
-323.06
-299.35
-283.59
-273.86
-263.70
-248.62
-226.43
-198.75
-168.88
-139.69
-112.77
-88.42
-65.98
-42.58
-16.48
12.98
44.25
74.86
102.65
126.34
145.78
161.72
176.10
190.66
207.20
226.83
250.05
276.57
304.87
332.02
354.18
367.70
370.45
362.69
346.58
325.14
301.17
276.46
251.71
227.10
202.84
179.64
158.32
139.32
122.41
106.79
91.67
76.78
62.54
50.00
40.67
35.51
34.32
35.66
37.43
37.63
35.05
29.57
22.06
14.64
8.97
5.48
3.40
1.58
-0.53
-2.57
-3.53
-2.32
3.33
14.10
28.43
42.88
53.84
59.08
58.21
52.30
43.24
35.86
33.78
37.93
46.59
57.14
67.75
77.81
87.56
97.77
113.06
136.81
169.04
205.81
241.02
268.66
284.00
284.36
247.94
167.75
55.45
-63.22
-164.73
-238.88
-287.57
-317.96
-336.72
-347.69
-348.49
-337.06
-314.56
-286.15
-258.37
-236.00
-221.07
-213.25
-210.79
-208.73
-202.95
-191.19
-172.71
-147.08
-114.15
-75.86
-37.50
-7.01
10.02
11.44
-0.22
-18.74
-36.74
-48.79
-53.48
-53.18
-51.88
-51.23
-50.80
-49.10
-45.30
-40.33
-36.30
-35.62
-39.44
-47.67
-57.66
-67.00
-74.90
-82.10
-89.55
-96.62
-100.31
-95.08
-78.22
-49.75
-13.86
22.17
51.27
69.55
77.23
77.89
76.06
75.02
76.44
81.21
89.16
100.44
114.19
127.48
135.21
131.87
114.15
82.67
44.43
8.17
-18.65
-32.75
-35.66
-31.95
-26.51
-22.34
-19.82
-17.79
-15.42
-12.61
-10.06
-8.44
-7.84
-7.61
-7.01
-5.27
-2.33
1.02
3.78
5.11
4.63
2.88
0.80
-0.64
-0.79
0.60
2.95
5.34
6.89
7.07
5.89
3.69
0.95
-1.82
-4.37
-6.84
-9.43
-12.32
-15.47
-18.56
-20.72
-22.07
-22.48
-21.96
-20.82
-19.45
-18.21
-17.29
-16.67
-16.27
-15.93
-15.37
-14.47
-13.35
-12.26
-11.52
-11.57
-12.23
-13.22
-14.22
-14.76
-14.63
-14.02
-13.43
-13.52
-14.73
-17.09
-20.16
-23.16
-25.29
-26.15
-26.03
-25.82
-26.61
-29.20
-33.63
-39.18
-44.62
-48.83
-51.24
-52.17
-52.61
-53.75
-56.55
-61.65
-69.43
-79.72
-91.27
-101.20
-105.53
-100.41
-84.06
-58.26
-28.08
-0.24
19.71
29.53
30.80
27.28
22.84
19.81
18.47
18.31
19.04
21.30
26.25
34.67
46.04
58.78
70.92
80.53
86.88
90.24
91.49
90.84
89.27
86.65
82.22
75.89
66.66
54.71
40.94
26.78
13.54
2.28
-6.70
-13.65
-18.78
-22.74
-25.64
-27.63
-28.63
-28.63
-27.75
-26.44
-25.22
-24.29
-23.98
-24.24
-24.94
-25.58
-25.66
-24.84
-23.00
-20.20
-16.29
-11.74
-6.92
-2.30
1.94
5.54
8.22
9.65
7.86
3.75
-2.25
-8.18
-14.47
-21.12
-27.88
-34.59
-41.18
-47.67
-53.91
-60.24
-67.02
-74.34
-82.00
-89.92
-98.07
-106.50
-115.31
-124.37
-133.80
-143.69
-153.57
-162.76
-170.74
-177.12
-181.61
-183.83
-182.91
-177.40
-169.66
-159.94
-148.07
-133.97
-117.95
-100.70
-83.18
-66.17
-50.22
-35.35
-20.46
-4.34
13.98
34.91
58.26
83.39
109.48
135.80
161.89
188.00
214.54
242.06
271.27
302.72
336.20
370.04
400.96
424.61
437.24
436.76
423.62
400.63
371.78
340.78
310.00
280.48
252.36
225.84
201.36
179.46
160.37
143.71
128.54
113.64
98.04
81.12
62.82
43.43
23.43
3.35
-16.34
-35.21
-52.86
-68.81
-82.57
-93.66
-101.80
-107.02
-109.80
-110.93
-111.32
-111.74
-112.46
-113.13
-112.84
-110.48
-105.25
-97.15
-87.13
-76.83
-67.96
-61.73
-58.39
-57.35
-57.53
-57.95
-58.10
-57.87
-57.29
-56.30
-54.57
-51.65
-47.28
-41.62
-35.30
-29.18
-23.96
-19.97
-17.15
-15.21
-13.90
-13.18
-13.16
-13.92
-15.42
-17.43
-19.50
-21.06
-21.50
-20.25
-17.06
-12.09
-6.09
-0.28
4.08
6.08
5.62
3.40
0.66
-1.30
-1.59
0.02
3.03
6.38
8.68
8.69
5.71
-0.17
-7.95
-16.01
-22.63
-26.44
-26.85
-24.02
-18.78
-12.29
-5.80
-0.36
3.31
4.87
4.27
1.72
-2.49
-8.03
-14.58
-21.68
-28.56
-34.26
-37.71
-38.17
-35.40
-29.80
-22.20
-13.68
-5.25
2.37
8.72
13.47
16.25
16.70
14.65
10.39
4.60
-1.74
-7.46
-11.53
-13.43
-13.28
-11.77
-9.83
-8.19
-7.35
-7.35
-7.66
-7.55
-6.40
-4.25
-1.57
0.86
2.46
2.51
0.01
-5.67
-14.29
-24.29
-33.41
-39.42
-42.21
-41.35
-36.58
-28.06
-16.44
-3.07
10.52
21.92
29.04
30.93
28.55
23.48
17.08
10.32
3.83
-1.78
-7.07
-13.57
-23.90
-40.98
-67.20
-102.95
-143.93
-183.03
-212.13
-225.03
-219.53
-198.06
-166.24
-130.36
-94.96
-61.62
-29.86
1.45
32.41
61.87
88.00
109.44
125.99
138.72
149.18
158.14
165.01
167.66
163.64
151.42
131.43
106.31
80.18
57.42
41.19
32.54
29.98
29.68
26.32
14.67
-8.50
-42.58
-82.36
-119.10
-142.94
-145.91
-124.19
-79.08
-16.38
55.24
126.01
186.89
230.99
254.80
258.78
247.06
225.99
201.85
178.81
157.92
137.81
116.39
92.67
67.85
45.01
27.85
19.22
19.80
27.50
37.60
43.71
39.87
22.65
-7.13
-44.39
-81.17
-109.19
-122.39
-118.64
-100.32
-73.56
-46.79
-28.76
-25.79
-39.53
-65.82
-96.04
-120.90
-135.12
-140.04
-142.82
-152.55
-175.14
-210.49
-252.57
-292.71
-323.76
-342.74
-349.63
-344.77
-327.30
-295.30
-248.49
-189.74
-125.63
-64.99
-16.74
13.99
27.60
28.91
24.66
19.89
17.31
17.57
20.26
24.39
30.45
40.41
56.24
79.93
107.45
130.18
140.46
140.74
136.25
131.96
131.23
132.71
134.56
133.47
126.21
110.94
88.28
60.13
31.47
9.19
-0.52
5.07
22.97
46.05
66.50
79.88
85.32
86.66
88.77
93.41
97.72
95.97
84.14
63.31
40.15
21.79
13.36
14.73
20.94
25.55
25.26
21.84
17.23
20.18
30.51
44.27
55.21
58.09
50.92
36.89
22.93
16.33
21.87
38.64
62.09
85.38
101.85
102.80
84.76
53.26
21.14
1.11
-2.18
7.83
22.18
33.29
35.70
28.82
15.71
0.55
-14.06
-27.88
-41.88
-57.59
-76.07
-99.69
-128.77
-161.29
-194.06
-224.52
-252.33
-278.63
-304.91
-319.05
-313.11
-286.99
-248.41
-205.98
-163.18
-118.13
-66.99
-8.08
55.48
113.82
156.13
175.84
173.61
156.36
133.56
113.29
99.96
94.08
92.12
90.21
86.62
80.86
73.41
64.81
55.70
47.30
41.32
38.38
38.27
39.98
41.97
42.66
40.90
36.30
29.49
21.60
13.02
3.54
-7.32
-19.70
-32.99
-44.88
-52.98
-55.21
-50.44
-38.89
-21.91
-1.62
19.23
37.39
49.36
52.03
44.11
27.25
5.91
-14.22
-28.73
-36.47
-39.69
-42.03
-45.79
-49.88
-50.53
-43.75
-28.48
-8.00
11.24
22.59
22.33
10.86
-8.17
-30.03
-50.71
-67.31
-77.63
-79.67
-72.34
-56.68
-36.68
-18.84
-10.11
-15.22
-34.71
-64.59
-97.62
-125.74
-142.26
-143.08
-127.06
-95.42
-50.87
3.46
64.57
129.84
196.45
260.91
319.13
367.06
401.61
421.31
426.46
418.26
398.07
366.44
323.14
268.32
203.27
131.17
57.28
-11.53
-68.34
-107.84
-129.29
-137.66
-141.90
-152.21
-176.38
-216.42
-267.48
-319.62
-360.90
-382.95
-383.41
-363.58
-327.57
-281.63
-233.46
-191.46
-162.81
-149.54
-149.07
-155.10
-156.48
-142.18
-105.87
-47.46
28.19
113.90
203.71
289.55
359.02
401.03
408.46
381.41
329.30
268.62
206.96
158.29
135.55
125.24
108.15
73.46
20.83
-41.74
-103.57
-156.91
-198.00
-219.31
-219.35
-201.47
-173.14
-141.10
-108.79
-77.92
-50.27
-26.64
-8.49
1.25
3.11
0.50
-2.35
-2.35
1.33
7.48
14.75
21.29
24.34
23.31
19.93
16.58
15.10
15.86
18.04
20.75
22.94
23.17
20.44
16.16
11.94
8.95
7.56
7.49
8.28
9.26
9.88
9.65
9.01
8.52
8.63
9.46
10.92
12.77
14.51
17.71
21.14
24.31
27.01
29.20
30.82
31.82
32.17
30.49
27.52
23.27
17.99
11.77
4.72
-3.07
-11.47
-17.62
-22.42
-26.06
-28.85
-30.69
-31.57
-31.62
-31.02
-29.95
-28.56
-27.31
-25.93
-24.42
-22.70
-20.85
-19.11
-17.75
-16.98
-16.73
-17.05
-17.35
-17.25
-16.52
-15.36
-14.28
-13.90
-14.62
-16.42
-18.96
-21.32
-22.71
-22.79
-21.94
-21.09
-21.34
-23.37
-27.16
-31.99
-36.50
-39.64
-40.91
-40.78
-40.28
-40.56
-42.47
-46.64
-53.46
-62.69
-72.94
-81.23
-83.47
-75.93
-57.54
-30.22
0.54
27.95
46.77
55.21
55.17
50.46
44.62
39.29
34.33
28.76
22.24
15.51
9.90
6.33
4.62
3.58
1.76
-1.91
-7.45
-13.82
-19.42
-22.78
-23.12
-20.63
-16.19
-10.94
-5.63
-0.41
5.20
11.99
20.55
30.86
42.05
52.70
61.31
66.79
68.84
67.94
65.15
61.64
58.37
55.59
52.97
49.87
45.77
40.63
34.96
29.77
26.03
24.54
25.09
26.73
28.14
28.06
25.82
21.39
15.46
9.42
5.49
5.74
11.29
21.35
32.56
39.34
35.77
18.13
-14.51
-55.96
-97.75
-131.60
-151.54
-154.54
-140.64
-112.49
-75.00
-34.67
1.71
28.04
42.23
44.36
37.53
26.19
14.21
3.75
-4.32
-9.86
-13.24
-14.80
-14.89
-13.98
-12.64
-11.28
-10.17
-9.26
-8.32
-7.54
-7.35
-7.74
-8.56
-9.51
-10.16
-10.28
-9.81
-9.03
-8.39
-8.19
-7.53
-5.11
0.52
10.43
24.93
43.60
65.79
91.46
116.78
141.17
165.27
190.27
217.72
249.29
286.44
329.66
377.15
423.84
462.52
485.21
486.57
466.81
432.03
391.75
354.48
323.99
298.34
272.76
242.61
206.28
165.50
123.56
82.95
43.97
4.94
-36.33
-80.82
-128.19
-176.79
-224.50
-269.41
-310.28
-346.46
-378.02
-405.55
-429.95
-452.83
-476.22
-502.87
-535.71
-576.76
-625.20
-675.98
-720.18
-747.50
-750.16
-725.69
-677.94
-615.37
-547.64
-482.17
-422.19
-367.58
-316.87
-269.34
-224.64
-182.84
-143.72
-106.66
-70.99
-35.35
0.83
37.16
71.57
103.60
133.79
163.04
190.98
215.21
233.27
241.18
234.58
209.14
167.56
118.11
72.14
39.36
25.32
33.37
61.20
101.32
140.47
171.02
190.72
202.66
211.89
224.25
248.57
289.50
344.70
401.40
450.03
484.44
503.47
508.49
477.34
401.49
290.92
196.27
129.00
86.94
54.90
26.05
-2.92
-31.60
-53.09
-61.72
-57.23
-49.74
-46.60
-51.85
-64.07
-78.98
-90.68
-91.22
-76.97
-50.47
-21.81
3.06
22.42
38.43
53.27
68.10
85.08
105.65
130.53
157.73
187.14
217.97
247.84
272.05
285.80
287.23
277.26
258.45
232.30
200.60
164.48
124.96
83.22
41.25
2.07
-31.53
-58.01
-77.88
-92.80
-105.22
-117.58
-131.33
-146.12
-159.68
-168.86
-171.34
-167.02
-158.34
-149.18
-142.95
-140.99
-142.15
-143.78
-143.36
-139.92
-134.20
-128.00
-122.84
-119.21
-116.41
-113.24
-108.77
-102.80
-95.89
-88.90
-82.52
-76.97
-71.97
-67.05
-61.89
-56.55
-51.45
-47.15
-44.04
-42.15
-41.19
-40.70
-40.13
-38.99
-36.83
-33.35
-28.47
-22.37
-15.54
-8.56
-1.97
3.94
9.27
14.39
19.73
25.59
31.89
38.19
43.88
48.43
51.65
53.81
55.54
57.39
59.52
61.52
62.64
62.21
59.87
55.68
49.91
42.77
34.23
24.27
13.14
1.54
-9.67
-20.04
-30.00
-40.84
-53.94
-69.72
-86.93
-102.83
-114.37
-119.58
-118.64
-113.74
-108.07
-104.40
-104.06
-106.66
-110.64
-114.17
-115.72
-114.39
-109.92
-102.63
-93.29
-82.96
-72.57
-62.42
-52.08
-40.49
-26.76
-10.89
5.92
21.60
34.07
42.19
46.12
47.09
46.74
46.26
45.99
45.36
43.28
38.54
30.03
17.03
-0.36
-20.53
-39.77
-52.72
-54.07
-41.24
-16.51
12.77
36.49
45.99
38.13
17.04
-7.45
-23.75
-22.98
-1.73
37.74
89.33
145.57
199.61
246.22
281.98
305.31
316.34
316.69
309.18
297.11
283.71
271.62
262.50
256.91
254.25
252.87
250.40
244.40
233.05
215.51
191.68
162.45
129.27
94.04
58.59
24.63
-6.07
-32.32
-54.19
-74.12
-96.47
-125.83
-164.18
-208.66
-251.24
-280.87
-287.83
-267.16
-220.68
-154.40
-74.98
12.38
103.55
193.31
274.09
336.22
371.77
375.95
351.67
308.95
260.64
216.95
182.03
155.36
132.46
109.81
81.51
45.04
1.99
-43.50
-87.37
-127.78
-163.10
-195.09
-224.26
-257.54
-299.42
-349.34
-402.92
-454.95
-502.67
-543.24
-579.41
-612.28
-651.18
-702.30
-765.43
-835.78
-907.19
-976.40
-1039.79
-1101.25
-1098.74
-995.80
-799.29
-557.24
-324.87
-134.05
-13.97
55.02
86.87
92.80
72.68
28.29
-23.10
-64.20
-79.76
-62.62
-2.11
88.36
186.07
261.85
299.54
305.65
294.69
279.45
267.52
265.37
265.28
264.82
260.25
250.43
236.68
220.00
201.52
181.52
161.18
138.13
113.24
86.98
60.93
37.26
16.79
-0.06
-13.33
-22.68
-29.71
-34.02
-35.09
-32.14
-24.68
-13.67
-0.59
12.85
25.29
34.98
41.79
46.57
50.68
55.32
60.77
66.79
72.92
78.71
83.83
88.86
94.93
103.49
115.74
132.09
152.05
174.45
197.72
220.49
242.05
262.46
282.46
303.35
326.67
353.79
385.15
419.52
453.52
481.93
498.93
499.92
483.19
450.51
406.49
356.86
306.83
259.88
217.78
181.07
149.90
124.26
103.89
87.83
74.38
61.40
47.08
30.66
12.81
-4.44
-18.68
-28.05
-32.29
-33.03
-33.35
-36.71
-45.62
-60.64
-79.94
-99.80
-115.71
-124.02
-123.17
-114.24
-100.56
-86.41
-75.39
-69.23
-67.51
-68.09
-68.40
-66.60
-62.43
-57.60
-55.58
-60.90
-77.67
-107.80
-149.32
-195.93
-238.28
-266.95
-275.60
-262.98
-232.97
-192.35
-148.12
-105.35
-66.76
-33.56
-6.71
12.34
22.08
22.01
13.75
1.02
-11.39
-19.29
-20.49
-15.08
-5.17
6.47
17.74
27.97
37.72
47.87
58.66
69.23
78.23
84.18
86.23
84.63
80.76
76.62
74.13
74.62
78.32
85.25
94.29
103.57
111.37
117.11
121.63
126.54
133.60
143.53
157.47
174.45
191.66
205.69
214.20
216.56
212.96
204.21
190.80
175.89
161.67
148.99
137.75
127.77
119.35
112.40
107.70
106.26
112.96
130.13
155.59
182.25
200.68
202.89
184.65
148.86
81.20
-13.93
-116.57
-201.81
-256.53
-284.24
-291.96
-292.10
-289.75
-284.79
-271.82
-247.91
-215.78
-180.07
-145.31
-114.07
-87.89
-67.45
-54.94
-51.03
-62.47
-91.39
-132.34
-174.09
-205.54
-221.17
-220.51
-207.33
-185.61
-160.21
-135.48
-115.05
-101.19
-94.09
-92.41
-93.44
-94.70
-93.66
-88.90
-79.93
-67.72
-54.66
-43.80
-37.67
-36.91
-40.15
-44.25
-45.87
-42.67
-34.59
-23.84
-14.14
-9.11
-11.04
-19.70
-32.39
-43.47
-46.64
-37.21
-14.04
19.70
57.84
92.61
116.23
123.59
113.79
90.38
61.15
36.26
23.30
25.87
41.09
60.42
73.37
72.07
54.80
26.89
-2.92
-27.70
-44.60
-53.94
-55.59
-46.53
-22.65
16.86
67.58
118.80
155.92
166.68
146.96
103.13
49.02
-1.21
-39.64
-63.74
-76.00
-82.07
-87.98
-98.44
-116.94
-140.96
-170.88
-209.14
-253.73
-297.26
-329.42
-340.53
-324.75
-282.13
-218.85
-133.51
-42.99
31.09
77.67
100.36
108.94
111.00
110.16
107.24
101.68
91.80
79.46
68.48
62.11
60.83
62.19
63.83
64.14
62.12
56.44
48.80
43.26
42.95
48.59
57.85
68.45
78.51
86.73
91.93
95.28
99.05
106.27
117.97
132.43
148.92
167.60
188.75
211.31
233.68
244.82
240.62
229.85
216.06
204.21
199.22
203.86
214.23
225.93
233.64
234.52
227.45
211.86
189.20
161.04
128.32
91.75
52.87
13.49
-23.66
-57.14
-87.78
-116.43
-143.88
-170.52
-196.35
-220.83
-243.84
-265.20
-285.88
-308.51
-335.36
-367.22
-402.24
-435.54
-460.09
-469.35
-459.54
-431.68
-391.29
-345.76
-301.87
-264.23
-235.08
-215.06
-203.94
-200.10
-200.29
-199.55
-192.59
-175.97
-149.72
-116.95
-81.63
-46.15
-10.51
26.62
65.55
104.00
137.69
162.45
176.43
180.42
176.02
163.16
139.19
100.82
47.71
-14.72
-75.79
-123.19
-148.08
-148.77
-131.16
-105.61
-82.49
-68.18
-63.63
-65.28
-67.61
-65.37
-55.31
-36.48
-9.98
21.99
57.02
93.25
129.77
166.77
205.29
246.60
291.18
337.72
382.33
419.52
444.02
452.76
446.20
428.26
404.64
380.25
357.12
333.43
305.84
271.64
229.72
180.85
127.21
71.75
17.69
-31.30
-72.01
-99.82
-110.58
-103.78
-84.95
-64.18
-51.54
-52.00
-62.76
-76.94
-85.06
-81.48
-68.71
-56.71
-57.10
-76.74
-115.17
-166.37
-225.02
-283.97
-334.92
-369.20
-379.63
-362.18
-317.76
-252.86
-164.52
-67.54
16.76
75.44
110.37
130.39
143.31
153.43
162.20
168.89
167.70
156.17
131.79
94.80
48.17
-2.54
-50.08
-88.23
-107.82
-109.55
-98.88
-82.01
-63.11
-44.70
-28.17
-14.34
-3.81
3.17
5.05
2.74
-1.05
-3.22
-2.34
1.14
5.77
10.03
12.99
13.32
11.39
8.81
7.31
7.59
9.18
11.06
12.31
12.58
11.54
9.75
8.26
7.83
8.43
9.34
9.71
9.02
7.48
5.73
4.69
5.17
7.28
10.21
12.66
13.40
11.99
8.97
5.63
2.98
1.93
2.04
1.88
-0.35
-6.10
-16.14
-30.28
-46.77
-63.17
-75.49
-79.38
-71.68
-52.10
-23.99
6.70
33.56
52.34
62.17
65.23
64.78
63.55
62.77
62.71
62.69
61.47
57.31
47.74
30.63
5.46
-25.59
-57.36
-84.09
-101.34
-107.27
-102.59
-89.08
-68.09
-40.77
-9.64
20.11
40.99
46.34
34.36
10.29
-15.07
-30.08
-27.92
-10.03
15.35
38.08
51.39
54.88
53.29
52.48
56.44
65.25
75.85
84.16
86.67
81.17
66.84
44.35
16.34
-13.03
-39.31
-59.21
-72.02
-79.45
-84.15
-87.46
-88.37
-83.96
-71.37
-49.80
-21.29
10.13
39.99
64.78
82.77
93.55
97.59
95.58
88.46
77.65
65.23
53.51
44.17
37.59
32.57
26.74
17.50
3.29
-15.54
-36.63
-56.45
-71.85
-80.94
-83.94
-82.89
-80.59
-79.35
-79.90
-81.38
-81.97
-80.35
-75.96
-69.37
-61.88
-54.78
-48.93
-44.91
-43.37
-43.61
-46.17
-50.82
-55.96
-58.95
-57.34
-50.36
-39.59
-28.26
-19.62
-15.48
-15.21
-16.73
-18.26
-19.61
-22.15
-27.21
-34.21
-39.59
-38.03
-25.01
-0.04
31.65
60.19
74.89
68.68
41.21
-1.27
-48.84
-91.79
-123.92
-143.61
-153.08
-156.47
-158.18
-161.77
-169.44
-181.71
-197.10
-212.49
-223.91
-227.84
-222.36
-207.53
-185.01
-157.20
-126.21
-93.54
-60.43
-28.62
-0.86
19.64
30.69
32.86
30.22
29.48
37.46
58.23
91.48
133.10
177.58
221.13
263.36
306.66
353.83
405.26
457.68
505.07
541.14
561.92
566.92
558.52
540.25
514.90
483.37
445.11
399.24
345.66
285.48
220.69
153.76
87.55
25.61
-27.59
-67.25
-89.94
-95.54
-88.22
-75.64
-66.09
-65.30
-74.41
-90.25
-107.65
-122.28
-132.52
-139.56
-145.95
-153.93
-164.36
-176.73
-189.71
-201.84
-211.73
-218.17
-220.08
-216.79
-208.22
-195.04
-178.57
-160.45
-142.32
-125.62
-111.44
-100.45
-92.70
-87.41
-83.01
-77.39
-68.56
-55.53
-38.89
-20.96
-5.22
4.75
6.54
-0.18
-13.54
-29.97
-45.29
-55.79
-59.00
-54.14
-42.02
-24.73
-5.07
14.12
30.61
43.15
51.56
56.51
59.01
59.95
59.85
58.80
56.65
53.19
48.30
41.87
33.78
23.99
12.62
0.20
-12.22
-23.30
-31.67
-36.43
-37.56
-35.93
-33.09
-30.79
-30.39
-32.44
-36.48
-41.30
-45.40
-47.56
-47.24
-44.66
-40.48
-35.46
-30.02
-24.27
-18.23
-12.25
-7.27
-4.96
-7.39
-16.32
-32.26
-53.52
-75.98
-93.74
-100.80
-92.93
-69.14
-32.10
12.59
58.03
97.86
127.54
144.93
150.39
146.37
136.99
127.34
122.23
124.61
134.29
147.87
160.15
166.59
165.32
157.76
147.32
136.85
126.52
113.54
93.83
64.71
27.23
-13.69
-50.95
-77.89
-90.62
-88.90
-75.76
-56.09
-35.35
-18.30
-8.23
-6.50
-12.59
-24.49
-39.35
-54.22
-66.52
-74.40
-76.83
-73.75
-66.37
-57.14
-49.24
-45.65
-48.04
-56.30
-68.83
-83.67
-99.80
-117.95
-140.37
-169.54
-206.13
-247.47
-287.20
-316.65
-327.47
-314.50
-277.68
-221.89
-155.21
-85.90
-19.83
40.69
96.26
148.27
196.82
239.66
272.75
292.16
295.97
285.62
265.63
241.98
220.05
202.74
189.86
178.86
166.44
150.18
129.61
106.11
81.91
58.89
37.88
18.93
2.20
-11.13
-18.64
-17.66
-6.99
11.82
34.34
54.85
68.58
73.66
71.34
64.81
57.37
51.01
46.31
43.17
41.66
42.38
46.01
52.58
61.04
69.46
75.84
78.89
78.53
75.85
72.49
69.99
69.14
69.68
70.44
69.79
66.37
59.48
49.23
36.31
21.72
6.57
-7.91
-20.25
-29.10
-33.44
-32.86
-27.66
-18.45
-5.95
9.14
25.61
41.11
51.72
52.64
39.68
11.17
-30.83
-80.66
-130.69
-173.56
-204.17
-220.51
-223.31
-215.03
-198.79
-177.73
-154.86
-132.95
-114.39
-100.80
-92.56
-88.73
-87.36
-86.26
-83.58
-78.44
-71.11
-62.69
-54.70
-48.42
-44.50
-42.73
-42.28
-41.99
-40.99
-38.96
-36.27
-33.87
-32.93
-34.40
-38.67
-45.40
-53.55
-61.67
-68.34
-72.53
-74.01
-73.47
-72.32
-72.14
-73.97
-77.83
-82.66
-86.72
-88.20
-85.92
-79.60
-69.87
-57.95
-45.18
-32.70
-21.10
-10.33
0.13
10.84
21.74
31.71
38.68
40.52
36.16
26.56
14.57
3.78
-2.88
-4.30
-1.13
5.06
13.04
22.45
33.67
46.97
61.81
76.85
90.50
101.64
109.90
115.61
119.38
121.71
122.79
122.42
120.07
115.02
106.73
95.11
80.92
65.57
50.78
37.93
27.69
20.03
14.61
11.27
10.14
11.41
14.87
19.67
24.47
27.82
28.66
26.53
21.70
15.03
7.92
2.02
-1.01
0.19
6.22
16.66
29.88
43.28
53.79
58.62
56.04
46.10
30.95
14.43
1.00
-5.81
-4.73
2.60
12.23
19.48
20.86
15.51
5.31
-6.19
-15.45
-20.61
-21.86
-20.90
-19.62
-19.08
-19.23
-19.49
-19.52
-19.67
-20.75
-23.27
-26.79
-29.77
-30.22
-26.67
-19.05
-8.79
1.64
9.78
14.05
14.18
11.11
6.48
2.08
-0.72
-1.25
0.31
3.02
5.58
6.91
6.62
5.31
4.21
4.61
7.09
10.98
14.67
16.37
15.06
11.13
6.23
2.56
1.92
5.01
10.97
17.78
22.92
24.33
21.03
13.43
3.19
-7.12
-14.68
-17.15
-13.15
-2.59
13.36
32.18
50.24
63.29
67.92
62.51
47.30
23.98
-5.33
-38.92
-76.27
-117.68
-163.00
-208.99
-248.91
-274.23
-277.93
-257.64
-216.69
-163.36
-107.72
-58.17
-17.29
17.58
50.70
83.63
113.40
133.87
138.00
121.09
82.93
30.50
-23.93
-67.12
-89.79
-88.76
-66.97
-32.37
8.32
42.98
61.83
65.58
64.60
69.45
81.27
95.74
108.15
117.13
123.44
130.61
141.36
154.64
163.30
157.85
132.08
85.75
24.31
-43.86
-109.72
-166.76
-206.72
-224.79
-221.62
-203.29
-178.54
-154.54
-134.55
-118.06
-106.29
-96.67
-90.33
-90.57
-99.97
-119.78
-150.09
-189.72
-234.82
-282.45
-328.64
-368.95
-397.64
-407.60
-394.04
-356.67
-297.70
-223.02
-141.27
-60.69
12.14
73.40
123.76
164.97
198.73
230.65
265.09
302.56
339.96
372.68
396.45
411.94
420.91
425.06
431.25
444.85
467.45
497.18
531.14
565.37
598.32
625.18
605.28
514.23
358.71
175.46
5.23
-118.63
-205.53
-267.30
-312.47
-344.55
-357.49
-345.44
-309.57
-260.15
-212.27
-180.35
-168.05
-171.00
-178.34
-175.23
-152.85
-112.09
-61.93
-13.06
27.01
59.96
91.19
126.35
167.40
208.49
238.02
244.02
220.08
167.90
98.16
16.95
-60.28
-116.79
-145.77
-152.65
-148.03
-139.55
-129.90
-117.85
-102.60
-84.28
-65.79
-51.39
-43.48
-41.34
-41.57
-40.45
-35.15
-25.13
-11.24
3.14
13.18
16.51
13.33
5.95
-2.83
-11.02
-18.14
-24.61
-31.01
-39.78
-52.06
-66.96
-81.99
-94.28
-101.92
-104.40
-102.47
-98.17
-94.13
-92.11
-92.97
-96.84
-103.26
-110.69
-116.03
-114.83
-102.91
-78.75
-44.54
-6.20
28.79
54.30
67.95
71.48
69.12
64.98
61.17
57.71
53.68
48.63
43.31
39.19
37.44
38.06
39.86
41.12
40.32
37.08
32.15
27.05
23.34
21.97
22.91
25.20
27.40
28.18
26.96
24.04
20.49
17.75
16.87
18.27
21.43
25.17
28.11
29.26
28.40
26.26
24.21
23.66
25.52
29.70
35.11
40.11
43.42
44.35
43.32
41.50
40.16
40.49
43.24
48.77
56.92
66.30
73.77
74.82
64.94
41.76
7.00
-33.80
-73.11
-104.37
-124.44
-134.34
-137.70
-138.36
-138.92
-138.86
-136.68
-131.28
-122.68
-111.91
-100.06
-87.48
-72.98
-56.49
-37.82
-17.76
2.02
19.50
32.95
41.57
45.74
46.87
46.51
46.24
46.75
47.89
49.03
49.45
48.70
46.99
44.93
43.12
42.23
42.47
43.48
44.69
45.46
45.18
43.54
40.39
35.47
28.59
19.54
8.10
-5.69
-21.42
-38.33
-55.09
-70.19
-82.23
-90.02
-92.85
-90.59
-83.59
-71.99
-57.51
-41.57
-25.49
-10.41
2.79
13.47
21.29
26.24
28.65
29.02
28.32
27.40
26.81
26.73
26.94
26.91
26.21
24.71
22.54
20.37
18.87
18.46
19.02
19.99
20.60
20.18
18.65
16.44
14.48
13.44
13.61
14.65
15.75
15.99
14.54
10.65
3.45
-7.90
-23.48
-41.74
-59.11
-70.66
-71.73
-61.07
-41.38
-18.60
0.50
11.19
12.55
7.10
-0.87
-7.48
-10.64
-9.79
-4.79
4.92
20.03
39.99
61.69
79.54
87.13
80.85
61.75
35.65
10.64
-6.39
-12.63
-9.86
-2.68
4.42
9.07
11.45
13.04
15.10
17.75
20.23
21.64
21.82
21.38
21.40
22.89
26.11
30.51
35.14
39.09
41.90
43.67
45.07
46.85
49.39
52.43
55.06
56.08
54.48
49.71
41.87
31.65
20.00
7.85
-3.76
-14.61
-24.51
-33.24
-40.62
-46.38
-50.24
-52.13
-52.47
-51.39
-49.43
-47.10
-44.73
-42.53
-40.57
-38.76
-37.05
-35.44
-33.84
-32.42
-31.21
-30.13
-29.08
-28.07
-26.97
-25.76
-24.44
-23.07
-21.83
-20.80
-19.94
-19.15
-18.47
-17.74
-16.96
-16.14
-15.31
-14.53
-14.06
-13.18
-11.31
-8.27
-4.02
0.93
5.65
8.95
9.70
7.28
1.89
-4.70
-12.14
-19.51
-26.40
-32.74
-38.82
-44.93
-50.89
-56.73
-60.35
-60.58
-56.85
-49.92
-41.42
-33.51
-28.41
-27.89
-33.15
-44.48
-61.29
-79.83
-96.16
-105.30
-103.56
-90.62
-70.12
-48.38
-31.65
-24.02
-25.50
-33.37
-43.77
-53.91
-62.79
-70.59
-77.77
-83.20
-85.24
-82.08
-72.81
-57.84
-38.65
-17.15
5.19
27.64
50.13
71.94
92.75
111.64
127.26
138.29
143.91
144.14
139.93
133.44
125.85
118.37
111.57
105.41
99.47
93.33
86.79
79.97
73.27
66.96
61.42
56.71
52.65
48.94
45.34
41.70
38.05
34.53
31.23
28.35
25.91
23.87
22.14
20.66
19.36
18.20
17.21
16.36
15.71
15.24
14.96
14.85
14.91
15.14
15.49
16.01
16.66
17.45
18.30
19.09
19.65
19.76
19.56
18.47
16.25
12.78
8.02
2.07
-4.85
-12.43
-20.28
-28.00
-35.25
-41.67
-46.96
-51.00
-53.76
-55.32
-55.87
-55.62
-54.85
-53.86
-52.80
-51.79
-50.95
-50.31
-49.93
-49.76
-49.78
-49.98
-50.41
-50.90
-51.38
-51.85
-52.36
-52.98
-53.84
-55.03
-56.70
-59.06
-61.91
-65.21
-68.94
-73.16
-77.89
-83.21
-89.19
-95.92
-103.55
-111.64
-119.92
-128.20
-136.40
-144.47
-152.46
-160.47
-168.70
-177.47
-186.33
-194.98
-203.17
-210.52
-216.50
-220.26
-220.54
-215.27
-207.57
-198.08
-187.17
-175.07
-161.98
-148.03
-133.33
-117.53
-100.50
-82.58
-63.57
-43.63
-22.96
-1.92
18.92
38.68
56.76
72.30
84.17
91.89
95.26
94.62
90.81
84.92
77.98
71.99
68.13
66.38
66.18
66.75
67.65
68.80
70.26
71.98
76.94
86.53
99.67
113.71
126.23
136.22
143.87
149.83
154.44
164.26
182.78
208.61
237.19
264.68
290.19
315.08
341.07
368.71
407.81
462.59
529.06
597.83
660.63
714.06
758.50
795.87
827.37
867.81
925.37
996.96
1070.07
1130.11
1166.02
1171.76
1146.82
1015.45
758.51
415.82
61.50
-245.50
-483.52
-656.63
-776.84
-849.81
-890.46
-895.61
-866.22
-812.50
-750.01
-690.74
-638.57
-593.31
-553.45
-520.12
-484.98
-445.07
-404.21
-369.46
-345.09
-329.85
-319.14
-308.27
-295.44
-273.86
-241.65
-202.82
-164.83
-134.20
-113.92
-103.47
-100.08
-100.73
-99.26
-92.30
-80.37
-66.11
-51.59
-36.88
-21.16
-4.40
11.36
24.50
33.69
39.29
43.77
50.40
60.96
73.91
84.70
88.17
81.64
66.50
47.54
30.70
20.14
16.74
18.34
21.29
22.48
20.64
16.38
11.33
6.98
3.76
0.93
-2.62
-7.66
-13.95
-20.31
-25.11
-26.86
-24.60
-18.09
-7.71
5.64
20.66
35.74
49.04
58.80
63.62
62.72
56.22
45.20
31.50
17.24
4.34
-6.13
-14.29
-21.50
-29.82
-41.17
-56.32
-74.29
-92.51
-107.59
-116.50
-117.47
-110.29
-95.95
-76.11
-52.63
-27.64
-3.67
16.45
30.23
36.68
37.18
35.39
35.94
42.39
55.43
72.46
88.53
98.47
98.90
89.57
73.11
53.85
36.31
23.96
18.55
19.88
25.85
32.86
36.60
33.18
20.26
-1.87
-30.04
-59.00
-83.17
-98.56
-104.03
-100.93
-92.36
-82.12
-73.49
-68.53
-68.05
-72.03
-80.33
-92.94
-109.14
-127.35
-144.92
-158.25
-163.24
-156.24
-135.66
-103.16
-63.29
-21.12
19.51
56.99
91.59
124.38
155.77
184.30
206.55
213.81
199.42
163.60
115.20
66.64
27.23
0.20
-16.09
-25.71
-32.51
-37.83
-41.14
-41.33
-38.31
-33.29
-28.04
-24.01
-22.01
-22.01
-22.90
-23.29
-22.35
-20.26
-17.81
-15.67
-14.08
-12.95
-12.29
-11.64
-10.71
-9.42
-8.02
-7.10
-7.27
-8.80
-11.04
-12.13
-9.39
-0.85
13.11
29.10
41.93
47.05
42.95
31.98
19.02
8.95
4.27
4.34
6.49
8.05
8.03
7.13
6.94
8.50
11.56
15.04
17.60
18.42
17.42
15.45
13.41
12.19
12.04
12.49
12.61
11.12
6.92
-0.53
-10.85
-23.17
-35.75
-46.98
-55.87
-62.08
-66.16
-69.01
-71.50
-73.69
-76.64
-80.93
-86.70
-93.01
-97.26
-95.63
-84.60
-63.15
-33.45
-1.11
27.38
47.16
56.95
59.11
57.65
55.94
55.20
54.66
52.81
49.19
44.80
41.48
40.73
42.70
46.11
49.02
49.57
47.13
42.59
37.74
34.45
33.69
35.13
37.55
39.80
41.53
43.09
44.64
44.87
40.95
29.46
8.38
-21.20
-55.07
-87.70
-114.74
-134.46
-147.21
-153.60
-152.87
-142.91
-122.12
-91.69
-56.39
-23.08
2.20
16.96
22.95
24.47
25.94
29.88
36.49
44.65
53.35
62.24
71.37
80.43
88.47
93.91
95.48
92.70
86.47
78.79
72.74
71.27
75.94
85.56
95.78
100.00
92.06
69.18
33.59
-7.38
-44.61
-70.96
-84.27
-87.48
-86.62
-87.56
-93.88
-106.60
-124.00
-143.00
-159.69
-169.65
-168.62
-154.02
-126.42
-88.93
-49.70
-15.40
10.82
29.65
44.15
58.10
72.57
86.74
98.79
106.97
111.82
115.21
118.66
122.36
125.46
126.90
126.29
124.15
120.43
115.05
106.46
91.31
66.08
29.70
-15.44
-64.31
-111.73
-155.26
-193.44
-224.92
-247.63
-257.93
-251.13
-224.46
-179.70
-119.28
-57.26
-6.90
26.67
47.48
61.81
75.24
90.08
105.35
118.60
127.47
128.78
122.69
109.39
88.14
58.80
23.38
-13.00
-42.97
-60.25
-61.36
-47.49
-24.97
-2.53
12.58
16.63
9.21
-8.06
-33.30
-63.82
-95.59
-123.77
-143.09
-148.59
-137.23
-109.12
-67.76
-19.58
28.07
68.80
98.16
114.52
119.30
115.93
108.35
99.52
90.45
80.55
68.70
54.14
37.19
19.15
1.50
-14.87
-30.11
-45.04
-60.50
-76.57
-92.33
-105.97
-115.34
-118.62
-114.87
-104.30
-88.08
-68.05
-46.28
-24.70
-4.98
11.53
24.00
32.29
37.23
40.56
44.63
51.66
63.04
78.85
97.73
117.34
134.94
147.98
154.59
153.85
146.02
132.49
115.52
97.72
81.35
67.71
56.89
47.92
39.34
29.82
18.83
6.70
-5.45
-16.26
-24.62
-30.17
-33.35
-35.27
-37.40
-40.89
-46.12
-52.45
-58.35
-61.83
-61.11
-55.13
-43.95
-28.56
-10.67
7.78
24.92
39.15
49.24
54.39
54.39
49.68
41.37
31.06
20.51
11.27
4.28
-0.23
-2.73
-4.00
-4.75
-5.14
-4.70
-2.56
1.92
8.69
16.71
24.30
29.81
32.34
32.05
29.91
27.15
24.61
22.43
20.18
17.21
13.08
7.68
1.18
-6.14
-13.96
-21.82
-29.02
-34.67
-37.82
-37.82
-34.61
-28.84
-21.84
-15.19
-10.38
-8.49
-10.05
-14.95
-22.46
-31.38
-40.26
-47.70
-52.64
-54.57
-53.82
-51.44
-48.72
-46.75
-45.94
-46.18
-47.10
-48.50
-50.42
-53.24
-57.19
-61.97
-66.78
-70.49
-72.36
-72.25
-70.22
-66.00
-58.99
-48.60
-34.92
-19.12
-2.91
12.32
26.14
39.28
54.02
72.42
93.57
113.23
125.88
128.28
120.97
107.65
92.92
79.82
68.50
56.97
44.23
29.12
13.00
-1.43
-11.83
-17.55
-19.68
-20.29
-21.21
-22.96
-24.90
-25.50
-23.71
-19.86
-15.37
-12.39
-12.50
-15.92
-21.41
-27.05
-30.92
-31.94
-30.36
-27.51
-24.95
-23.97
-25.37
-29.74
-37.66
-49.28
-62.66
-73.97
-78.66
-73.87
-60.34
-41.66
-22.29
-5.67
6.98
16.41
24.65
32.28
38.40
41.44
40.44
35.85
29.53
24.00
21.40
22.51
25.75
29.35
31.77
32.37
31.71
31.15
32.36
36.73
44.67
55.32
66.85
76.74
82.58
82.81
77.15
66.63
53.16
38.77
24.96
12.60
1.94
-7.09
-14.61
-20.75
-25.66
-29.56
-32.61
-34.84
-35.92
-35.44
-32.98
-28.27
-21.34
-12.62
-3.10
5.60
11.37
12.29
7.50
-2.22
-14.44
-26.08
-34.88
-40.55
-44.84
-50.49
-59.48
-71.75
-84.96
-95.41
-99.66
-95.82
-84.00
-65.91
-43.94
-20.51
2.24
22.37
38.07
47.94
51.47
49.36
43.43
36.01
29.17
24.14
21.12
19.75
19.49
19.98
20.99
22.23
23.21
23.25
21.80
18.64
14.09
8.98
4.32
1.09
-0.05
1.15
4.57
9.82
16.37
23.70
31.36
38.99
46.32
53.14
59.26
64.37
68.04
69.74
69.01
65.66
59.90
52.29
43.52
34.12
24.31
14.06
3.27
-8.04
-19.68
-31.36
-42.83
-53.85
-64.05
-72.83
-79.39
-82.88
-82.82
-79.26
-72.91
-64.80
-55.97
-47.08
-38.28
-29.38
-20.02
-9.90
1.10
13.00
25.83
39.70
54.60
70.13
85.41
99.13
110.02
117.35
121.11
122.28
122.67
124.61
130.46
141.84
158.99
180.34
202.46
220.71
230.57
229.12
215.78
192.35
161.82
127.21
90.50
52.28
11.74
-31.82
-77.99
-124.97
-169.88
-210.12
-243.81
-270.06
-289.01
-302.17
-310.86
-315.68
-316.62
-313.37
-306.83
-298.18
-288.30
-277.52
-266.75
-255.88
-243.80
-228.96
-209.95
-187.52
-163.06
-137.66
-111.88
-87.33
-64.76
-43.91
-24.12
-4.56
13.36
28.26
39.93
59.68
92.71
135.82
179.04
208.03
221.90
221.26
206.26
178.14
138.18
87.34
28.74
-31.39
-84.60
-122.16
-140.02
-138.77
-122.70
-98.02
-71.37
-46.48
-23.23
0.78
27.88
56.77
83.91
105.83
120.54
127.59
127.83
122.60
112.84
98.96
80.24
56.70
29.97
2.62
-20.59
-35.73
-41.51
-38.66
-27.62
-8.38
18.12
48.21
74.99
90.57
89.57
72.47
45.87
19.66
2.25
-3.61
0.68
11.12
23.52
35.10
45.19
54.07
61.62
66.45
66.34
59.93
47.71
32.19
15.82
1.66
-8.67
-15.55
-20.81
-26.46
-33.34
-40.66
-46.49
-49.02
-47.33
-42.15
-35.30
-28.59
-22.78
-17.15
-10.23
-0.90
10.69
23.22
34.80
44.00
50.62
55.39
59.26
62.48
64.48
64.45
62.27
58.95
56.42
56.80
61.59
71.24
85.09
101.63
118.78
134.06
144.66
147.78
141.21
123.87
96.36
60.94
21.24
-18.55
-54.49
-83.88
-105.92
-121.93
-134.87
-148.26
-164.70
-184.73
-206.38
-225.96
-239.42
-243.94
-238.90
-225.93
-208.34
-190.17
-175.50
-167.70
-168.64
-177.77
-191.41
-202.92
-204.10
-187.83
-150.76
-95.11
-28.45
38.46
95.13
134.67
155.31
160.16
155.04
146.00
137.45
131.41
127.85
125.76
123.96
121.70
118.85
115.72
113.19
112.55
115.11
121.58
131.74
144.27
157.10
168.16
175.62
178.71
177.60
172.95
165.61
156.61
147.31
139.29
134.00
131.51
130.92
130.56
128.25
122.10
110.94
94.23
71.54
42.19
4.75
-40.27
-89.21
-135.82
-173.36
-197.45
-208.28
-210.81
-212.50
-220.53
-236.51
-255.46
-268.93
-269.53
-254.70
-227.66
-195.44
-158.61
-121.22
-88.08
-62.33
-44.30
-32.38
-24.37
-17.69
-9.25
3.96
21.96
44.54
70.07
95.33
116.65
131.19
137.94
137.70
132.94
126.47
119.18
113.46
110.69
110.41
110.33
107.16
97.41
79.40
53.93
24.89
-2.29
-23.45
-37.10
-44.52
-48.31
-51.58
-54.87
-55.40
-48.40
-30.36
-2.01
31.87
64.92
92.08
109.41
116.39
115.28
109.22
100.08
87.72
71.69
52.41
30.63
3.20
-34.52
-85.70
-149.49
-220.34
-289.27
-345.82
-381.50
-376.65
-324.96
-239.30
-144.02
-58.67
9.12
58.72
90.58
104.24
100.21
79.86
49.30
18.68
-2.71
-9.64
-2.76
13.36
33.17
52.59
67.69
76.54
79.69
79.42
78.33
77.07
76.15
75.98
76.49
75.84
72.08
64.66
54.83
44.68
35.76
28.76
23.54
19.46
15.26
10.17
4.26
-1.66
-6.49
-9.56
-10.57
-9.67
-7.37
-4.57
-2.13
-0.47
0.41
0.79
0.85
0.74
0.46
0.03
-0.45
-0.77
-0.66
0.13
1.69
3.82
6.10
7.96
8.94
8.81
7.73
6.14
4.51
3.19
2.28
1.72
1.44
1.43
1.74
2.36
3.18
3.93
4.33
4.14
3.31
1.92
0.12
-1.85
-3.80
-5.56
-7.00
-8.06
-8.73
-9.07
-9.16
-9.13
-9.09
-9.14
-9.32
-9.60
-9.89
-10.05
-10.01
-9.77
-9.40
-9.01
-8.63
-8.21
-7.67
-6.96
-6.15
-5.35
-4.69
-4.23
-3.94
-3.80
-3.80
-3.98
-4.42
-5.10
-5.93
-6.73
-7.30
-7.50
-7.30
-6.79
-6.08
-5.32
-4.60
-3.99
-3.50
-3.15
-2.94
-2.88
-2.99
-3.23
-3.57
-3.91
-4.13
-4.15
-3.94
-3.58
-3.23
-3.02
-3.03
-3.21
-3.43
-3.51
-3.35
-2.95
-2.43
-1.94
-1.62
-1.53
-1.61
-1.77
-1.87
-1.85
-1.67
-1.40
-1.14
-1.02
-1.15
-1.63
-2.49
-3.71
-5.16
-6.56
-7.47
-7.39
-6.01
-3.30
0.32
4.16
7.51
9.86
11.09
11.40
11.15
10.61
9.87
8.84
7.43
5.62
3.58
1.56
-0.15
-1.38
-2.15
-2.61
-3.02
-3.55
-4.25
-4.98
-5.53
-5.72
-5.54
-5.11
-4.68
-4.43
-4.44
-4.66
-5.00
-5.35
-5.65
-5.89
-6.03
-6.04
-5.95
-5.83
-5.84
-6.17
-6.93
-8.11
-9.49
-10.67
-11.14
-10.42
-8.21
-4.59
0.02
4.92
9.32
12.61
14.50
15.08
14.68
13.64
12.23
10.56
8.66
6.60
4.54
2.71
1.32
0.49
0.14
0.07
0.06
-0.08
-0.41
-0.84
-1.28
-1.60
-1.81
-1.99
-2.30
-2.89
-3.86
-5.17
-6.67
-8.10
-9.22
-9.85
-9.99
-9.78
-9.51
-9.44
-9.79
-10.65
-11.94
-13.40
-14.61
-14.98
-13.95
-11.14
-6.62
-0.92
5.07
10.40
14.38
16.74
17.67
17.55
16.76
15.51
13.90
11.98
9.86
7.75
5.88
4.41
3.37
2.69
2.24
1.89
1.58
1.33
1.15
1.05
0.95
0.74
0.34
-0.27
-0.97
-1.58
-1.89
-1.85
-1.54
-1.20
-1.02
-1.13
-1.43
-1.79
-2.07
-2.28
-2.57
-3.14
-4.13
-5.62
-7.57
-9.87
-12.28
-14.38
-15.53
-15.02
-12.36
-7.52
-1.11
5.74
11.80
16.13
18.35
18.68
17.66
15.88
13.74
11.41
9.03
6.69
4.62
3.04
2.13
1.87
2.09
2.50
2.77
2.69
2.23
1.49
0.60
-0.27
-1.10
-1.92
-2.82
-3.82
-4.85
-5.77
-6.44
-6.80
-6.92
-6.98
-7.19
-7.66
-8.40
-9.24
-10.01
-10.56
-10.89
-11.08
-11.27
-11.59
-12.07
-12.73
-13.50
-14.23
-14.65
-14.34
-12.92
-10.13
-6.08
-1.26
3.59
7.70
10.54
11.95
12.09
11.29
9.85
8.03
5.99
3.87
1.88
0.24
-0.85
-1.32
-1.24
-0.83
-0.35
-0.05
-0.04
-0.31
-0.78
-1.31
-1.82
-2.26
-2.62
-2.91
-3.10
-3.18
-3.19
-3.24
-3.43
-3.86
-4.50
-5.20
-5.76
-6.03
-6.00
-5.79
-5.60
-5.62
-5.95
-6.65
-7.63
-8.75
-9.68
-9.94
-9.01
-6.50
-2.44
2.72
8.11
12.78
16.02
17.56
17.58
16.51
14.79
12.67
10.31
7.87
5.59
3.78
2.73
2.50
2.88
3.49
3.93
3.97
3.65
3.14
2.65
2.24
1.86
1.36
0.65
-0.29
-1.33
-2.33
-3.17
-3.82
-4.33
-4.83
-5.51
-6.50
-7.84
-9.42
-10.99
-12.23
-12.91
-12.95
-12.50
-11.91
-11.59
-11.90
-13.04
-14.95
-17.19
-19.01
-19.46
-17.74
-13.47
-6.92
1.02
9.13
16.27
21.74
25.39
27.45
28.23
27.91
26.48
23.89
20.29
16.11
11.98
8.53
6.15
4.81
4.21
3.90
3.56
3.11
2.64
2.31
2.10
1.86
1.29
0.16
-1.58
-3.75
-5.98
-7.93
-9.32
-10.12
-10.49
-10.69
-11.00
-11.59
-12.46
-13.46
-14.39
-15.05
-15.35
-15.37
-15.33
-15.47
-16.04
-17.20
-18.95
-21.10
-23.15
-24.31
-23.64
-20.40
-14.35
-6.02
3.36
12.24
19.30
23.84
25.93
26.17
25.25
23.63
21.47
18.77
15.65
12.49
9.84
8.18
7.72
8.27
9.38
10.50
11.23
11.40
11.00
10.16
8.99
7.59
6.03
4.41
2.78
1.20
-0.31
-1.71
-2.96
-3.99
-4.73
-5.19
-5.44
-5.66
-6.03
-6.63
-7.44
-8.33
-9.14
-9.73
-10.11
-10.36
-10.59
-10.93
-11.42
-12.10
-13.02
-14.32
-16.08
-18.20
-20.18
-21.11
-19.91
-15.81
-8.83
0.09
9.34
17.21
22.57
25.15
25.45
24.32
22.44
20.09
17.25
13.93
10.33
6.97
4.45
3.15
3.06
3.80
4.81
5.57
5.88
5.77
5.47
5.19
5.00
4.83
4.50
3.85
2.77
1.36
-0.22
-1.69
-2.85
-3.56
-3.86
-3.86
-3.78
-3.79
-3.96
-4.33
-4.82
-5.39
-5.93
-6.38
-6.65
-6.69
-6.54
-6.33
-6.32
-6.72
-7.67
-9.13
-10.84
-12.32
-12.99
-12.22
-9.60
-5.09
0.90
7.54
13.83
18.85
22.02
23.19
22.59
20.61
17.70
14.23
10.53
6.98
3.97
1.85
0.79
0.74
1.45
2.53
3.62
4.48
5.01
5.21
5.07
4.61
3.84
2.82
1.66
0.53
-0.41
-1.09
-1.54
-1.90
-2.38
-3.17
-4.37
-5.90
-7.56
-9.10
-10.31
-11.14
-11.74
-12.38
-13.41
-15.07
-17.42
-20.21
-22.82
-24.39
-23.98
-20.95
-15.21
-7.43
1.12
8.97
14.94
18.46
19.64
19.03
17.25
14.75
11.75
8.34
4.75
1.35
-1.34
-2.87
-3.06
-2.05
-0.26
1.74
3.42
4.46
4.79
4.54
3.99
3.39
2.90
2.55
2.20
1.69
0.85
-0.32
-1.72
-3.11
-4.21
-4.85
-5.02
-4.88
-4.73
-4.88
-5.48
-6.49
-7.66
-8.71
-9.37
-9.59
-9.45
-9.19
-9.09
-9.41
-10.38
-12.14
-14.63
-17.43
-19.71
-20.35
-18.30
-13.07
-5.04
4.53
13.88
21.41
26.17
28.10
27.84
26.24
24.00
21.46
18.69
15.76
12.88
10.40
8.70
7.95
8.04
8.63
9.25
9.56
9.44
9.02
8.54
8.14
7.83
7.40
6.62
5.37
3.69
1.82
0.04
-1.42
-2.50
-3.25
-3.86
-4.52
-5.35
-6.37
-7.48
-8.47
-9.15
-9.39
-9.25
-8.95
-8.80
-9.04
-9.71
-10.62
-11.46
-11.98
-12.07
-11.87
-11.66
-11.73
-12.32
-13.57
-15.44
-17.73
-20.00
-21.50
-21.33
-18.68
-13.23
-5.35
3.82
12.77
20.06
24.80
26.91
26.90
25.51
23.37
20.78
17.81
14.52
11.19
8.28
6.30
5.56
5.98
7.11
8.37
9.27
9.61
9.46
9.05
8.55
7.95
7.10
5.90
4.32
2.56
0.91
-0.39
-1.27
-1.87
-2.43
-3.15
-4.09
-5.12
-6.02
-6.58
-6.78
-6.76
-6.80
-7.16
-8.00
-9.25
-10.63
-11.78
-12.43
-12.49
-12.15
-11.76
-11.75
-12.45
-14.04
-16.45
-19.30
-21.91
-23.33
-22.55
-18.89
-12.34
-3.73
5.54
13.90
20.18
23.95
25.48
25.42
24.36
22.64
20.28
17.29
13.80
10.22
7.09
4.90
3.85
3.84
4.53
5.47
6.27
6.70
6.67
6.20
5.34
4.10
2.48
0.47
-1.89
-4.53
-7.30
-10.03
-12.59
-14.93
-17.12
-19.33
-21.77
-24.66
-28.09
-32.00
-36.18
-40.36
-44.39
-48.35
-52.66
-57.93
-64.78
-73.53
-84.07
-95.94
-108.61
-121.81
-135.66
-150.55
-166.69
-183.70
-200.41
-214.97
-225.47
-230.71
-230.74
-226.98
-221.78
-217.34
-214.48
-212.21
-207.82
-197.88
-179.62
-151.80
-114.71
-69.70
-19.01
33.92
83.94
124.72
150.68
159.58
154.35
142.43
132.61
130.93
138.06
149.69
159.73
164.07
162.70
158.99
157.02
158.81
163.47
168.35
171.02
170.91
169.28
167.98
168.22
169.69
170.73
169.32
163.99
154.28
140.77
124.54
106.79
88.58
70.85
54.59
40.80
30.24
23.13
18.94
16.51
14.49
11.73
7.65
2.32
-3.84
-10.26
-16.58
-22.83
-29.49
-36.96
-45.39
-54.34
-62.85
-69.81
-74.39
-76.22
-75.25
-71.67
-65.98
-59.38
-53.97
-52.18
-55.72
-64.29
-75.25
-84.48
-88.30
-85.19
-76.44
-65.22
-54.72
-46.63
-40.69
-35.63
-30.39
-24.91
-19.97
-16.38
-14.03
-11.77
-8.06
-1.54
8.19
20.44
33.81
46.79
58.37
68.25
76.81
84.64
92.15
99.27
105.49
110.18
112.93
113.88
113.65
113.13
113.06
113.71
114.71
115.11
113.71
109.44
101.59
90.10
75.53
59.05
42.21
26.72
14.11
5.39
0.93
0.36
2.76
6.97
11.77
16.16
19.27
20.42
19.05
14.77
7.58
-2.09
-13.30
-24.83
-35.36
-43.80
-49.45
-51.98
-51.42
-48.00
-42.15
-34.53
-26.04
-17.79
-10.82
-5.89
-3.11
-1.88
-1.06
0.62
4.09
9.57
16.61
24.19
31.14
36.37
39.15
39.18
36.60
31.88
25.65
18.58
11.32
4.55
-0.89
-4.02
-3.87
0.24
8.30
19.41
31.86
43.57
52.69
58.19
60.11
59.37
57.35
55.23
53.59
52.23
50.46
47.49
42.86
36.60
29.16
21.15
13.12
5.49
-1.47
-7.50
-12.43
-16.16
-18.81
-20.71
-22.33
-24.22
-26.79
-30.20
-34.29
-38.54
-42.35
-45.19
-46.89
-47.71
-48.23
-49.06
-50.55
-52.61
-54.82
-56.69
-57.92
-58.64
-59.37
-60.84
-63.73
-68.33
-74.31
-80.55
-85.31
-86.57
-82.68
-72.93
-57.94
-39.49
-19.98
-1.68
13.87
26.10
35.19
41.65
45.92
48.24
48.67
47.38
44.75
41.42
38.10
35.40
33.59
32.61
32.18
31.94
31.71
31.48
31.33
31.22
30.91
29.93
27.81
24.32
19.62
14.26
8.98
4.40
0.81
-1.91
-4.21
-6.64
-9.62
-13.28
-17.36
-21.33
-24.72
-27.24
-29.02
-30.54
-32.45
-35.37
-39.74
-45.65
-52.81
-60.40
-67.04
-70.97
-70.45
-64.35
-52.66
-36.63
-18.46
-0.59
15.05
27.45
36.48
42.59
46.30
47.88
47.45
45.15
41.35
36.79
32.38
28.97
27.04
26.64
27.45
28.92
30.56
32.05
33.24
34.08
34.47
34.26
33.22
31.16
28.13
24.38
20.42
16.80
13.95
11.98
10.70
9.64
8.33
6.41
3.86
0.97
-1.82
-4.06
-5.54
-6.39
-7.06
-8.09
-9.88
-12.53
-15.74
-19.03
-21.89
-24.11
-25.83
-27.49
-29.60
-32.48
-36.16
-40.35
-44.61
-48.58
-52.09
-55.30
-58.50
-62.11
-66.53
-72.15
-79.20
-87.52
-96.20
-103.34
-106.25
-102.23
-89.56
-68.40
-40.90
-10.42
19.67
47.09
71.10
91.99
110.28
125.99
138.54
147.17
151.57
152.16
149.90
145.80
140.47
134.06
126.49
117.84
108.64
99.74
92.03
86.00
81.44
77.56
73.26
67.62
60.22
51.26
41.33
31.14
21.27
12.12
4.01
-2.67
-7.55
-10.36
-11.21
-10.75
-10.06
-10.43
-12.98
-18.34
-26.51
-36.75
-47.83
-58.16
-66.28
-71.11
-72.24
-70.05
-65.51
-59.91
-54.42
-49.90
-46.77
-45.07
-44.67
-45.34
-46.87
-49.04
-51.49
-53.70
-54.94
-54.48
-51.76
-46.71
-39.80
-31.94
-24.19
-17.45
-12.25
-8.73
-6.78
-6.19
-6.75
-8.24
-10.40
-12.86
-15.21
-17.14
-18.44
-19.12
-19.28
-19.09
-18.69
-18.21
-17.74
-17.42
-17.39
-17.77
-18.66
-20.07
-21.93
-24.09
-26.37
-28.62
-30.71
-32.65
-34.48
-36.29
-38.11
-39.92
-41.61
-43.08
-44.21
-45.05
-45.75
-46.56
-47.72
-49.31
-51.25
-53.22
-54.84
-55.80
-56.03
-55.80
-55.62
-56.19
-58.12
-61.81
-67.24
-73.80
-80.23
-84.77
-85.51
-81.01
-70.86
-55.97
-38.38
-20.60
-4.86
7.54
16.37
22.19
25.91
28.28
29.79
30.74
31.43
32.26
33.74
36.28
40.01
44.74
49.99
55.14
59.64
63.20
65.72
67.29
68.01
67.94
67.10
65.55
63.46
61.21
59.21
57.83
57.24
57.40
58.08
59.02
60.05
61.09
62.20
63.48
65.06
67.02
69.43
72.37
75.89
80.03
84.72
89.78
94.95
99.89
104.30
107.88
110.23
110.79
108.83
103.55
94.32
80.86
63.32
42.26
18.52
-6.76
-32.19
-56.03
-76.29
-91.08
-99.01
-99.69
-93.88
-83.38
-70.49
-57.45
-45.89
-36.60
-29.62
-24.49
-20.64
-17.72
-15.59
-14.36
-14.16
-15.00
-16.72
-18.96
-21.29
-23.26
-24.54
-24.89
-24.23
-22.57
-20.07
-16.98
-13.69
-10.64
-8.28
-6.93
-6.71
-7.45
-8.76
-10.14
-11.17
-11.61
-11.48
-11.07
-10.76
-10.91
-11.73
-13.14
-14.84
-16.45
-17.64
-18.25
-18.37
-18.28
-18.23
-18.41
-18.84
-19.40
-19.94
-20.38
-20.78
-21.33
-22.28
-23.85
-26.11
-28.88
-31.80
-34.38
-36.30
-37.43
-38.01
-38.56
-39.69
-41.95
-45.66
-50.72
-56.49
-61.79
-65.00
-64.50
-59.13
-48.69
-34.16
-17.44
-0.84
13.61
24.66
32.01
36.09
37.67
37.52
36.18
33.95
31.09
27.88
24.77
22.27
20.80
20.53
21.34
22.81
24.44
25.83
26.79
27.32
27.46
27.18
26.31
24.64
22.03
18.61
14.76
11.00
7.78
5.32
3.55
2.16
0.79
-0.74
-2.39
-3.90
-4.97
-5.45
-5.49
-5.43
-5.70
-6.59
-8.12
-10.04
-11.99
-13.64
-14.83
-15.71
-16.55
-17.69
-19.35
-21.50
-23.92
-26.30
-28.37
-30.06
-31.50
-32.98
-34.86
-37.45
-40.93
-45.30
-50.24
-55.02
-58.46
-59.09
-55.68
-47.60
-35.29
-20.15
-4.23
10.47
22.50
31.24
36.79
39.68
40.42
39.40
36.88
33.14
28.69
24.26
20.67
18.54
18.13
19.21
21.19
23.42
25.36
26.74
27.56
27.87
27.71
26.99
25.59
23.42
20.56
17.26
13.85
10.67
7.95
5.74
3.90
2.20
0.38
-1.72
-4.10
-6.54
-8.74
-10.42
-11.45
-11.96
-12.35
-13.12
-14.72
-17.33
-20.81
-24.69
-28.42
-31.53
-33.92
-35.82
-37.77
-40.42
-44.28
-49.58
-56.03
-62.81
-68.56
-71.57
-70.26
-63.68
-51.94
-36.29
-18.84
-1.86
12.72
23.86
31.42
35.89
37.98
38.37
37.49
35.63
33.05
30.11
27.25
24.96
23.61
23.32
23.95
25.19
26.63
28.00
29.11
29.93
30.40
30.45
29.94
28.79
27.01
24.72
22.16
19.56
17.10
14.84
12.69
10.51
8.20
5.75
3.27
0.93
-1.10
-2.79
-4.27
-5.77
-7.52
-9.63
-12.03
-14.51
-16.86
-19.01
-21.09
-23.39
-26.35
-30.35
-35.59
-41.94
-48.72
-54.72
-58.32
-57.93
-52.50
-42.02
-27.58
-11.17
4.98
19.03
29.93
37.45
41.95
43.96
43.90
42.11
38.92
34.83
30.56
26.93
24.59
23.88
24.69
26.55
28.88
31.14
33.04
34.49
35.51
36.12
36.22
35.70
34.47
32.54
30.04
27.14
23.99
20.74
17.53
14.48
11.71
9.22
6.92
4.58
2.01
-0.84
-3.79
-6.46
-8.51
-9.80
-10.55
-11.24
-12.41
-14.40
-17.20
-20.41
-23.51
-26.06
-27.95
-29.41
-31.00
-33.41
-37.22
-42.73
-49.74
-57.44
-64.45
-68.93
-69.10
-63.72
-52.67
-37.07
-19.10
-1.33
14.05
25.77
33.65
38.32
40.71
41.58
41.37
40.24
38.33
35.91
33.42
31.33
29.97
29.42
29.56
30.14
30.88
31.59
32.18
32.57
32.73
32.57
31.99
30.88
29.18
26.92
24.26
21.51
19.00
16.96
15.46
14.35
13.37
12.29
11.07
9.81
8.72
7.94
7.45
7.06
6.50
5.57
4.17
2.39
0.41
-1.56
-3.40
-5.03
-6.47
-7.79
-9.07
-10.41
-11.89
-13.52
-15.25
-16.94
-18.38
-19.45
-20.15
-20.69
-21.45
-22.75
-24.76
-27.28
-29.90
-32.12
-33.63
-34.48
-35.07
-36.08
-38.13
-41.63
-46.50
-52.12
-57.28
-60.44
-60.04
-55.01
-45.16
-31.40
-15.54
0.21
13.89
24.26
31.01
34.58
35.76
35.31
33.72
31.29
28.27
25.06
22.26
20.53
20.29
21.56
23.89
26.52
28.71
30.00
30.32
29.92
29.12
28.10
26.85
25.20
22.97
20.13
16.89
13.58
10.60
8.21
6.51
5.31
4.27
2.98
1.03
-1.82
-5.68
-10.50
-16.20
-22.73
-30.15
-38.55
-48.01
-58.50
-69.81
-81.63
-93.43
-104.45
-113.57
-119.40
-120.51
-115.94
-105.71
-91.07
-74.17
-57.47
-42.91
-31.45
-23.14
-17.49
-14.09
-12.89
-14.19
-18.46
-25.93
-36.47
-49.39
-63.42
-76.63
-86.65
-91.02
-87.89
-76.67
-58.42
-35.59
-11.40
11.13
29.88
43.94
53.50
59.34
62.42
63.54
63.27
62.02
60.13
57.98
55.94
54.31
53.25
52.73
52.59
52.63
52.71
52.74
52.65
52.29
51.36
49.45
46.16
41.29
34.91
27.45
19.50
11.67
4.31
-2.52
-9.09
-15.75
-22.82
-30.40
-38.41
-46.73
-55.27
-64.13
-73.46
-83.42
-94.05
-105.19
-116.75
-128.78
-141.71
-156.11
-172.51
-190.80
-209.98
-228.06
-242.46
-250.71
-251.18
-243.46
-228.37
-207.51
-182.91
-156.68
-130.89
-107.26
-86.74
-68.91
-51.81
-32.34
-7.41
24.77
63.77
107.05
150.91
191.77
227.13
255.84
277.67
292.67
300.97
302.80
298.80
290.24
278.83
266.31
253.93
242.23
231.08
220.14
209.23
198.68
189.20
181.61
176.31
173.03
170.80
168.35
164.53
158.82
151.45
143.23
135.15
128.03
122.22
117.60
113.81
110.42
107.19
104.10
101.30
99.00
97.29
96.01
94.68
92.53
88.57
81.92
72.09
59.34
44.74
30.03
17.10
7.41
1.42
-1.66
-3.67
-6.95
-13.66
-25.20
-41.86
-62.82
-86.38
-110.35
-132.48
-150.88
-164.31
-172.42
-175.60
-174.74
-170.77
-164.31
-155.64
-144.77
-131.85
-117.45
-102.45
-87.88
-74.53
-62.72
-52.38
-43.28
-35.28
-28.47
-23.10
-19.31
-16.98
-15.66
-14.73
-13.62
-11.96
-9.64
-6.79
-3.70
-0.65
2.13
4.55
6.58
8.28
9.67
10.67
11.13
10.85
9.73
7.84
5.48
3.10
1.11
-0.21
-0.89
-1.18
-1.40
-1.84
-2.63
-3.76
-5.08
-6.44
-7.68
-8.74
-9.60
-10.32
-11.07
-12.02
-13.36
-15.19
-17.46
-19.99
-22.49
-24.72
-26.57
-28.13
-29.68
-31.59
-34.20
-37.69
-41.96
-46.60
-50.87
-53.80
-54.39
-51.87
-45.99
-37.17
-26.41
-15.00
-4.19
5.16
12.67
18.33
22.33
24.81
25.87
25.60
24.22
22.16
19.97
18.25
17.41
17.63
18.77
20.49
22.38
24.08
25.39
26.27
26.74
26.79
26.37
25.36
23.70
21.48
18.95
16.47
14.36
12.80
11.77
11.04
10.36
9.50
8.35
6.95
5.45
4.02
2.83
1.92
1.21
0.51
-0.42
-1.76
-3.58
-5.77
-8.12
-10.35
-12.27
-13.81
-15.09
-16.36
-17.92
-19.95
-22.47
-25.30
-28.09
-30.55
-32.49
-34.01
-35.45
-37.30
-40.03
-43.95
-49.02
-54.77
-60.28
-64.25
-65.26
-62.17
-54.55
-42.90
-28.65
-13.73
-0.06
11.01
18.98
24.10
27.08
28.69
29.47
29.66
29.36
28.61
27.58
26.54
25.80
25.54
25.82
26.47
27.29
28.10
28.78
29.33
29.76
29.99
29.87
29.21
27.90
26.01
23.75
21.43
19.36
17.70
16.48
15.56
14.78
13.99
13.12
12.24
11.44
10.77
10.23
9.70
9.05
8.12
6.85
5.29
3.54
1.78
0.12
-1.40
-2.79
-4.18
-5.71
-7.49
-9.54
-11.73
-13.81
-15.49
-16.60
-17.17
-17.48
-17.94
-18.91
-20.55
-22.70
-25.02
-27.07
-28.54
-29.36
-29.73
-30.06
-30.88
-32.73
-35.98
-40.68
-46.34
-51.87
-55.70
-56.15
-52.01
-43.04
-30.20
-15.37
-0.82
11.57
20.78
26.79
30.27
32.07
32.82
32.72
31.77
29.91
27.35
24.57
22.17
20.59
19.95
20.04
20.44
20.81
21.00
21.08
21.21
21.46
21.69
21.56
20.78
19.21
17.05
14.73
12.76
11.49
10.97
10.94
10.96
10.68
9.93
8.83
7.65
6.65
5.90
5.28
4.51
3.35
1.77
-0.04
-1.76
-3.09
-3.89
-4.27
-4.51
-4.94
-5.80
-7.14
-8.79
-10.49
-11.99
-13.22
-14.26
-15.36
-16.74
-18.51
-20.57
-22.67
-24.53
-25.97
-26.95
-27.63
-28.28
-29.22
-30.77
-33.20
-36.61
-40.82
-45.26
-48.94
-50.65
-49.32
-44.35
-35.93
-25.05
-13.17
-1.85
7.73
15.03
20.07
23.26
25.05
25.78
25.62
24.67
23.10
21.20
19.39
18.08
17.55
17.84
18.80
20.15
21.59
22.89
23.93
24.62
24.91
24.69
23.89
22.46
20.50
18.25
16.02
14.08
12.62
11.70
11.24
11.07
11.03
10.90
10.53
9.83
8.79
7.54
6.24
5.05
4.05
3.22
2.42
1.44
0.14
-1.57
-3.65
-5.94
-8.25
-10.39
-12.22
-13.76
-15.18
-16.72
-18.63
-21.03
-23.81
-26.73
-29.45
-31.71
-33.43
-34.78
-36.12
-37.95
-40.73
-44.80
-50.11
-56.10
-61.58
-64.91
-64.39
-58.86
-48.22
-33.61
-17.18
-1.32
11.98
21.70
27.90
31.33
32.93
33.45
33.28
32.57
31.43
30.07
28.77
27.80
27.26
27.10
27.14
27.24
27.33
27.47
27.73
28.09
28.47
28.65
28.41
27.58
26.11
24.07
21.65
19.09
16.65
14.52
12.80
11.46
10.40
9.48
8.54
7.49
6.33
5.12
3.97
2.95
2.11
1.41
0.75
-0.02
-1.01
-2.28
-3.86
-5.68
-7.62
-9.50
-11.15
-12.46
-13.47
-14.36
-15.41
-16.89
-18.89
-21.29
-23.79
-26.06
-27.90
-29.35
-30.70
-32.37
-34.82
-38.30
-42.81
-47.91
-52.72
-56.02
-56.49
-53.12
-45.60
-34.48
-21.14
-7.41
4.98
14.84
21.76
26.00
28.13
28.72
28.18
26.71
24.53
22.01
19.65
17.96
17.29
17.68
18.90
20.56
22.33
23.95
25.32
26.36
26.99
27.10
26.58
25.37
23.54
21.28
18.83
16.46
14.41
12.83
11.73
11.02
10.50
9.98
9.31
8.45
7.45
6.43
5.48
4.67
3.96
3.27
2.51
1.59
0.47
-0.84
-2.32
-3.95
-5.70
-7.51
-9.28
-10.89
-12.26
-13.43
-14.60
-16.07
-18.08
-20.71
-23.77
-26.90
-29.70
-31.90
-33.55
-34.96
-36.62
-39.11
-42.85
-47.97
-54.11
-60.36
-65.29
-67.20
-64.66
-56.98
-44.60
-29.13
-12.84
1.98
13.73
21.86
26.80
29.50
30.92
31.63
31.80
31.38
30.34
28.92
27.53
26.60
26.33
26.67
27.33
28.05
28.68
29.25
29.89
30.61
31.24
31.47
30.98
29.61
27.49
24.94
22.38
20.12
18.30
16.88
15.70
14.62
13.49
12.29
10.99
9.64
8.31
7.09
6.07
5.30
4.69
4.11
3.33
2.20
0.65
-1.21
-3.18
-5.08
-6.77
-8.24
-9.61
-11.08
-12.83
-14.97
-17.45
-20.07
-22.53
-24.55
-26.04
-27.15
-28.24
-29.78
-32.23
-35.84
-40.55
-45.96
-51.24
-55.27
-56.74
-54.56
-48.23
-38.09
-25.37
-11.83
0.76
11.15
18.82
23.98
27.20
29.02
29.77
29.54
28.32
26.29
23.81
21.48
19.83
19.25
19.82
21.31
23.29
25.36
27.17
28.57
29.51
29.97
29.89
29.13
27.58
25.26
22.33
19.19
16.28
13.96
12.39
11.46
10.87
10.33
9.62
8.71
7.71
6.74
5.84
4.95
3.97
2.85
1.62
0.39
-0.74
-1.78
-2.85
-4.16
-5.84
-7.83
-9.95
-11.95
-13.67
-15.18
-16.74
-18.65
-21.12
-24.10
-27.26
-30.20
-32.60
-34.42
-35.94
-37.65
-40.12
-43.74
-48.64
-54.58
-60.81
-66.13
-69.04
-68.07
-62.25
-51.59
-37.23
-21.12
-5.53
7.69
17.59
24.17
28.12
30.32
31.45
31.88
31.71
31.05
30.11
29.21
28.69
28.71
29.22
29.98
30.71
31.25
31.61
31.92
32.25
32.57
32.66
32.28
31.19
29.38
26.99
24.31
21.66
19.32
17.48
16.21
15.41
14.87
14.29
13.40
12.08
10.43
8.73
7.31
6.38
5.91
5.66
5.26
4.38
2.90
0.93
-1.29
-3.47
-5.38
-6.99
-8.38
-9.74
-11.25
-13.02
-15.05
-17.25
-19.49
-21.62
-23.58
-25.39
-27.19
-29.21
-31.75
-35.06
-39.27
-44.29
-49.59
-54.19
-56.77
-56.00
-51.04
-41.89
-29.57
-15.79
-2.49
8.86
17.53
23.57
27.48
29.80
30.80
30.52
28.93
26.27
23.13
20.35
18.73
18.70
20.20
22.70
25.48
27.90
29.62
30.59
30.94
30.78
30.15
28.99
27.28
25.12
22.73
20.39
18.32
16.64
15.32
14.29
13.42
12.60
11.76
10.81
9.70
8.47
7.18
5.94
4.85
3.96
3.18
2.34
1.26
-0.22
-2.14
-4.40
-6.77
-8.97
-10.80
-12.26
-13.56
-15.02
-16.98
-19.58
-22.72
-26.01
-29.00
-31.30
-32.87
-34.00
-35.31
-37.51
-41.17
-46.45
-52.98
-59.77
-65.34
-68.04
-66.48
-59.95
-48.78
-34.31
-18.53
-3.57
8.89
18.11
24.21
27.93
30.18
31.64
32.60
33.06
32.96
32.35
31.52
30.79
30.43
30.47
30.80
31.23
31.63
32.00
32.36
32.73
32.99
32.95
32.36
31.09
29.13
26.64
23.90
21.26
19.02
17.35
16.25
15.55
15.02
14.38
13.51
12.33
10.91
9.35
7.78
6.31
5.04
4.03
3.27
2.67
2.10
1.38
0.35
-1.05
-2.79
-4.74
-6.74
-8.62
-10.26
-11.67
-12.92
-14.16
-15.54
-17.16
-19.02
-21.04
-23.07
-24.95
-26.61
-28.13
-29.76
-31.92
-35.00
-39.20
-44.34
-49.72
-54.19
-56.43
-55.26
-50.07
-41.09
-29.34
-16.43
-4.01
6.62
14.84
20.66
24.49
26.84
28.02
28.17
27.33
25.66
23.52
21.47
20.08
19.69
20.38
21.86
23.66
25.33
26.53
27.21
27.44
27.37
27.02
26.30
25.05
23.19
20.86
18.34
16.06
14.29
13.13
12.43
11.92
11.35
10.67
9.95
9.34
8.94
8.71
8.47
8.00
7.12
5.78
4.12
2.36
0.74
-0.56
-1.55
-2.34
-3.18
-4.27
-5.74
-7.59
-9.65
-11.67
-13.37
-14.61
-15.44
-16.12
-17.00
-18.39
-20.42
-22.95
-25.62
-28.07
-30.08
-31.69
-33.22
-35.15
-37.89
-41.73
-46.60
-52.01
-56.99
-60.18
-60.15
-55.83
-46.93
-34.26
-19.50
-4.79
7.95
17.55
23.77
27.20
28.75
29.24
29.19
28.75
27.91
26.70
25.32
24.07
23.30
23.18
23.65
24.49
25.40
26.18
26.81
27.34
27.85
28.25
28.30
27.68
26.11
23.62
20.50
17.30
14.56
12.65
11.62
11.24
11.12
10.95
10.52
9.85
9.06
8.31
7.71
7.30
7.01
6.71
6.25
5.50
4.41
3.08
1.68
0.43
-0.55
-1.29
-1.99
-2.92
-4.21
-5.85
-7.63
-9.29
-10.61
-11.59
-12.37
-13.23
-14.44
-16.10
-18.15
-20.36
-22.48
-24.29
-25.72
-26.92
-28.16
-29.81
-32.26
-35.69
-40.05
-44.83
-49.14
-51.78
-51.54
-47.60
-39.85
-29.01
-16.48
-3.93
7.14
15.76
21.64
24.99
26.34
26.19
24.93
22.84
20.23
17.56
15.36
14.11
14.08
15.18
17.01
19.08
20.96
22.46
23.58
24.37
24.83
24.86
24.32
23.12
21.31
19.04
16.58
14.14
11.94
10.11
8.67
7.62
6.84
6.22
5.64
5.01
4.30
3.49
2.63
1.75
0.90
0.11
-0.63
-1.44
-2.46
-3.86
-5.72
-7.94
-10.28
-12.39
-14.03
-15.15
-15.98
-16.91
-18.36
-20.53
-23.36
-26.54
-29.68
-32.49
-34.87
-36.99
-39.18
-41.83
-45.30
-49.80
-55.27
-61.25
-66.71
-70.20
-70.10
-65.18
-55.12
-40.85
-24.32
-8.03
5.90
16.22
22.87
26.64
28.65
29.75
30.34
30.41
29.85
28.75
27.47
26.51
26.24
26.80
27.99
29.45
30.87
32.06
33.04
33.83
34.40
34.57
34.11
32.90
30.95
28.50
25.87
23.37
21.16
19.31
17.74
16.35
15.05
13.77
12.49
11.22
9.97
8.79
7.72
6.76
5.88
5.05
4.21
3.33
2.38
1.30
0.05
-1.43
-3.15
-5.10
-7.16
-9.24
-11.24
-13.15
-15.07
-17.16
-19.54
-22.23
-25.08
-27.78
-30.04
-31.73
-32.96
-34.12
-35.75
-38.34
-42.25
-47.48
-53.56
-59.50
-63.85
-64.97
-61.58
-53.22
-40.55
-25.26
-9.54
4.57
15.77
23.68
28.64
31.34
32.41
32.24
31.04
29.03
26.57
24.18
22.43
21.72
22.17
23.62
25.66
27.80
29.66
31.02
31.83
32.15
32.06
31.51
30.42
28.70
26.36
23.55
20.60
17.88
15.68
14.15
13.20
12.58
11.98
11.15
9.96
8.52
7.06
5.85
5.10
4.82
4.82
4.75
4.24
3.06
1.21
-1.10
-3.52
-5.76
-7.67
-9.31
-10.90
-12.73
-14.99
-17.68
-20.60
-23.40
-25.73
-27.44
-28.63
-29.65
-30.99
-33.16
-36.55
-41.28
-47.02
-52.91
-57.62
-59.57
-57.41
-50.48
-39.18
-24.89
-9.63
4.58
16.22
24.62
29.85
32.48
33.15
32.39
30.59
28.04
25.12
22.33
20.20
19.16
19.38
20.68
22.65
24.78
26.62
27.89
28.53
28.54
27.92
26.64
24.62
21.90
18.66
15.28
12.17
9.61
7.61
5.94
4.21
2.13
-0.32
-2.92
-5.34
-7.33
-8.94
-10.47
-12.32
-14.76
-17.76
-21.01
-24.09
-26.68
-28.75
-30.60
-32.70
-35.61
-39.76
-45.34
-52.13
-59.38
-65.81
-69.66
-69.23
-63.36
-52.03
-36.48
-18.94
-1.93
12.50
23.30
30.51
34.85
37.27
38.46
38.75
38.23
36.99
35.32
33.66
32.42
31.87
31.98
32.53
33.25
33.95
34.59
35.19
35.71
35.94
35.58
34.30
31.99
28.75
24.95
21.06
17.51
14.58
12.32
10.55
8.95
7.21
5.11
2.67
0.10
-2.28
-4.23
-5.71
-6.94
-8.31
-10.18
-12.72
-15.77
-18.95
-21.88
-24.35
-26.43
-28.50
-31.11
-34.75
-39.69
-45.85
-52.61
-58.87
-63.12
-63.84
-59.92
-51.12
-38.25
-23.02
-7.52
6.34
17.41
25.43
30.80
34.19
36.12
36.84
36.36
34.76
32.37
29.83
27.85
26.97
27.31
28.60
30.31
31.89
33.00
33.57
33.71
33.57
33.19
32.48
31.27
29.43
27.02
24.25
21.48
19.09
17.29
16.09
15.30
14.66
13.94
13.07
12.08
11.11
10.25
9.54
8.88
8.17
7.28
6.18
4.92
3.60
2.32
1.10
-0.15
-1.57
-3.29
-5.30
-7.47
-9.56
-11.36
-12.77
-13.90
-15.00
-16.43
-18.46
-21.17
-24.37
-27.67
-30.63
-32.96
-34.69
-36.17
-37.98
-40.73
-44.82
-50.27
-56.55
-62.63
-67.04
-68.20
-64.85
-56.45
-43.53
-27.63
-10.92
4.39
16.71
25.41
30.76
33.58
34.77
34.92
34.31
32.99
31.13
29.11
27.47
26.74
27.19
28.64
30.62
32.54
33.94
34.63
34.69
34.32
33.66
32.69
31.22
29.10
26.32
23.13
20.01
17.42
15.67
14.73
14.29
13.97
13.47
12.74
11.92
11.19
10.65
10.23
9.73
8.95
7.80
6.32
4.65
2.96
1.36
-0.11
-1.45
-2.74
-4.06
-5.48
-7.06
-8.75
-10.43
-11.97
-13.31
-14.52
-15.82
-17.51
-19.73
-22.42
-25.30
-28.01
-30.29
-32.11
-33.71
-35.46
-37.79
-41.05
-45.42
-50.75
-56.36
-61.03
-63.15
-61.18
-54.23
-42.54
-27.52
-11.37
3.67
15.95
24.79
30.41
33.47
34.70
34.56
33.31
31.14
28.40
25.63
23.42
22.23
22.20
23.16
24.71
26.39
27.88
29.05
29.88
30.41
30.56
30.18
29.04
27.05
24.26
20.98
17.68
14.82
12.73
11.46
10.85
10.59
10.42
10.15
9.73
9.21
8.58
7.82
6.87
5.73
4.46
3.15
1.90
0.73
-0.38
-1.51
-2.73
-4.09
-5.58
-7.18
-8.82
-10.40
-11.78
-12.86
-13.64
-14.28
-15.07
-16.26
-18.03
-20.28
-22.75
-25.07
-26.97
-28.38
-29.48
-30.62
-32.28
-34.89
-38.65
-43.40
-48.46
-52.65
-54.47
-52.58
-46.24
-35.63
-22.01
-7.26
6.54
17.78
25.67
30.23
32.06
31.89
30.34
27.79
24.51
20.85
17.34
14.63
13.31
13.65
15.47
18.23
21.17
23.67
25.40
26.33
26.63
26.46
25.84
24.64
22.72
20.06
16.87
13.54
10.52
8.14
6.51
5.53
4.97
4.57
4.12
3.53
2.79
1.98
1.20
0.53
0.03
-0.33
-0.65
-1.13
-1.93
-3.16
-4.83
-6.77
-8.76
-10.60
-12.16
-13.46
-14.62
-15.85
-17.35
-19.26
-21.58
-24.21
-26.93
-29.44
-31.55
-33.23
-34.68
-36.29
-38.59
-41.98
-46.64
-52.20
-57.74
-61.78
-62.63
-58.92
-50.10
-36.86
-20.94
-4.71
9.60
20.51
27.58
31.27
32.44
31.94
30.34
27.95
25.01
21.91
19.19
17.39
16.89
17.74
19.60
21.91
24.12
25.84
26.96
27.59
27.89
27.98
27.81
27.22
26.02
24.14
21.70
18.99
16.44
14.38
12.96
12.11
11.57
11.03
10.27
9.22
7.98
6.74
5.70
4.94
4.46
4.09
3.61
2.78
1.47
-0.34
-2.51
-4.78
-6.88
-8.66
-10.08
-11.31
-12.59
-14.17
-16.19
-18.63
-21.28
-23.85
-26.06
-27.75
-29.00
-30.12
-31.62
-33.98
-37.54
-42.16
-47.23
-51.64
-54.07
-53.41
-49.03
-41.09
-30.47
-18.53
-6.73
3.71
12.08
18.17
22.09
24.15
24.63
23.77
21.85
19.23
16.38
13.85
12.12
11.46
11.93
13.34
15.35
17.58
19.71
21.50
22.82
23.60
23.83
23.47
22.50
20.88
18.66
15.98
13.12
10.42
8.16
6.50
5.34
4.43
3.42
2.07
0.34
-1.62
-3.51
-5.12
-6.33
-7.26
-8.18
-9.36
-11.03
-13.26
-15.97
-18.95
-21.96
-24.80
-27.33
-29.60
-31.80
-34.28
-37.46
-41.67
-46.97
-53.02
-58.92
-63.39
-65.00
-62.62
-55.78
-44.90
-31.27
-16.62
-2.74
9.02
17.95
23.98
27.46
28.90
28.75
27.37
25.10
22.34
19.62
17.53
16.51
16.79
18.24
20.45
22.93
25.22
27.04
28.22
28.67
28.29
26.94
24.54
21.17
17.10
12.77
8.64
5.03
1.99
-0.71
-3.45
-6.56
-10.16
-14.05
-17.86
-21.21
-23.95
-26.30
-28.78
-32.07
-36.72
-42.92
-50.19
-57.45
-63.05
-65.22
-62.50
-54.31
-41.23
-24.96
-7.83
7.86
20.52
29.58
35.40
38.83
40.64
41.27
40.78
39.14
36.60
33.72
31.29
29.99
30.06
31.19
32.74
34.00
34.52
34.28
33.51
32.49
31.32
29.87
27.86
25.00
21.17
16.50
11.31
6.08
1.26
-2.79
-5.94
-8.34
-10.36
-12.55
-15.35
-18.96
-23.25
-27.80
-32.12
-35.84
-38.87
-41.49
-44.24
-47.79
-52.76
-59.52
-67.99
-77.47
-86.49
-92.96
-94.64
-89.82
-78.02
-60.24
-38.78
-16.46
4.20
21.70
35.67
46.61
55.26
62.12
67.27
70.50
71.66
70.95
68.95
66.46
64.23
62.71
61.90
61.54
61.27
60.80
60.06
59.15
58.06
56.75
54.98
52.50
49.16
45.07
40.58
36.20
32.36
29.32
27.01
25.22
23.61
21.97
20.22
18.42
16.67
15.03
13.49
12.00
10.49
8.96
7.40
5.81
4.12
2.22
0.02
-2.51
-5.25
-7.97
-10.43
-12.45
-14.03
-15.37
-16.78
-18.59
-20.98
-23.92
-27.13
-30.23
-32.87
-34.90
-36.44
-37.90
-39.85
-42.83
-47.22
-53.00
-59.60
-65.86
-70.15
-70.70
-66.20
-56.28
-41.78
-24.60
-7.16
8.33
20.46
28.80
33.73
36.01
36.35
35.23
33.02
30.12
27.12
24.71
23.50
23.75
25.28
27.53
29.83
31.64
32.76
33.26
33.36
33.21
32.81
31.98
30.49
28.20
25.20
21.79
18.44
15.59
13.55
12.37
11.84
11.64
11.42
10.98
10.25
9.32
8.26
7.17
6.07
5.01
4.02
3.13
2.29
1.37
0.19
-1.44
-3.56
-6.02
-8.52
-10.73
-12.46
-13.80
-15.07
-16.65
-18.78
-21.45
-24.41
-27.29
-29.86
-32.09
-34.14
-36.31
-38.89
-42.17
-46.34
-51.42
-57.10
-62.49
-66.19
-66.52
-62.11
-52.47
-38.35
-21.64
-4.74
10.15
21.66
29.47
33.98
35.94
35.99
34.56
31.95
28.58
25.08
22.22
20.64
20.64
22.06
24.38
26.91
29.13
30.72
31.66
32.12
32.24
32.06
31.47
30.26
28.28
25.57
22.41
19.22
16.43
14.31
12.87
11.89
11.07
10.17
9.07
7.82
6.52
5.25
4.05
2.90
1.81
0.73
-0.34
-1.47
-2.80
-4.49
-6.65
-9.19
-11.91
-14.48
-16.70
-18.46
-19.88
-21.25
-22.93
-25.21
-28.11
-31.40
-34.73
-37.80
-40.40
-42.60
-44.71
-47.23
-50.71
-55.47
-61.56
-68.54
-75.45
-80.53
-81.77
-77.67
-68.02
-54.10
-38.27
-23.24
-11.24
-3.54
0.47
2.19
2.97
3.14
2.09
-0.85
-5.87
-12.46
-19.62
-25.14
-27.23
-25.06
-19.61
-12.90
-6.60
-1.29
3.34
8.00
14.91
26.13
43.41
66.85
95.47
128.28
164.61
203.86
235.43
248.75
238.27
208.66
169.63
129.46
92.56
60.55
33.80
12.28
-0.73
-5.16
-0.53
11.96
29.65
49.33
68.04
83.47
94.20
101.20
102.59
98.33
87.11
66.37
33.53
-12.25
-68.81
-130.61
-189.21
-236.15
-264.89
-274.03
-266.59
-248.03
-223.85
-198.36
-174.32
-153.31
-135.96
-121.51
-108.74
-95.39
-78.75
-56.62
-28.61
3.43
35.87
65.24
89.84
109.85
126.15
139.80
152.02
163.21
174.95
184.70
189.05
185.68
171.73
147.78
117.03
84.10
53.49
28.35
9.49
-3.60
-12.34
-18.48
-23.17
-27.10
-30.59
-33.75
-36.66
-39.51
-42.01
-43.63
-43.95
-42.63
-39.85
-36.25
-32.71
-30.01
-28.71
-28.69
-29.47
-30.48
-31.18
-31.31
-30.88
-30.10
-29.27
-28.74
-28.68
-29.12
-30.00
-31.10
-32.18
-33.02
-33.50
-33.63
-33.56
-33.52
-33.78
-34.63
-36.32
-38.96
-42.44
-46.25
-49.53
-51.19
-50.17
-45.82
-38.11
-27.71
-15.82
-3.86
6.85
15.43
21.48
25.11
26.74
26.89
26.02
24.49
22.56
20.46
18.50
17.02
16.26
16.30
17.02
18.09
19.16
19.96
20.36
20.41
20.18
19.70
18.93
17.73
15.97
13.60
10.72
7.57
4.44
1.63
-0.69
-2.49
-3.89
-5.05
-6.15
-7.36
-8.79
-10.46
-12.33
-14.28
-16.15
-17.80
-19.18
-20.39
-21.66
-23.29
-25.64
-28.90
-33.06
-37.71
-42.01
-44.82
-44.91
-41.40
-34.06
-23.50
-11.01
1.75
13.21
22.32
28.68
32.46
34.20
34.44
33.57
31.81
29.30
26.27
23.14
20.45
18.70
18.12
18.59
19.67
20.82
21.61
21.86
21.63
21.05
20.19
18.98
17.26
14.92
12.08
9.04
6.22
3.98
2.44
1.44
0.61
-0.43
-1.87
-3.68
-5.62
-7.38
-8.76
-9.79
-10.65
-11.61
-12.88
-14.47
-16.27
-18.05
-19.60
-20.86
-21.89
-22.92
-24.29
-26.30
-29.17
-32.83
-36.91
-40.70
-43.27
-43.71
-41.38
-36.13
-28.36
-18.92
-8.92
0.61
8.87
15.41
20.07
22.87
23.93
23.43
21.65
19.01
16.10
13.52
11.78
11.18
11.65
12.90
14.49
15.98
17.09
17.68
17.73
17.29
16.40
15.08
13.36
11.25
8.80
6.09
3.24
0.45
-2.06
-4.09
-5.57
-6.60
-7.45
-8.43
-9.78
-11.59
-13.75
-16.06
-18.32
-20.41
-22.33
-24.21
-26.21
-28.51
-31.32
-34.78
-38.93
-43.57
-48.16
-51.77
-53.26
-51.54
-46.03
-36.90
-25.16
-12.36
-0.11
10.36
18.52
24.39
28.34
30.72
31.71
31.36
29.79
27.40
24.84
22.87
22.11
22.74
24.47
26.68
28.69
30.00
30.45
30.17
29.40
28.34
27.06
25.51
23.63
21.46
19.16
16.96
15.09
13.65
12.62
11.80
11.02
10.12
9.04
7.83
6.59
5.41
4.32
3.30
2.27
1.19
-0.01
-1.40
-3.05
-4.99
-7.17
-9.39
-11.40
-13.00
-14.13
-15.03
-16.08
-17.66
-19.95
-22.85
-26.01
-28.95
-31.33
-33.02
-34.17
-35.23
-36.78
-39.42
-43.54
-49.18
-55.83
-62.40
-67.37
-69.09
-66.25
-58.34
-45.91
-30.49
-14.23
0.77
12.98
21.79
27.48
30.85
32.76
33.80
34.20
34.00
33.26
32.25
31.37
30.98
31.24
32.06
33.19
34.34
35.34
36.14
36.78
37.23
37.32
36.82
35.52
33.35
30.46
27.18
23.96
21.19
19.10
17.66
16.69
15.89
14.99
13.85
12.46
10.94
9.41
8.01
6.76
5.65
4.63
3.64
2.62
1.57
0.48
-0.69
-1.96
-3.35
-4.84
-6.39
-7.89
-9.28
-10.55
-11.77
-13.08
-14.58
-16.32
-18.29
-20.41
-22.59
-24.74
-26.79
-28.71
-30.52
-32.37
-34.53
-37.28
-40.82
-45.09
-49.61
-53.53
-55.74
-55.17
-51.11
-43.44
-32.72
-20.13
-7.12
4.90
14.93
22.50
27.61
30.55
31.66
31.26
29.66
27.28
24.68
22.53
21.35
21.37
22.46
24.16
26.01
27.64
28.93
29.87
30.51
30.79
30.58
29.72
28.14
25.92
23.31
20.57
17.99
15.75
13.94
12.53
11.46
10.57
9.73
8.76
7.60
6.20
4.66
3.15
1.85
0.89
0.25
-0.22
-0.81
-1.76
-3.21
-5.08
-7.09
-8.93
-10.39
-11.49
-12.42
-13.52
-15.03
-17.02
-19.37
-21.80
-24.05
-25.97
-27.62
-29.18
-30.91
-33.05
-35.80
-39.19
-43.07
-46.99
-50.26
-51.95
-51.13
-47.14
-39.78
-29.56
-17.49
-4.93
6.80
16.70
24.21
29.24
31.95
32.61
31.52
29.03
25.62
21.93
18.73
16.71
16.26
17.40
19.71
22.56
25.32
27.52
28.96
29.60
29.50
28.70
27.24
25.19
22.70
20.01
17.35
14.94
12.87
11.13
9.60
8.16
6.72
5.26
3.82
2.50
1.37
0.47
-0.29
-1.08
-2.13
-3.64
-5.68
-8.13
-10.71
-13.11
-15.10
-16.67
-18.05
-19.59
-21.63
-24.31
-27.47
-30.78
-33.80
-36.25
-38.16
-39.83
-41.82
-44.68
-48.77
-54.09
-60.11
-65.78
-69.60
-69.96
-65.55
-55.82
-41.35
-23.81
-5.54
11.09
24.39
33.71
39.32
42.09
42.88
42.29
40.61
38.04
34.89
31.71
29.19
27.91
28.10
29.56
31.76
34.06
35.97
37.22
37.76
37.68
37.02
35.75
33.75
30.93
27.34
23.23
19.02
15.21
12.18
10.05
8.57
7.26
5.56
3.10
-0.10
-3.59
-6.74
-9.04
-10.36
-11.04
-11.81
-13.37
-16.08
-19.83
-24.07
-28.12
-31.48
-34.00
-35.94
-37.86
-40.36
-43.97
-48.95
-55.22
-62.16
-68.62
-72.89
-73.08
-67.75
-56.50
-40.28
-21.29
-2.25
14.45
27.43
36.50
42.31
45.76
47.50
47.77
46.58
44.07
40.72
37.31
34.68
33.45
33.74
35.23
37.30
39.32
40.83
41.63
41.75
41.32
40.40
38.94
36.86
34.11
30.75
26.99
23.10
19.34
15.87
12.73
9.89
7.27
4.86
2.64
0.62
-1.23
-2.95
-4.58
-6.11
-7.51
-8.80
-10.07
-11.46
-13.19
-15.37
-18.01
-20.97
-24.01
-26.86
-29.31
-31.35
-33.10
-34.87
-37.10
-40.22
-44.52
-49.97
-56.06
-61.74
-65.52
-65.87
-61.64
-52.51
-39.19
-23.33
-6.98
7.92
20.11
29.13
35.18
38.68
40.05
39.49
37.24
33.71
29.64
25.98
23.59
22.96
24.08
26.48
29.50
32.46
34.87
36.40
36.90
36.30
34.59
31.90
28.45
24.57
20.64
16.93
13.60
10.59
7.76
4.92
1.98
-0.99
-3.87
-6.49
-8.80
-10.88
-12.94
-15.20
-17.79
-20.69
-23.73
-26.70
-29.49
-32.08
-34.66
-37.51
-41.04
-45.56
-51.26
-57.91
-64.70
-70.20
-72.63
-70.35
-62.48
-49.35
-32.50
-14.20
3.25
18.22
30.01
38.70
44.70
48.38
49.89
49.32
46.93
43.33
39.44
36.20
34.25
33.82
34.66
36.29
38.22
40.06
41.58
42.62
43.01
42.57
41.17
38.76
35.46
31.54
27.40
23.48
20.09
17.45
15.57
14.29
13.34
12.45
11.41
10.12
8.58
6.87
5.08
3.33
1.71
0.31
-0.88
-1.96
-3.13
-4.64
-6.66
-9.23
-12.15
-15.06
-17.55
-19.38
-20.59
-21.50
-22.59
-24.32
-26.90
-30.22
-33.86
-37.28
-40.09
-42.20
-43.91
-45.74
-48.32
-52.20
-57.62
-64.41
-71.72
-78.07
-81.46
-79.89
-72.09
-58.05
-39.26
-18.33
1.82
18.87
31.68
40.32
45.60
48.49
49.63
49.31
47.67
44.95
41.70
38.67
36.54
35.70
36.12
37.45
39.14
40.75
42.00
42.80
43.14
42.97
42.18
40.56
38.00
34.56
30.53
26.36
22.52
19.35
16.95
15.20
13.84
12.63
11.44
10.27
9.20
8.25
7.36
6.37
5.16
3.65
1.94
0.21
-1.40
-2.83
-4.17
-5.58
-7.20
-9.08
-11.15
-13.23
-15.11
-16.65
-17.80
-18.71
-19.67
-20.98
-22.84
-25.23
-27.88
-30.41
-32.47
-34.00
-35.18
-36.46
-38.33
-41.22
-45.35
-50.60
-56.40
-61.68
-64.96
-64.68
-59.68
-49.64
-35.38
-18.64
-1.66
13.55
25.68
34.26
39.52
42.02
42.28
40.73
37.69
33.64
29.20
25.17
22.32
21.15
21.78
23.90
26.90
30.05
32.69
34.39
34.98
34.53
33.26
31.37
28.98
26.13
22.84
19.26
15.65
12.43
9.96
8.40
7.62
7.22
6.72
5.80
4.39
2.70
1.09
-0.12
-0.83
-1.20
-1.56
-2.27
-3.58
-5.56
-8.05
-10.74
-13.31
-15.48
-17.14
-18.40
-19.54
-20.92
-22.83
-25.35
-28.31
-31.37
-34.17
-36.49
-38.37
-40.08
-42.03
-44.68
-48.35
-53.13
-58.70
-64.18
-68.16
-68.91
-64.93
-55.51
-41.12
-23.46
-4.96
11.92
25.47
34.98
40.73
43.48
43.99
42.79
40.13
36.29
31.76
27.31
23.81
21.93
21.93
23.59
26.29
29.32
32.06
34.12
35.34
35.70
35.22
33.88
31.68
28.66
24.99
21.03
17.22
14.04
11.77
10.40
9.66
9.04
8.10
6.59
4.61
2.50
0.65
-0.67
-1.49
-2.08
-2.82
-4.02
-5.80
-8.04
-10.47
-12.77
-14.76
-16.46
-18.08
-19.93
-22.27
-25.17
-28.47
-31.79
-34.74
-37.05
-38.76
-40.16
-41.77
-44.16
-47.80
-52.84
-58.99
-65.33
-70.34
-72.15
-69.06
-60.19
-45.88
-27.78
-8.36
9.79
24.74
35.59
42.42
45.91
46.83
45.77
43.12
39.25
34.68
30.19
26.62
24.66
24.58
26.16
28.77
31.63
34.04
35.62
36.33
36.30
35.72
34.64
32.97
30.60
27.53
24.00
20.43
17.26
14.79
13.01
11.63
10.24
8.52
6.40
4.15
2.15
0.74
-0.01
-0.38
-0.86
-1.94
-3.83
-6.38
-9.14
-11.62
-13.54
-15.02
-16.42
-18.24
-20.76
-23.90
-27.30
-30.44
-32.99
-34.90
-36.45
-38.18
-40.65
-44.26
-49.14
-55.00
-61.08
-66.17
-68.77
-67.39
-61.04
-49.63
-34.20
-16.68
0.64
15.75
27.45
35.44
40.11
42.05
41.76
39.61
35.92
31.25
26.49
22.65
20.60
20.75
22.89
26.33
30.11
33.35
35.51
36.47
36.36
35.43
33.82
31.45
28.16
23.81
18.52
12.72
7.03
2.05
-1.86
-4.69
-6.82
-8.77
-11.11
-14.17
-18.00
-22.29
-26.54
-30.25
-33.15
-35.40
-37.52
-40.30
-44.43
-50.33
-57.93
-66.59
-75.06
-81.62
-84.31
-81.42
-72.11
-56.88
-37.58
-16.94
2.26
18.09
29.88
38.11
43.76
47.68
50.17
51.14
50.43
48.24
45.22
42.33
40.43
39.97
40.89
42.70
44.80
46.64
47.94
48.57
48.46
47.52
45.56
42.44
38.20
33.11
27.70
22.58
18.20
14.64
11.67
8.80
5.65
2.13
-1.48
-4.77
-7.38
-9.33
-11.01
-13.02
-15.91
-19.85
-24.59
-29.58
-34.21
-38.07
-41.16
-43.85
-46.72
-50.44
-55.54
-62.21
-70.15
-78.35
-85.10
-88.29
-85.92
-76.84
-61.30
-41.10
-19.03
1.92
19.52
32.82
42.10
48.32
52.43
54.94
55.90
55.19
52.97
49.84
46.77
44.68
44.11
44.98
46.71
48.55
49.92
50.60
50.63
50.19
49.30
47.83
45.53
42.25
38.09
33.49
29.02
25.23
22.41
20.50
19.14
17.88
16.38
14.57
12.65
10.96
9.78
9.19
9.01
8.89
8.42
7.34
5.63
3.48
1.21
-0.89
-2.72
-4.34
-5.96
-7.77
-9.87
-12.19
-14.54
-16.72
-18.57
-20.05
-21.30
-22.57
-24.18
-26.37
-29.21
-32.53
-35.92
-38.93
-41.27
-42.93
-44.26
-45.89
-48.48
-52.52
-58.16
-64.99
-71.92
-77.28
-79.09
-75.64
-66.08
-50.86
-31.73
-11.26
7.95
23.97
35.95
43.95
48.51
50.22
49.49
46.63
42.19
37.04
32.34
29.20
28.30
29.67
32.73
36.51
40.05
42.67
44.12
44.44
43.81
42.42
40.34
37.61
34.25
30.39
26.31
22.36
18.93
16.29
14.48
13.31
12.42
11.46
10.21
8.70
7.13
5.74
4.65
3.74
2.78
1.54
-0.05
-1.88
-3.70
-5.32
-6.73
-8.13
-9.81
-12.00
-14.66
-17.50
-20.07
-22.01
-23.23
-24.06
-25.04
-26.76
-29.51
-33.12
-37.08
-40.72
-43.57
-45.55
-47.00
-48.62
-51.13
-55.15
-60.96
-68.27
-76.08
-82.59
-85.55
-82.87
-73.33
-57.21
-36.39
-13.80
7.45
25.04
37.91
46.24
50.86
52.77
52.65
50.89
47.82
43.96
40.02
36.84
35.01
34.80
36.01
38.17
40.72
43.16
45.14
46.41
46.78
46.11
44.35
41.56
37.95
33.85
29.61
25.59
22.05
19.12
16.75
14.84
13.20
11.68
10.20
8.82
7.62
6.65
5.87
5.14
4.27
3.11
1.59
-0.20
-2.10
-3.89
-5.39
-6.57
-7.55
-8.55
-9.81
-11.47
-13.47
-15.58
-17.51
-19.11
-20.43
-21.75
-23.42
-25.73
-28.69
-32.05
-35.37
-38.21
-40.36
-41.89
-43.20
-44.89
-47.59
-51.75
-57.40
-63.99
-70.28
-74.47
-74.61
-69.21
-57.81
-41.34
-21.89
-2.10
15.56
29.51
39.21
44.99
47.57
47.65
45.73
42.24
37.71
32.89
28.67
25.81
24.77
25.52
27.60
30.35
33.11
35.44
37.17
38.28
38.81
38.67
37.68
35.65
32.52
28.50
24.08
19.86
16.38
13.89
12.31
11.28
10.38
9.33
8.03
6.58
5.11
3.76
2.57
1.54
0.69
-0.02
-0.64
-1.29
-2.15
-3.40
-5.12
-7.26
-9.64
-11.99
-14.05
-15.69
-16.94
-17.98
-19.11
-20.61
-22.65
-25.19
-27.99
-30.66
-32.89
-34.53
-35.75
-36.97
-38.72
-41.55
-45.73
-51.16
-57.19
-62.66
-65.96
-65.46
-59.95
-49.11
-33.81
-15.98
1.96
17.76
29.97
38.16
42.74
44.48
44.08
41.97
38.44
33.80
28.70
23.98
20.55
19.05
19.62
21.88
25.11
28.48
31.27
33.09
33.81
33.53
32.43
30.66
28.30
25.38
21.98
18.34
14.78
11.69
9.36
7.83
6.89
6.13
5.13
3.69
1.89
0.05
-1.45
-2.38
-2.83
-3.13
-3.75
-5.03
-7.06
-9.62
-12.35
-14.85
-16.88
-18.46
-19.77
-21.15
-22.90
-25.20
-28.04
-31.24
-34.44
-37.34
-39.69
-41.55
-43.21
-45.20
-48.10
-52.34
-57.92
-64.26
-70.14
-73.86
-73.64
-68.14
-57.04
-41.23
-22.65
-3.72
13.31
26.92
36.54
42.38
45.07
45.26
43.55
40.40
36.39
32.19
28.51
25.97
24.89
25.26
26.79
29.01
31.47
33.75
35.59
36.81
37.28
36.92
35.60
33.28
30.00
25.97
21.56
17.27
13.53
10.56
8.31
6.49
4.69
2.62
0.23
-2.31
-4.69
-6.65
-8.13
-9.30
-10.48
-12.03
-14.18
-16.95
-20.18
-23.53
-26.67
-29.42
-31.82
-34.12
-36.72
-40.05
-44.42
-49.88
-56.03
-61.92
-66.12
-67.02
-63.28
-54.38
-40.93
-24.58
-7.49
8.28
21.33
31.12
37.76
41.61
42.94
41.97
38.96
34.44
29.27
24.48
21.00
19.34
19.53
21.18
23.63
26.22
28.43
29.97
30.67
30.39
29.02
26.45
22.70
17.99
12.74
7.53
2.85
-1.06
-4.27
-7.14
-10.11
-13.51
-17.38
-21.46
-25.34
-28.65
-31.24
-33.34
-35.49
-38.37
-42.61
-48.55
-56.00
-64.14
-71.46
-76.06
-76.09
-70.30
-58.60
-42.20
-23.26
-4.25
12.79
26.73
37.36
45.05
50.23
53.12
53.75
52.22
48.96
44.84
40.97
38.35
37.51
38.43
40.61
43.38
46.09
48.32
49.84
50.54
50.35
49.18
47.00
43.84
39.87
35.38
30.74
26.35
22.58
19.67
17.65
16.29
15.22
14.02
12.41
10.32
7.93
5.53
3.38
1.60
0.12
-1.33
-3.02
-5.18
-7.88
-10.96
-14.11
-17.00
-19.41
-21.38
-23.23
-25.45
-28.47
-32.48
-37.22
-42.06
-46.31
-49.48
-51.58
-53.11
-54.93
-57.92
-62.78
-69.71
-78.32
-87.44
-95.16
-99.11
-97.00
-87.47
-70.66
-48.41
-23.81
-0.22
19.72
34.70
44.81
51.01
54.45
55.93
55.84
54.38
51.88
48.97
46.54
45.34
45.70
47.43
49.86
52.22
53.98
54.95
55.27
55.12
54.55
53.34
51.15
47.76
43.21
37.94
32.59
27.81
24.01
21.27
19.37
17.93
16.58
15.12
13.45
11.59
9.59
7.49
5.33
3.20
1.24
-0.40
-1.55
-2.17
-2.35
-2.37
-2.58
-3.34
-4.87
-7.10
-9.72
-12.31
-14.55
-16.38
-18.02
-19.88
-22.33
-25.48
-29.18
-33.04
-36.65
-39.80
-42.54
-45.19
-48.22
-52.17
-57.44
-64.15
-71.87
-79.48
-85.18
-86.88
-82.80
-72.14
-55.52
-34.90
-13.06
7.26
24.08
36.52
44.68
49.23
50.88
50.20
47.66
43.75
39.20
34.94
31.93
30.83
31.82
34.52
38.15
41.79
44.70
46.50
47.14
46.78
45.63
43.77
41.19
37.85
33.81
29.33
24.85
20.88
17.79
15.74
14.64
14.16
13.86
13.38
12.49
11.13
9.46
7.67
5.95
4.41
3.05
1.76
0.38
-1.24
-3.25
-5.69
-8.52
-11.55
-14.51
-17.12
-19.22
-20.91
-22.51
-24.45
-27.07
-30.42
-34.20
-37.93
-41.17
-43.73
-45.82
-47.88
-50.50
-54.18
-59.25
-65.73
-73.11
-80.21
-85.17
-85.81
-80.32
-67.96
-49.55
-27.37
-4.50
16.10
32.45
43.86
50.76
54.14
54.97
53.86
51.12
47.04
42.20
37.51
34.03
32.56
33.32
35.83
39.18
42.38
44.81
46.33
47.07
47.18
46.62
45.09
42.33
38.27
33.23
27.83
22.76
18.54
15.38
13.18
11.66
10.53
9.50
8.41
7.16
5.69
4.04
2.30
0.65
-0.78
-1.92
-2.87
-3.90
-5.32
-7.38
-10.08
-13.16
-16.21
-18.79
-20.70
-22.05
-23.27
-24.88
-27.26
-30.45
-34.10
-37.66
-40.62
-42.77
-44.27
-45.61
-47.43
-50.34
-54.72
-60.66
-67.72
-74.86
-80.38
-82.19
-78.43
-68.13
-51.79
-31.36
-9.72
10.22
26.43
38.11
45.59
49.77
51.45
51.12
48.95
45.15
40.32
35.39
31.48
29.43
29.57
31.55
34.60
37.87
40.69
42.79
44.09
44.62
44.32
43.02
40.55
36.89
32.27
27.21
22.31
18.09
14.83
12.51
10.88
9.55
8.19
6.59
4.73
2.75
0.86
-0.71
-1.84
-2.59
-3.18
-3.97
-5.29
-7.34
-10.03
-13.01
-15.80
-18.01
-19.54
-20.63
-21.80
-23.60
-26.33
-29.87
-33.74
-37.32
-40.12
-42.03
-43.36
-44.77
-47.00
-50.64
-55.93
-62.60
-69.76
-75.93
-79.23
-77.83
-70.52
-57.27
-39.35
-19.05
0.93
18.30
31.74
40.94
46.43
48.98
49.30
47.79
44.73
40.47
35.67
31.23
28.10
26.94
27.86
30.40
33.76
37.04
39.63
41.24
41.86
41.55
40.36
38.22
35.10
31.13
26.61
21.95
17.56
13.72
10.51
7.91
5.78
4.03
2.52
1.13
-0.34
-2.07
-4.20
-6.73
-9.45
-12.09
-14.39
-16.34
-18.19
-20.38
-23.32
-27.18
-31.73
-36.45
-40.72
-44.07
-46.48
-48.33
-50.30
-53.12
-57.42
-63.52
-71.29
-79.92
-87.84
-92.82
-92.48
-85.08
-70.23
-49.31
-25.19
-1.33
19.21
34.66
44.75
50.41
52.96
53.51
52.66
50.70
47.81
44.36
40.97
38.39
37.18
37.50
39.06
41.23
43.37
44.96
45.73
45.58
44.62
42.94
40.49
37.02
32.35
26.50
19.84
12.79
5.95
0.05
-4.40
-7.46
-9.78
-12.28
-15.59
-19.95
-25.51
-31.96
-38.33
-43.65
-47.54
-50.52
-53.71
-57.96
-63.84
-72.23
-83.00
-94.56
-104.82
-112.08
-115.98
-117.29
-116.81
-115.32
-114.09
-112.36
-106.76
-92.82
-66.97
-28.45
20.55
77.01
137.73
199.33
251.55
283.42
289.05
272.17
242.22
207.51
173.17
148.64
129.68
112.04
93.70
74.11
53.30
31.15
3.01
-31.46
-70.86
-114.32
-159.26
-201.89
-237.99
-263.68
-276.38
-275.20
-260.08
-233.11
-199.10
-162.72
-127.64
-96.14
-69.10
-46.66
-28.70
-14.33
-2.81
6.01
13.09
19.60
26.32
33.15
39.09
42.85
44.05
43.12
40.84
38.59
37.51
38.16
40.47
43.94
47.85
51.70
54.95
56.93
57.17
55.44
51.87
47.02
41.71
36.75
32.67
29.46
26.64
23.57
19.89
15.90
12.63
11.58
14.13
20.96
31.70
45.08
59.28
72.61
83.89
92.59
98.67
102.21
103.27
101.77
97.74
91.41
83.38
74.47
65.53
57.23
49.95
43.86
39.01
35.53
33.57
33.19
34.22
36.13
38.11
39.28
39.02
37.17
34.09
30.50
27.27
25.10
24.36
24.91
26.18
27.28
27.26
25.42
21.51
15.81
8.97
1.74
-5.35
-12.16
-18.90
-25.93
-33.62
-42.10
-51.30
-60.94
-70.51
-79.33
-86.74
-92.36
-96.47
-100.09
-104.79
-111.99
-122.20
-134.38
-146.06
-154.00
-155.37
-148.70
-134.30
-113.97
-90.23
-65.60
-42.05
-20.95
-3.14
10.90
21.10
27.81
31.98
34.98
38.23
42.71
48.74
56.00
63.86
71.78
79.57
87.42
95.59
104.20
113.00
121.43
128.73
134.09
136.74
136.08
131.66
123.34
111.31
96.14
78.63
59.69
40.25
21.13
3.03
-13.51
-28.16
-40.75
-51.21
-59.58
-65.99
-70.57
-73.57
-75.28
-75.98
-75.91
-75.16
-73.71
-71.51
-68.54
-64.82
-60.39
-55.25
-49.34
-42.60
-35.18
-27.56
-20.57
-15.22
-12.31
-11.97
-13.46
-15.04
-14.40
-9.24
2.02
19.72
42.68
68.35
93.16
113.02
124.12
123.68
110.70
86.44
54.28
18.93
-14.75
-42.89
-63.37
-75.83
-81.17
-80.81
-76.15
-68.39
-58.65
-48.06
-37.69
-28.35
-20.28
-13.27
-6.85
-0.69
5.04
9.69
12.35
12.29
9.30
3.80
-3.25
-10.70
-17.56
-23.33
-27.97
-31.87
-35.59
-39.64
-44.25
-49.33
-54.55
-59.50
-63.93
-67.86
-71.54
-75.32
-79.39
-83.69
-87.88
-91.36
-93.33
-92.86
-89.06
-81.23
-69.15
-53.26
-34.71
-15.15
3.61
20.10
33.42
43.34
50.06
53.92
55.23
54.26
51.42
47.45
43.50
40.86
40.57
43.10
48.09
54.53
61.21
67.16
71.87
75.33
77.66
78.94
79.08
77.94
75.60
72.52
69.51
67.47
67.02
68.18
70.37
72.52
73.49
72.43
68.99
63.39
56.25
48.38
40.51
33.18
26.65
20.88
15.69
10.72
5.62
0.06
-6.19
-13.19
-20.96
-29.48
-38.71
-48.54
-58.66
-68.44
-76.99
-83.15
-85.71
-83.53
-75.71
-61.93
-42.65
-19.36
5.52
29.09
48.74
62.68
70.42
72.56
70.40
65.41
58.90
51.92
45.34
39.83
35.78
33.26
31.95
31.29
30.76
30.01
28.95
27.65
26.24
24.89
23.71
22.82
22.31
22.15
22.21
22.19
21.63
19.94
16.60
11.31
4.25
-3.77
-11.46
-17.50
-21.00
-21.96
-21.28
-20.38
-20.52
-22.36
-25.75
-29.95
-33.98
-36.97
-38.38
-38.25
-37.32
-37.12
-39.75
-47.24
-60.63
-79.22
-100.31
-119.84
-133.67
-138.81
-134.10
-120.13
-98.72
-72.30
-43.72
-16.18
6.94
22.67
29.47
28.00
21.03
12.37
5.21
0.95
-0.94
-1.96
-3.32
-5.01
-5.73
-3.74
1.97
10.94
21.44
31.09
37.75
40.09
38.03
32.96
27.33
23.58
23.28
26.67
32.64
38.89
41.78
37.20
22.17
-3.58
-36.73
-70.48
-96.04
-105.24
-93.78
-63.67
-22.90
17.68
48.28
62.97
60.55
43.70
17.82
-9.04
-29.26
-39.97
-43.26
-42.50
-39.40
-33.93
-25.85
-15.90
-5.93
1.55
4.73
3.76
0.70
-1.60
-1.14
2.44
8.17
14.22
18.56
19.88
18.34
15.49
13.31
13.19
15.26
18.85
22.63
25.21
25.82
24.67
22.88
21.82
22.30
24.11
26.43
27.96
27.47
24.36
18.91
12.16
5.29
-0.93
-7.08
-13.49
-20.96
-29.98
-40.32
-50.89
-60.13
-66.85
-69.58
-69.65
-68.44
-67.44
-67.82
-70.37
-75.55
-83.16
-91.82
-98.53
-99.26
-89.98
-69.18
-39.14
-5.52
24.70
46.12
56.93
59.10
56.44
52.65
49.40
46.42
42.73
37.98
32.97
29.10
27.38
27.61
28.60
28.81
26.98
22.95
17.61
12.38
8.60
6.97
7.13
8.09
8.63
7.74
5.23
1.73
-1.59
-3.42
-2.89
0.14
5.01
10.60
15.75
19.73
22.57
24.79
27.28
30.74
35.35
40.62
45.50
48.91
50.11
49.12
46.62
43.81
41.88
41.80
44.17
49.11
55.92
62.89
67.20
65.54
55.47
36.64
11.49
-15.26
-38.28
-53.64
-60.11
-59.18
-53.93
-47.37
-41.29
-36.07
-31.33
-26.75
-22.48
-19.01
-16.65
-15.24
-14.14
-12.53
-9.97
-6.69
-3.47
-1.23
-0.56
-1.36
-2.92
-4.29
-4.63
-3.63
-1.58
0.82
2.72
3.51
2.98
1.34
-0.98
-3.48
-5.76
-7.64
-9.17
-10.55
-12.06
-13.99
-15.97
-17.69
-18.76
-18.78
-17.43
-14.60
-10.48
-5.55
-0.44
4.21
7.88
10.39
11.77
12.27
12.16
11.62
10.79
9.70
8.41
6.99
5.61
4.53
4.02
4.18
4.95
6.06
7.14
7.85
8.00
7.61
6.89
6.09
5.36
4.70
4.03
3.20
2.19
1.05
-0.05
-0.95
-1.53
-1.78
-1.81
-1.82
-2.00
-2.52
-3.54
-5.14
-7.35
-10.01
-12.76
-15.08
-16.31
-15.99
-13.94
-10.43
-6.09
-1.64
2.30
5.45
7.84
9.63
10.92
11.64
11.59
10.61
8.76
6.38
4.05
2.35
1.69
2.11
3.33
4.83
6.04
6.63
6.56
6.08
5.61
5.50
5.86
6.49
6.98
6.82
5.68
3.44
0.40
-2.80
-5.25
-5.91
-4.00
0.40
5.87
9.78
9.18
2.28
-10.37
-25.68
-39.07
-46.35
-45.28
-36.26
-21.74
-5.16
10.06
21.13
26.17
24.55
17.24
6.94
-2.59
-7.88
-7.39
-2.25
4.18
7.96
6.27
-1.55
-14.11
-28.93
-43.42
-55.57
-64.00
-67.91
-66.99
-61.62
-53.00
-43.05
-33.99
-27.68
-25.04
-25.81
-28.76
-32.22
-34.65
-35.12
-33.51
-30.40
-26.87
-24.11
-23.15
-24.55
-28.31
-33.77
-39.83
-45.15
-48.55
-49.22
-46.87
-41.61
-33.83
-24.09
-12.96
-1.10
10.90
22.40
32.83
41.70
48.68
53.62
56.62
57.99
58.18
57.72
57.08
56.53
56.11
55.67
54.93
53.65
51.70
49.12
46.12
42.93
39.79
36.75
33.67
30.36
26.63
22.53
18.23
14.06
10.24
6.76
3.42
-0.16
-4.35
-9.36
-15.15
-21.44
-27.66
-32.99
-36.52
-37.40
-35.08
-29.51
-21.20
-11.12
-0.46
9.65
18.37
25.25
30.17
33.20
34.53
34.34
32.83
30.31
27.21
24.03
21.31
19.44
18.54
18.51
19.06
19.85
20.61
21.16
21.41
21.22
20.44
18.93
16.65
13.71
10.38
6.97
3.73
0.73
-2.17
-5.17
-8.43
-11.94
-15.51
-18.86
-21.74
-24.09
-26.08
-28.13
-30.74
-34.39
-39.25
-45.13
-51.31
-56.73
-60.13
-60.46
-57.17
-50.39
-40.84
-29.70
-18.24
-7.62
1.30
7.97
12.15
13.86
13.35
11.11
7.75
3.97
0.38
-2.61
-4.94
-6.75
-8.42
-10.26
-12.34
-14.32
-15.52
-15.09
-12.31
-6.75
1.66
12.65
25.80
40.68
56.92
74.28
92.53
111.29
129.75
146.46
159.23
165.50
163.05
150.93
130.02
103.08
74.04
46.83
24.36
7.92
-2.58
-8.20
-10.23
-9.87
-8.14
-6.03
-4.57
-4.71
-6.93
-10.97
-15.85
-20.16
-22.63
-22.67
-20.57
-17.32
-14.15
-11.99
-11.17
-11.44
-12.20
-12.88
-13.19
-13.12
-12.89
-12.71
-12.68
-12.72
-12.65
-12.31
-11.59
-10.54
-9.28
-8.01
-6.87
-6.01
-5.46
-5.24
-5.29
-5.52
-5.79
-6.01
-6.14
-6.23
-6.42
-6.84
-7.57
-8.58
-9.72
-10.85
-11.81
-12.55
-13.05
-13.35
-13.48
-13.49
-13.43
-13.38
-13.41
-13.57
-13.83
-14.12
-14.38
-14.62
-14.94
-15.51
-16.45
-17.72
-19.07
-20.13
-20.45
-19.72
-17.90
-15.18
-11.96
-8.69
-5.78
-3.48
-1.84
-0.76
-0.08
0.32
0.53
0.52
0.25
-0.28
-1.00
-1.76
-2.36
-2.65
-2.55
-2.06
-1.28
-0.36
0.58
1.44
2.14
2.63
2.86
2.80
2.44
1.84
1.09
0.34
-0.30
-0.79
-1.20
-1.66
-2.32
-3.26
-4.47
-5.75
-6.88
-7.64
-7.97
-8.01
-8.04
-8.38
-9.17
-10.44
-12.02
-13.69
-15.27
-16.58
-17.40
-17.50
-16.64
-14.69
-11.77
-8.23
-4.63
-1.46
0.93
2.47
3.28
3.56
3.50
3.20
2.74
2.16
1.56
1.01
0.65
0.51
0.63
0.95
1.40
1.89
2.35
2.74
3.06
3.30
3.43
3.40
3.15
2.67
2.01
1.26
0.50
-0.29
-1.12
-2.03
-3.01
-3.98
-4.86
-5.60
-6.25
-6.88
-7.58
-8.32
-9.06
-9.72
-10.31
-10.91
-11.62
-12.50
-13.58
-14.79
-16.11
-17.52
-19.00
-20.42
-21.50
-21.89
-21.25
-19.43
-16.53
-12.86
-8.89
-5.06
-1.73
0.94
2.87
4.12
4.75
4.80
4.37
3.54
2.50
1.51
0.86
0.77
1.30
2.27
3.38
4.33
4.96
5.30
5.52
5.75
6.01
6.18
6.05
5.45
4.38
3.02
1.64
0.47
-0.36
-0.91
-1.36
-1.89
-2.63
-3.54
-4.53
-5.48
-6.31
-7.06
-7.83
-8.77
-9.94
-11.37
-12.99
-14.64
-16.14
-17.21
-17.60
-17.05
-15.50
-13.01
-9.88
-6.51
-3.32
-0.58
1.60
3.28
4.61
5.71
6.62
7.28
7.54
7.34
6.70
5.78
4.85
4.21
4.06
4.48
5.35
6.48
7.62
8.62
9.38
9.89
10.12
10.01
9.54
8.71
7.61
6.42
5.32
4.42
3.72
3.15
2.57
1.95
1.27
0.58
-0.10
-0.83
-1.69
-2.74
-3.99
-5.36
-6.75
-8.08
-9.35
-10.65
-12.10
-13.83
-15.95
-18.48
-21.30
-24.11
-26.43
-27.69
-27.41
-25.42
-21.92
-17.51
-12.95
-8.92
-5.78
-3.55
-1.97
-0.75
0.26
0.96
1.09
0.51
-0.76
-2.48
-4.21
-5.46
-5.83
-5.26
-4.17
-3.43
-3.79
-5.78
-9.38
-14.04
-18.75
-22.55
-24.97
-26.42
-28.03
-30.97
-36.06
-43.43
-52.30
-61.17
-68.28
-72.41
-73.69
-74.02
-75.63
-81.46
-94.65
-117.70
-151.29
-193.40
-239.25
-282.13
-315.06
-330.32
-323.40
-294.61
-248.72
-192.38
-131.24
-68.59
-5.91
55.25
115.44
172.88
223.07
260.50
282.23
289.99
289.43
287.35
288.62
299.59
322.99
357.29
397.65
438.81
477.35
511.73
541.18
540.49
493.96
402.94
287.15
171.06
70.90
-7.40
-64.57
-101.78
-127.19
-142.78
-149.27
-148.23
-142.88
-136.53
-131.05
-127.07
-124.59
-124.14
-122.64
-117.74
-109.17
-99.03
-90.18
-84.39
-81.96
-82.16
-84.21
-84.95
-82.16
-75.57
-66.99
-58.94
-53.22
-50.51
-50.62
-53.19
-56.53
-59.31
-61.04
-61.98
-62.58
-62.92
-62.60
-61.07
-57.95
-52.61
-44.87
-35.19
-24.63
-14.61
-6.45
-1.11
1.05
0.26
-2.56
-6.26
-9.67
-11.95
-12.66
-11.70
-9.22
-5.48
-0.87
4.18
9.17
13.68
17.48
20.60
23.27
25.76
28.23
30.75
33.35
36.14
39.32
43.13
47.72
53.11
59.16
65.59
71.99
77.82
82.35
84.79
84.40
80.79
74.01
64.57
53.26
40.92
28.21
15.63
3.54
-7.70
-17.70
-26.09
-32.69
-37.54
-40.91
-43.14
-44.50
-45.05
-44.73
-43.40
-41.10
-38.00
-34.44
-30.73
-27.08
-23.58
-20.22
-17.08
-14.31
-12.10
-10.55
-9.45
-8.29
-6.45
-3.46
0.75
5.76
10.84
15.14
18.04
19.20
18.61
16.43
12.87
8.09
2.21
-4.69
-12.50
-21.06
-30.13
-39.33
-48.19
-56.04
-62.16
-65.67
-65.66
-61.23
-51.84
-37.53
-19.25
1.12
21.14
38.32
50.80
57.81
59.67
57.50
52.75
46.80
40.86
35.97
33.08
32.83
35.35
40.12
46.00
51.64
55.88
58.15
58.42
57.00
54.09
49.59
43.19
34.60
24.03
12.51
1.64
-6.77
-11.56
-12.43
-9.85
-4.82
1.54
8.43
15.35
21.91
27.52
31.11
31.54
28.23
21.52
12.62
3.41
-4.11
-8.51
-9.20
-7.08
-3.75
-0.68
1.27
1.50
0.20
-1.71
-3.02
-2.41
-0.47
1.29
1.28
-1.91
-10.00
-23.28
-39.95
-56.35
-67.34
-70.96
-67.40
-58.20
-46.37
-36.98
-33.95
-38.17
-47.12
-54.49
-57.60
-56.03
-51.01
-45.94
-47.35
-60.79
-87.76
-125.25
-164.76
-202.60
-238.08
-272.01
-288.07
-275.08
-235.45
-185.24
-156.24
-145.87
-146.11
-150.74
-147.35
-130.29
-100.19
-60.31
-13.15
41.52
109.22
188.42
271.48
346.71
400.55
421.70
406.56
360.93
288.18
204.62
128.42
74.12
47.79
46.44
61.44
81.95
97.52
100.51
91.89
75.14
55.76
38.90
26.40
16.45
5.54
-8.38
-26.01
-41.55
-51.77
-57.15
-61.02
-67.52
-79.17
-96.09
-111.71
-123.47
-128.29
-125.80
-118.20
-109.26
-102.55
-100.04
-101.86
-107.10
-114.96
-123.56
-130.90
-134.34
-130.64
-116.77
-91.80
-58.11
-21.24
11.76
35.79
49.13
53.57
53.14
51.72
51.62
53.52
57.05
62.34
69.67
79.54
91.48
103.50
112.35
114.73
109.38
96.65
81.57
69.22
62.55
61.13
61.87
61.80
57.79
49.65
39.02
28.16
18.25
9.56
1.92
-4.70
-8.65
-8.52
-3.32
6.15
18.13
29.97
40.20
47.74
53.21
58.03
63.63
71.51
82.31
95.85
110.28
122.08
126.30
118.41
96.08
59.14
15.06
-26.94
-59.32
-78.89
-87.14
-89.38
-89.31
-88.76
-87.57
-84.50
-79.11
-72.27
-65.71
-60.91
-58.17
-56.37
-54.00
-48.57
-40.40
-30.93
-22.05
-15.41
-11.68
-10.49
-10.51
-10.27
-8.76
-5.76
-1.77
2.27
5.45
7.33
8.06
8.34
8.98
10.46
12.74
15.43
17.95
19.77
20.61
20.51
19.65
18.20
16.12
13.08
8.72
2.91
-4.45
-12.55
-20.21
-26.30
-29.98
-30.90
-29.38
-26.11
-21.72
-16.63
-11.07
-4.81
2.10
9.21
15.44
19.77
20.42
16.53
8.48
-3.02
-15.61
-27.50
-37.55
-45.68
-52.63
-59.36
-66.66
-73.79
-82.13
-91.83
-101.84
-109.36
-110.27
-100.68
-79.08
-47.65
-12.22
19.79
42.84
54.96
58.01
56.02
52.74
49.93
47.41
44.24
39.85
35.15
31.61
30.25
30.94
32.44
33.17
31.86
28.35
23.37
18.46
14.93
13.45
13.73
14.77
15.33
14.45
11.98
8.33
4.55
1.71
0.40
0.59
1.63
2.56
2.51
1.07
-1.61
-4.73
-7.27
-8.43
-7.96
-6.23
-4.24
-3.07
-3.52
-5.68
-8.81
-11.51
-12.43
-10.68
-6.20
0.21
7.28
13.97
19.85
25.40
31.93
40.43
51.59
65.54
81.75
98.90
114.39
124.60
124.92
113.38
90.70
61.09
31.14
7.22
-7.16
-12.70
-13.52
-14.63
-19.39
-28.51
-40.11
-51.18
-58.85
-61.24
-57.62
-48.40
-35.02
-19.77
-5.64
4.97
10.67
11.66
9.36
5.75
2.42
0.36
-0.05
1.17
3.86
7.47
10.96
12.91
12.15
8.24
1.68
-6.21
-14.36
-21.78
-28.40
-34.83
-41.83
-49.71
-58.11
-66.20
-72.17
-75.66
-76.53
-75.35
-73.44
-72.72
-75.26
-82.26
-93.04
-103.59
-108.06
-100.55
-78.33
-43.86
-4.40
30.65
53.78
62.53
60.11
52.93
47.51
47.08
50.80
55.26
57.12
54.92
49.51
43.08
37.57
34.06
32.53
32.20
32.16
31.45
28.66
21.98
9.58
-9.27
-32.73
-55.69
-70.88
-71.56
-55.24
-26.17
5.06
25.45
25.31
3.44
-32.27
-68.09
-90.99
-94.59
-81.25
-59.65
-39.24
-26.71
-22.11
-21.44
-20.30
-17.06
-13.19
-11.44
-13.20
-16.99
-19.08
-14.98
-2.93
15.55
36.27
54.33
66.06
70.59
69.77
66.06
63.38
63.70
66.80
70.68
72.86
71.56
66.53
59.02
51.20
45.28
42.35
42.25
43.75
45.22
45.26
43.32
39.65
35.52
31.98
29.74
28.92
29.02
29.08
28.13
25.93
22.29
17.85
13.60
10.44
8.94
9.36
11.77
16.00
21.36
26.33
28.71
26.21
17.51
3.18
-14.24
-31.15
-44.31
-52.16
-55.09
-54.64
-52.42
-49.19
-44.81
-38.94
-31.81
-24.47
-18.40
-14.76
-13.73
-14.58
-16.04
-16.91
-16.62
-15.30
-13.58
-12.20
-11.64
-11.85
-12.34
-12.38
-11.35
-9.09
-5.93
-2.56
0.29
2.19
3.09
3.30
3.22
3.12
3.00
2.67
1.93
0.74
-0.73
-2.19
-3.32
-3.95
-4.07
-3.87
-3.65
-3.69
-4.15
-4.83
-5.58
-6.30
-7.01
-7.86
-9.08
-10.89
-13.39
-16.52
-19.97
-23.30
-25.90
-27.09
-26.40
-23.59
-18.90
-12.91
-6.48
-0.45
4.53
8.08
10.16
10.93
10.56
9.24
7.12
4.46
1.66
-0.79
-2.29
-2.37
-0.76
2.44
6.86
11.95
17.11
21.81
25.66
28.37
29.78
29.86
28.72
26.58
23.75
20.53
17.15
13.74
10.34
6.96
3.64
0.44
-2.48
-5.00
-7.10
-8.90
-10.70
-12.92
-15.97
-20.06
-24.99
-30.06
-34.26
-36.45
-35.82
-32.11
-25.74
-17.68
-9.12
-1.13
5.55
10.59
13.97
15.86
16.48
16.02
14.70
12.79
10.63
8.57
6.92
5.87
5.53
5.90
6.84
8.20
9.73
11.18
12.35
13.06
13.22
12.80
11.85
10.45
8.69
6.69
4.58
2.47
0.43
-1.55
-3.50
-5.47
-7.46
-9.39
-11.13
-12.55
-13.65
-14.57
-15.64
-17.25
-19.78
-23.41
-27.99
-32.96
-37.48
-40.54
-41.26
-39.10
-34.03
-26.52
-17.44
-7.86
1.21
8.99
15.06
19.23
21.50
22.01
21.04
19.07
16.81
15.24
15.38
18.07
23.68
31.88
41.75
51.99
61.27
68.61
73.41
75.51
74.95
71.90
66.65
59.70
51.84
44.11
37.55
32.88
30.25
29.26
29.08
28.87
27.95
25.90
22.51
17.65
11.24
3.30
-5.88
-15.73
-25.38
-33.95
-40.75
-45.41
-47.92
-48.44
-47.17
-44.32
-40.07
-34.69
-28.55
-22.08
-15.66
-9.56
-3.89
1.33
6.08
10.36
14.18
17.54
20.47
22.94
24.84
26.02
26.40
25.99
24.96
23.56
21.95
20.21
18.30
16.14
13.76
11.26
8.73
6.12
3.04
-1.18
-7.22
-15.46
-25.62
-36.76
-47.43
-56.16
-61.91
-64.45
-64.23
-62.22
-59.54
-57.10
-55.51
-55.02
-55.59
-57.01
-58.96
-61.13
-63.24
-65.19
-67.05
-69.11
-71.74
-75.16
-79.20
-83.14
-85.70
-85.39
-81.04
-72.27
-59.72
-44.87
-29.57
-15.43
-3.37
6.42
14.27
20.70
26.12
30.75
34.72
38.15
41.17
43.84
45.98
47.21
47.03
45.12
41.59
37.08
32.56
29.06
27.26
27.32
28.82
30.96
32.74
33.30
32.06
28.80
23.67
17.10
9.72
2.24
-4.70
-10.66
-15.38
-18.84
-21.15
-22.51
-23.19
-23.50
-23.89
-24.90
-27.08
-30.89
-36.48
-43.61
-51.60
-59.37
-65.49
-68.46
-66.98
-60.43
-49.41
-35.99
-23.46
-15.44
-14.69
-21.88
-35.11
-50.25
-62.24
-66.66
-61.08
-45.54
-22.21
5.45
33.79
59.82
81.59
98.24
109.79
116.93
120.68
122.07
121.83
120.05
116.16
109.14
98.01
82.38
62.79
40.75
18.54
-1.14
-15.76
-23.47
-23.74
-17.58
-7.36
3.93
13.65
20.27
23.50
23.81
21.75
17.55
11.28
3.33
-5.30
-13.33
-19.72
-24.22
-27.38
-29.98
-32.34
-34.07
-34.35
-32.58
-28.92
-24.25
-19.66
-15.82
-12.75
-9.91
-6.70
-2.89
1.23
5.03
7.88
9.45
9.91
9.73
9.52
9.72
10.41
11.37
12.22
12.58
12.27
11.29
9.81
8.08
6.33
4.80
3.62
2.83
2.35
1.98
1.46
0.60
-0.68
-2.38
-4.38
-6.53
-8.67
-10.70
-12.62
-14.49
-16.56
-19.14
-22.56
-26.96
-32.10
-37.27
-41.28
-42.81
-40.79
-34.82
-25.32
-13.44
-0.71
11.40
21.81
30.01
35.96
39.84
41.95
42.47
41.63
39.70
37.07
34.29
31.93
30.43
29.96
30.36
31.25
32.17
32.81
33.03
32.92
32.64
32.22
31.53
30.28
28.19
25.13
21.28
17.05
13.00
9.55
6.88
4.85
3.08
1.15
-1.20
-4.02
-7.16
-10.36
-13.40
-16.14
-18.56
-20.79
-23.06
-25.72
-29.10
-33.46
-38.76
-44.50
-49.68
-53.03
-53.30
-49.72
-42.34
-32.00
-20.12
-8.24
2.42
11.15
17.83
22.69
26.08
28.23
29.26
29.23
28.29
26.74
24.99
23.44
22.38
21.88
21.83
22.07
22.45
22.93
23.49
24.09
24.53
24.57
23.97
22.63
20.66
18.31
15.87
13.58
11.53
9.66
7.84
5.99
4.10
2.23
0.48
-1.12
-2.63
-4.15
-5.81
-7.62
-9.53
-11.40
-13.14
-14.70
-16.19
-17.80
-19.78
-22.38
-25.74
-29.91
-34.74
-39.79
-44.25
-47.11
-47.36
-44.34
-38.01
-29.05
-18.68
-8.26
1.03
8.54
14.09
17.90
20.28
21.55
21.89
21.44
20.33
18.82
17.24
15.94
15.22
15.23
15.90
17.01
18.25
19.34
20.06
20.29
20.03
19.34
18.29
16.97
15.45
13.73
11.82
9.73
7.53
5.34
3.28
1.45
-0.15
-1.56
-2.84
-4.04
-5.24
-6.51
-7.93
-9.52
-11.26
-13.03
-14.66
-16.03
-17.18
-18.34
-19.85
-22.05
-25.17
-29.18
-33.76
-38.27
-41.77
-43.24
-41.87
-37.29
-29.83
-20.39
-10.28
-0.77
7.25
13.38
17.68
20.39
21.78
22.03
21.26
19.67
17.62
15.60
14.05
13.31
13.40
14.16
15.24
16.31
17.15
17.65
17.80
17.60
17.09
16.24
15.06
13.58
11.87
10.09
8.41
6.97
5.84
5.03
4.46
3.98
3.46
2.77
1.84
0.63
-0.82
-2.41
-3.96
-5.30
-6.41
-7.41
-8.57
-10.10
-12.10
-14.42
-16.76
-18.80
-20.36
-21.48
-22.40
-23.49
-25.10
-27.52
-30.88
-35.05
-39.54
-43.52
-45.91
-45.69
-42.28
-35.72
-26.77
-16.64
-6.63
2.21
9.22
14.20
17.26
18.64
18.64
17.60
15.85
13.78
11.81
10.28
9.45
9.40
10.03
11.10
12.36
13.62
14.84
16.10
17.46
18.94
20.33
21.29
21.52
20.83
19.33
17.32
15.22
13.41
12.11
11.39
11.19
11.46
12.19
13.44
15.28
17.74
20.68
23.86
26.96
29.66
31.74
33.15
34.05
34.73
35.55
36.69
38.06
39.14
39.17
37.32
33.08
26.51
18.34
9.81
2.35
-2.81
-4.92
-3.89
-0.14
5.58
12.41
19.50
26.16
31.71
35.42
36.55
34.46
28.83
19.94
8.66
-3.75
-15.95
-26.92
-36.15
-43.54
-49.24
-53.35
-55.86
-56.62
-55.55
-52.79
-48.76
-44.08
-39.44
-35.42
-32.35
-30.26
-28.99
-28.31
-28.14
-28.62
-30.06
-32.65
-36.34
-40.65
-44.84
-48.21
-50.39
-51.47
-51.87
-52.07
-52.33
-52.54
-52.34
-51.39
-49.56
-47.11
-44.56
-42.52
-41.56
-42.03
-44.05
-47.46
-51.74
-56.03
-59.16
-59.93
-57.40
-51.22
-41.80
-30.26
-18.02
-6.51
3.35
11.18
17.09
21.45
24.60
26.75
27.95
28.23
27.76
26.86
25.99
25.56
25.78
26.63
27.88
29.27
30.59
31.71
32.56
33.05
33.07
32.44
31.08
29.03
26.50
23.82
21.31
19.23
17.63
16.36
15.13
13.64
11.73
9.47
7.06
4.80
2.90
1.36
-0.01
-1.52
-3.41
-5.78
-8.47
-11.22
-13.76
-15.94
-17.84
-19.75
-22.05
-25.18
-29.39
-34.63
-40.38
-45.67
-49.21
-49.74
-46.45
-39.30
-29.09
-17.19
-5.19
5.65
14.57
21.34
26.09
29.06
30.47
30.46
29.27
27.22
24.84
22.68
21.21
20.72
21.17
22.34
23.90
25.54
27.08
28.43
29.49
30.15
30.27
29.72
28.43
26.46
23.92
20.99
17.87
14.71
11.70
8.97
6.63
4.67
2.93
1.20
-0.68
-2.76
-4.89
-6.83
-8.41
-9.63
-10.70
-11.95
-13.71
-16.19
-19.50
-23.59
-28.24
-32.96
-37.02
-39.46
-39.36
-36.12
-29.74
-20.90
-10.78
-0.69
8.25
15.35
20.35
23.36
24.58
24.27
22.69
20.21
17.29
14.52
12.50
11.64
12.03
13.40
15.33
17.36
19.16
20.60
21.68
22.44
22.84
22.82
22.27
21.16
19.54
17.57
15.47
13.43
11.62
10.08
8.79
7.67
6.65
5.65
4.62
3.51
2.22
0.67
-1.18
-3.33
-5.67
-8.10
-10.57
-13.06
-15.63
-18.42
-21.58
-25.28
-29.64
-34.58
-39.77
-44.51
-47.81
-48.64
-46.21
-40.28
-31.34
-20.47
-9.04
1.61
10.62
17.65
22.80
26.39
28.74
29.99
30.22
29.59
28.39
27.11
26.15
25.76
25.88
26.22
26.48
26.44
26.01
25.20
23.95
22.16
19.68
16.50
12.81
9.05
5.71
3.27
1.96
1.77
2.45
3.57
4.73
5.55
5.85
5.58
4.88
3.95
2.94
1.91
0.79
-0.56
-2.26
-4.29
-6.51
-8.68
-10.61
-12.24
-13.68
-15.20
-17.12
-19.73
-23.18
-27.41
-32.09
-36.56
-39.96
-41.37
-40.06
-35.71
-28.57
-19.42
-9.38
0.40
9.01
15.92
20.98
24.29
26.08
26.58
26.06
24.79
23.10
21.44
20.17
19.54
19.58
20.12
20.88
21.58
22.04
22.22
22.14
21.81
21.19
20.25
18.95
17.33
15.54
13.73
12.11
10.78
9.77
9.01
8.37
7.69
6.87
5.86
4.67
3.39
2.13
0.95
-0.10
-1.05
-1.99
-2.98
-4.07
-5.24
-6.39
-7.41
-8.22
-8.86
-9.43
-10.06
-10.82
-11.72
-12.66
-13.54
-14.29
-14.92
-15.50
-16.19
-17.21
-18.81
-21.23
-24.58
-28.63
-32.76
-35.99
-37.22
-35.60
-30.86
-23.44
-14.38
-4.98
3.59
10.52
15.51
18.60
20.06
20.15
19.14
17.24
14.73
12.01
9.55
7.85
7.18
7.62
8.91
10.65
12.37
13.75
14.66
15.13
15.24
15.05
14.50
13.54
12.19
10.57
8.89
7.36
6.09
5.10
4.34
3.67
3.02
2.33
1.56
0.75
-0.06
-0.79
-1.43
-2.01
-2.61
-3.41
-4.52
-5.99
-7.74
-9.63
-11.52
-13.24
-14.77
-16.17
-17.61
-19.36
-21.66
-24.59
-27.91
-31.09
-33.29
-33.67
-31.64
-27.11
-20.47
-12.63
-4.65
2.50
8.17
12.11
14.42
15.33
15.10
13.90
11.83
9.07
5.92
2.79
0.17
-1.60
-2.26
-1.75
-0.11
2.51
5.92
9.84
13.95
17.89
21.30
23.89
25.47
25.91
25.16
23.29
20.49
17.10
13.58
10.40
7.94
6.34
5.48
5.02
4.52
3.67
2.40
0.88
-0.66
-2.01
-3.15
-4.19
-5.32
-6.69
-8.35
-10.22
-12.17
-14.05
-15.74
-17.19
-18.41
-19.56
-20.91
-22.79
-25.50
-29.12
-33.47
-38.00
-41.92
-44.32
-44.41
-41.66
-36.09
-28.21
-18.95
-9.47
-0.80
6.31
11.55
14.94
16.76
17.34
16.98
15.95
14.55
13.09
11.90
11.26
11.34
12.13
13.41
14.86
16.12
16.95
17.23
17.01
16.42
15.59
14.54
13.27
11.74
9.95
7.99
6.00
4.07
2.21
0.33
-1.69
-3.92
-6.24
-8.44
-10.25
-11.52
-12.27
-12.65
-12.91
-13.24
-13.69
-14.21
-14.73
-15.25
-15.85
-16.73
-18.15
-20.33
-23.41
-27.39
-32.05
-36.78
-40.60
-42.32
-40.79
-35.38
-26.19
-14.18
-0.89
11.99
23.04
31.40
36.77
39.30
39.36
37.39
33.91
29.55
24.94
20.78
17.59
15.70
15.10
15.51
16.50
17.57
18.38
18.78
18.83
18.58
18.10
17.34
16.12
14.32
11.92
9.06
6.05
3.19
0.72
-1.27
-2.81
-4.07
-5.21
-6.37
-7.63
-8.95
-10.22
-11.33
-12.21
-12.93
-13.74
-14.98
-17.05
-20.17
-24.31
-29.04
-33.61
-37.04
-38.34
-36.82
-32.25
-25.04
-16.12
-6.70
2.03
9.18
14.26
17.22
18.27
17.70
15.87
13.13
9.92
6.72
3.98
2.11
1.29
1.44
2.26
3.29
4.10
4.40
4.15
3.47
2.52
1.40
0.11
-1.39
-3.05
-4.65
-5.82
-6.15
-5.35
-3.37
-0.48
2.92
6.36
9.47
12.01
13.85
14.96
15.37
15.05
14.02
12.28
9.88
6.98
3.77
0.52
-2.48
-5.05
-7.09
-8.73
-10.31
-12.29
-15.12
-19.07
-24.06
-29.53
-34.52
-37.84
-38.41
-35.61
-29.47
-20.71
-10.57
-0.39
8.68
15.91
21.09
24.35
26.01
26.43
25.90
24.68
23.05
21.32
19.87
18.98
18.82
19.35
20.34
21.46
22.44
23.11
23.47
23.60
23.56
23.32
22.72
21.59
19.88
17.72
15.45
13.48
12.05
11.18
10.62
10.03
9.19
8.09
6.96
6.05
5.52
5.28
5.06
4.53
3.46
1.84
-0.19
-2.32
-4.31
-5.96
-7.29
-8.40
-9.47
-10.66
-12.07
-13.68
-15.38
-17.01
-18.42
-19.55
-20.49
-21.41
-22.63
-24.43
-27.02
-30.38
-34.15
-37.60
-39.75
-39.59
-36.44
-30.23
-21.62
-11.77
-2.05
6.40
12.93
17.47
20.28
21.76
22.25
21.94
20.92
19.36
17.55
15.84
14.63
14.17
14.51
15.48
16.77
18.09
19.23
20.09
20.67
20.94
20.82
20.19
18.98
17.26
15.23
13.17
11.34
9.89
8.82
8.04
7.41
6.80
6.10
5.30
4.37
3.37
2.37
1.49
0.84
0.44
0.23
0.04
-0.30
-0.94
-1.95
-3.27
-4.78
-6.28
-7.62
-8.71
-9.58
-10.40
-11.39
-12.73
-14.46
-16.44
-18.40
-20.05
-21.22
-21.98
-22.62
-23.57
-25.24
-27.86
-31.39
-35.45
-39.37
-42.23
-43.09
-41.23
-36.36
-28.79
-19.40
-9.40
-0.06
7.68
13.32
16.90
18.75
19.35
19.11
18.36
17.31
16.15
15.04
14.18
13.71
13.73
14.22
15.06
16.06
17.05
17.91
18.57
19.02
19.24
19.15
18.61
17.50
15.78
13.62
11.32
9.22
7.62
6.61
6.07
5.75
5.33
4.61
3.55
2.29
1.02
-0.01
-0.67
-0.93
-0.91
-0.81
-0.79
-0.97
-1.36
-1.90
-2.50
-3.11
-3.77
-4.53
-5.50
-6.73
-8.24
-9.98
-11.84
-13.68
-15.36
-16.76
-17.79
-18.50
-19.03
-19.69
-20.84
-22.78
-25.70
-29.50
-33.75
-37.69
-40.37
-40.88
-38.53
-33.15
-25.16
-15.54
-5.56
3.47
10.64
15.55
18.34
19.54
19.74
19.37
18.67
17.71
16.59
15.50
14.73
14.55
15.06
16.16
17.58
19.06
20.43
21.65
22.71
23.57
24.08
24.03
23.25
21.70
19.49
16.90
14.31
12.10
10.58
9.88
9.93
10.45
11.01
11.24
10.86
9.81
8.23
6.33
4.27
2.13
-0.08
-2.39
-4.78
-7.16
-9.46
-11.59
-13.53
-15.27
-16.81
-18.12
-19.25
-20.28
-21.43
-22.98
-25.24
-28.36
-32.26
-36.53
-40.41
-42.96
-43.25
-40.64
-34.97
-26.71
-16.80
-6.46
3.14
11.16
17.10
20.91
22.73
22.86
21.61
19.36
16.53
13.61
11.10
9.37
8.60
8.80
9.76
11.21
12.87
14.52
15.98
17.13
17.85
18.08
17.76
16.94
15.75
14.37
12.99
11.77
10.79
10.04
9.47
9.01
8.60
8.16
7.65
7.04
6.37
5.76
5.32
5.09
5.00
4.84
4.37
3.49
2.27
0.98
-0.09
-0.74
-1.11
-1.66
-3.10
-6.15
-11.22
-18.19
-26.23
-34.04
-40.23
-43.83
-44.53
-42.77
-39.40
-35.27
-30.94
-26.66
-22.53
-18.77
-15.85
-14.42
-15.01
-17.78
-22.45
-28.47
-35.12
-41.53
-46.71
-49.54
-48.86
-43.91
-34.72
-22.30
-8.46
4.76
15.70
23.54
28.34
30.64
31.10
30.13
27.89
24.49
20.21
15.60
11.39
8.31
6.96
7.57
10.01
13.88
18.67
24.02
29.86
36.34
43.65
51.64
59.57
66.14
69.65
68.42
61.18
47.40
27.27
1.64
-28.04
-59.68
-90.42
-116.84
-135.49
-143.73
-140.60
-127.16
-106.26
-81.68
-57.11
-35.35
-18.04
-5.80
1.52
4.64
4.76
3.48
2.47
3.07
6.05
11.51
19.15
28.59
39.31
50.53
61.04
69.17
73.25
72.18
65.99
55.95
44.12
32.70
23.36
16.85
13.08
11.47
11.31
12.00
13.12
14.37
15.38
15.74
14.99
12.72
8.76
3.26
-3.35
-10.42
-17.30
-23.46
-28.59
-32.58
-35.47
-37.45
-38.84
-40.09
-41.71
-43.98
-46.74
-49.21
-50.02
-47.67
-40.93
-29.37
-13.55
5.07
24.50
42.78
58.44
70.75
79.79
86.08
90.35
93.27
95.45
97.43
99.76
102.72
106.06
108.86
109.67
107.06
100.25
89.53
76.17
61.96
48.59
37.19
28.21
21.45
16.25
11.64
6.60
0.28
-7.68
-17.02
-26.95
-36.42
-44.51
-50.61
-54.54
-56.42
-56.50
-55.19
-52.89
-50.09
-47.19
-44.53
-42.28
-40.55
-39.40
-38.87
-38.96
-39.59
-40.62
-41.94
-43.62
-45.96
-49.34
-53.89
-59.18
-64.18
-67.38
-67.34
-63.19
-55.04
-43.99
-31.81
-20.37
-11.22
-5.42
-3.45
-5.12
-9.31
-13.81
-15.51
-11.31
0.62
19.76
43.12
66.20
84.58
95.55
98.75
95.67
88.54
79.13
68.31
56.41
43.76
31.21
19.95
11.12
5.18
1.81
0.01
-1.34
-2.94
-4.91
-6.81
-8.06
-8.31
-7.73
-6.95
-6.75
-7.75
-10.09
-13.39
-16.93
-19.96
-22.03
-23.13
-23.72
-24.47
-26.04
-28.81
-32.83
-37.77
-43.04
-47.85
-51.26
-52.37
-50.45
-45.23
-37.03
-26.78
-15.78
-5.37
3.50
10.44
15.52
19.11
21.60
23.23
24.13
24.37
24.14
23.71
23.42
23.58
24.35
25.66
27.28
28.85
30.06
30.75
30.91
30.67
30.20
29.53
28.63
27.35
25.64
23.54
21.28
19.10
17.22
15.67
14.33
12.97
11.41
9.62
7.72
5.97
4.58
3.62
2.91
2.16
1.10
-0.37
-2.08
-3.75
-5.10
-6.04
-6.69
-7.28
-8.00
-8.89
-9.86
-10.74
-11.43
-11.90
-12.27
-12.69
-13.30
-14.21
-15.38
-16.65
-17.83
-18.75
-19.35
-19.76
-20.33
-21.46
-23.53
-26.74
-30.96
-35.67
-39.96
-42.73
-42.93
-39.89
-33.64
-24.86
-14.82
-4.93
3.63
10.18
14.63
17.28
18.63
19.08
18.87
18.13
16.93
15.46
14.04
13.01
12.67
13.08
14.11
15.45
16.78
17.88
18.66
19.12
19.30
19.21
18.80
18.03
16.89
15.40
13.72
11.99
10.40
9.08
8.09
7.38
6.87
6.48
6.11
5.79
5.53
5.34
5.19
5.02
4.73
4.23
3.50
2.56
1.50
0.42
-0.63
-1.63
-2.63
-3.65
-4.67
-5.61
-6.34
-6.85
-7.22
-7.70
-8.53
-9.86
-11.62
-13.53
-15.27
-16.55
-17.32
-17.75
-18.18
-19.03
-20.68
-23.31
-26.89
-31.05
-35.09
-38.08
-39.08
-37.39
-32.79
-25.66
-16.90
-7.69
0.81
7.78
12.82
16.00
17.60
18.01
17.50
16.27
14.48
12.41
10.44
9.03
8.52
9.01
10.33
12.07
13.79
15.21
16.20
16.81
17.09
17.09
16.78
16.08
14.96
13.45
11.68
9.82
8.08
6.66
5.68
5.12
4.86
4.66
4.27
3.57
2.59
1.50
0.56
-0.04
-0.29
-0.34
-0.44
-0.88
-1.80
-3.18
-4.82
-6.46
-7.86
-8.93
-9.74
-10.50
-11.44
-12.72
-14.42
-16.42
-18.54
-20.55
-22.27
-23.68
-24.89
-26.15
-27.78
-30.11
-33.33
-37.40
-41.93
-46.09
-48.78
-48.89
-45.68
-39.04
-29.70
-18.95
-8.27
1.12
8.55
13.93
17.54
19.76
20.88
21.01
20.27
18.85
17.08
15.41
14.25
13.81
14.11
14.99
16.20
17.54
18.88
20.16
21.29
22.07
22.28
21.70
20.25
18.04
15.38
12.69
10.32
8.51
7.26
6.43
5.75
4.96
3.90
2.57
1.10
-0.31
-1.47
-2.34
-3.07
-3.90
-5.08
-6.71
-8.70
-10.76
-12.62
-14.13
-15.38
-16.69
-18.46
-21.06
-24.66
-29.16
-34.14
-38.89
-42.48
-43.97
-42.60
-38.07
-30.72
-21.41
-11.37
-1.81
6.36
12.68
17.11
19.85
21.15
21.23
20.26
18.51
16.37
14.32
12.88
12.41
13.03
14.58
16.74
19.08
21.21
22.81
23.72
23.91
23.41
22.35
20.80
18.82
16.45
13.76
10.91
8.17
5.80
4.00
2.72
1.75
0.75
-0.59
-2.36
-4.48
-6.68
-8.66
-10.26
-11.54
-12.77
-14.38
-16.76
-20.16
-24.58
-29.68
-34.88
-39.38
-42.29
-42.77
-40.24
-34.59
-26.28
-16.33
-6.07
3.27
10.85
16.42
20.21
22.65
24.07
24.63
24.35
23.31
21.81
20.31
19.32
19.14
19.77
20.97
22.38
23.67
24.65
25.26
25.47
25.32
24.81
24.01
23.01
21.91
20.74
19.50
18.13
16.56
14.78
12.80
10.66
8.42
6.09
3.71
1.32
-1.01
-3.16
-5.04
-6.57
-7.73
-8.57
-9.27
-10.09
-11.28
-13.01
-15.26
-17.83
-20.41
-22.66
-24.40
-25.63
-26.56
-27.53
-28.95
-31.18
-34.47
-38.76
-43.59
-48.08
-51.03
-51.25
-47.94
-41.04
-31.27
-19.96
-8.62
1.49
9.63
15.65
19.83
22.64
24.48
25.62
26.21
26.35
26.19
25.95
25.86
26.08
26.63
27.42
28.27
29.02
29.61
30.02
30.27
30.37
30.21
29.64
28.50
26.70
24.33
21.67
19.13
17.06
15.67
14.89
14.46
14.00
13.25
12.14
10.84
9.58
8.57
7.86
7.34
6.82
6.14
5.23
4.15
3.01
1.90
0.91
0.06
-0.63
-1.19
-1.68
-2.23
-2.91
-3.76
-4.67
-5.47
-6.02
-6.32
-6.61
-7.23
-8.44
-10.26
-12.39
-14.37
-15.84
-16.70
-17.19
-17.77
-18.93
-20.96
-23.94
-27.69
-31.84
-35.84
-38.94
-40.29
-39.17
-35.19
-28.50
-19.84
-10.35
-1.26
6.50
12.43
16.48
18.89
20.00
20.06
19.26
17.82
16.03
14.30
13.07
12.66
13.17
14.45
16.15
17.88
19.35
20.43
21.08
21.33
21.18
20.62
19.62
18.21
16.51
14.70
13.00
11.60
10.62
10.07
9.83
9.71
9.47
8.95
8.14
7.14
6.13
5.27
4.60
4.02
3.39
2.60
1.66
0.65
-0.30
-1.18
-2.06
-3.07
-4.30
-5.67
-7.00
-8.10
-8.93
-9.65
-10.53
-11.85
-13.67
-15.82
-17.98
-19.81
-21.17
-22.14
-22.98
-24.05
-25.66
-28.05
-31.27
-35.21
-39.49
-43.45
-46.18
-46.70
-44.29
-38.70
-30.39
-20.39
-10.03
-0.61
6.97
12.42
15.91
17.90
18.87
19.15
18.94
18.32
17.45
16.55
15.90
15.71
16.05
16.82
17.85
18.97
20.06
21.08
22.01
22.72
23.03
22.72
21.71
20.04
17.98
15.88
14.07
12.75
11.98
11.64
11.51
11.34
10.95
10.27
9.36
8.43
7.68
7.28
7.24
7.39
7.52
7.45
7.10
6.53
5.85
5.15
4.41
3.51
2.32
0.77
-1.08
-3.04
-4.85
-6.35
-7.49
-8.39
-9.25
-10.26
-11.53
-13.01
-14.60
-16.16
-17.63
-19.00
-20.35
-21.81
-23.57
-25.88
-29.02
-33.11
-37.93
-42.83
-46.77
-48.57
-47.33
-42.75
-35.29
-26.02
-16.25
-7.19
0.36
6.10
10.08
12.55
13.79
14.01
13.41
12.16
10.56
8.99
7.86
7.52
8.13
9.60
11.60
13.72
15.59
17.03
18.01
18.64
18.97
18.98
18.57
17.62
16.09
14.13
12.01
10.06
8.57
7.66
7.25
7.10
6.95
6.61
6.05
5.35
4.63
4.03
3.58
3.24
2.88
2.39
1.67
0.66
-0.62
-2.07
-3.57
-4.99
-6.30
-7.51
-8.73
-10.05
-11.55
-13.21
-15.00
-16.84
-18.65
-20.40
-22.08
-23.70
-25.39
-27.34
-29.83
-33.11
-37.19
-41.69
-45.74
-48.13
-47.69
-43.70
-36.26
-26.33
-15.38
-4.99
3.69
10.17
14.51
17.13
18.51
19.04
19.03
18.79
18.64
18.86
19.59
20.76
22.13
23.39
24.35
25.00
25.48
25.96
26.50
27.01
27.27
27.06
26.24
24.85
23.04
20.99
18.87
16.80
14.87
13.17
11.77
10.67
9.80
9.00
8.10
6.96
5.56
3.98
2.37
0.94
-0.20
-1.03
-1.64
-2.20
-2.90
-3.88
-5.16
-6.65
-8.22
-9.69
-10.98
-12.15
-13.34
-14.80
-16.67
-18.93
-21.37
-23.64
-25.45
-26.72
-27.69
-28.85
-30.75
-33.81
-38.10
-43.29
-48.62
-53.00
-55.28
-54.48
-50.09
-42.26
-31.84
-20.19
-8.77
1.17
8.93
14.39
17.87
19.91
21.04
21.64
21.94
22.03
21.98
21.90
21.94
22.25
22.91
23.90
25.05
26.18
27.11
27.78
28.19
28.37
28.30
27.90
27.06
25.71
23.88
21.73
19.49
17.41
15.66
14.27
13.17
12.19
11.21
10.20
9.17
8.19
7.27
6.36
5.33
4.08
2.58
0.91
-0.77
-2.33
-3.71
-4.97
-6.26
-7.75
-9.58
-11.79
-14.30
-16.94
-19.48
-21.71
-23.55
-25.10
-26.64
-28.59
-31.37
-35.22
-40.02
-45.18
-49.65
-52.16
-51.57
-47.30
-39.53
-29.21
-17.76
-6.68
2.92
10.45
15.85
19.41
21.51
22.54
22.74
22.31
21.43
20.32
19.25
18.49
18.29
18.77
19.91
21.53
23.33
25.01
26.31
27.11
27.37
27.05
26.11
24.52
22.30
19.60
16.69
13.91
11.52
9.65
8.24
7.04
5.81
4.37
2.62
0.64
-1.42
-3.37
-5.09
-6.57
-7.94
-9.44
-11.28
-13.55
-16.16
-18.87
-21.39
-23.53
-25.26
-26.76
-28.31
-30.29
-33.00
-36.55
-40.76
-45.04
-48.44
-49.87
-48.37
-43.46
-35.37
-24.94
-13.45
-2.21
7.72
15.70
21.58
25.54
27.95
29.20
29.59
29.30
28.51
27.43
26.35
25.62
25.51
26.11
27.26
28.65
29.91
30.80
31.29
31.44
31.33
30.97
30.22
28.93
27.03
24.57
21.79
19.00
16.47
14.35
12.63
11.18
9.85
8.51
7.13
5.65
4.07
2.33
0.40
-1.68
-3.80
-5.82
-7.67
-9.38
-11.09
-13.00
-15.19
-17.62
-20.13
-22.50
-24.60
-26.45
-28.20
-30.12
-32.53
-35.70
-39.83
-44.86
-50.33
-55.37
-58.77
-59.27
-56.01
-48.85
-38.48
-26.29
-13.90
-2.71
6.40
13.21
17.96
21.09
23.09
24.27
24.85
24.95
24.69
24.18
23.60
23.12
22.90
23.06
23.65
24.65
25.95
27.42
28.88
30.13
30.96
31.16
30.62
29.35
27.50
25.36
23.23
21.37
19.91
18.84
18.07
17.42
16.69
15.72
14.38
12.64
10.56
8.26
5.90
3.61
1.43
-0.64
-2.67
-4.71
-6.85
-9.12
-11.51
-13.97
-16.38
-18.60
-20.55
-22.26
-23.92
-25.80
-28.22
-31.43
-35.51
-40.30
-45.24
-49.45
-51.84
-51.34
-47.34
-39.88
-29.73
-18.21
-6.79
3.27
11.25
16.94
20.60
22.70
23.69
23.94
23.69
23.10
22.33
21.54
20.92
20.60
20.69
21.16
21.93
22.83
23.73
24.52
25.14
25.54
25.65
25.33
24.41
22.80
20.50
17.76
14.93
12.42
10.49
9.19
8.33
7.60
6.64
5.27
3.50
1.52
-0.38
-1.96
-3.12
-4.00
-4.86
-6.01
-7.66
-9.80
-12.23
-14.62
-16.70
-18.34
-19.67
-20.96
-22.55
-24.78
-27.82
-31.67
-35.98
-40.05
-42.90
-43.48
-41.00
-35.24
-26.68
-16.42
-5.85
3.79
11.66
17.45
21.24
23.30
23.86
23.17
21.46
19.11
16.60
14.45
13.13
12.91
13.77
15.45
17.52
19.53
21.09
21.95
21.97
21.14
19.53
17.29
14.60
11.72
8.94
6.54
4.73
3.58
3.02
2.84
2.81
2.69
2.28
1.51
0.31
-1.33
-3.43
-5.95
-8.77
-11.67
-14.37
-16.62
-18.32
-19.53
-20.49
-21.57
-23.12
-25.45
-28.71
-32.74
-37.04
-40.72
-42.66
-41.86
-37.74
-30.45
-20.81
-10.11
0.31
9.40
16.61
21.82
25.17
26.90
27.20
26.25
24.27
21.58
18.64
15.98
14.07
13.17
13.30
14.19
15.48
16.81
17.92
18.72
19.20
19.35
19.08
18.30
16.96
15.14
13.05
10.96
9.09
7.52
6.19
4.97
3.85
2.89
2.25
2.04
2.21
2.47
2.40
1.59
-0.18
-2.84
-6.10
-9.50
-12.64
-15.31
-17.56
-19.66
-22.05
-25.14
-29.20
-34.20
-39.70
-44.87
-48.64
-49.87
-47.72
-41.89
-32.87
-21.80
-10.24
0.29
8.70
14.55
17.99
19.54
19.77
19.09
17.76
16.01
14.09
12.37
11.25
10.99
11.61
12.91
14.55
16.18
17.56
18.61
19.29
19.57
19.38
18.63
17.27
15.34
13.03
10.59
8.28
6.29
4.69
3.41
2.29
1.17
-0.03
-1.28
-2.43
-3.37
-4.04
-4.52
-5.02
-5.80
-7.06
-8.84
-10.96
-13.15
-15.13
-16.72
-18.00
-19.26
-20.91
-23.36
-26.82
-31.17
-35.87
-40.02
-42.50
-42.33
-38.94
-32.44
-23.58
-13.57
-3.69
5.01
11.96
17.01
20.31
22.07
22.47
21.63
19.75
17.18
14.43
12.09
10.61
10.23
10.86
12.22
13.92
15.65
17.21
18.48
19.37
19.72
19.33
18.01
15.75
12.72
9.31
5.99
3.14
0.95
-0.61
-1.78
-2.84
-4.05
-5.55
-7.37
-9.37
-11.39
-13.23
-14.78
-16.07
-17.25
-18.63
-20.55
-23.29
-26.94
-31.28
-35.75
-39.48
-41.46
-40.77
-36.90
-29.95
-20.71
-10.42
-0.44
8.14
14.73
19.24
21.85
22.84
22.43
20.78
18.15
15.01
11.95
9.58
8.31
8.22
9.07
10.40
11.80
12.94
13.60
13.71
13.19
12.00
10.12
7.62
4.61
1.30
-2.05
-5.18
-7.88
-10.01
-11.57
-12.64
-13.36
-13.86
-14.18
-14.29
-14.11
-13.66
-13.11
-12.74
-12.84
-13.55
-14.78
-16.27
-17.71
-18.89
-19.82
-20.77
-22.16
-24.37
-27.62
-31.78
-36.28
-40.12
-42.13
-41.22
-36.81
-29.02
-18.72
-7.30
3.75
13.20
20.44
25.41
28.50
30.26
31.18
31.59
31.64
31.41
30.97
30.45
30.00
29.77
29.84
30.22
30.82
31.47
31.96
32.12
31.82
31.05
29.89
28.45
26.81
24.94
22.78
20.28
17.47
14.57
11.88
9.70
8.20
7.31
6.75
6.12
4.98
3.10
0.49
-2.55
-5.61
-8.33
-10.54
-12.35
-14.07
-16.09
-18.68
-22.03
-26.12
-30.80
-35.65
-39.94
-42.64
-42.59
-38.93
-31.41
-20.62
-7.85
5.23
17.05
26.52
33.14
36.94
38.34
37.93
36.37
34.29
32.27
30.74
29.96
29.93
30.45
31.09
31.40
30.99
29.81
28.21
26.97
27.06
29.27
33.78
39.96
46.48
51.70
54.26
53.53
49.67
43.40
35.51
26.51
16.50
5.44
-6.47
-18.58
-29.86
-39.24
-46.07
-50.39
-52.92
-54.69
-56.68
-59.39
-62.72
-65.97
-68.10
-68.07
-65.12
-59.03
-50.22
-39.56
-28.19
-17.17
-7.24
1.15
7.88
12.90
16.21
17.89
18.10
17.21
15.75
14.30
13.35
13.22
14.07
15.87
18.45
21.53
24.76
27.74
30.15
31.84
32.82
33.19
33.13
32.73
32.05
31.19
30.34
29.76
29.74
30.41
31.77
33.72
36.26
39.62
44.17
50.22
57.59
65.57
72.93
78.41
81.23
81.29
79.25
76.02
72.42
68.80
65.16
61.39
57.60
54.18
51.61
50.16
49.69
49.63
49.21
47.77
45.01
41.05
36.28
31.16
25.95
20.63
14.97
8.62
1.35
-6.84
-15.63
-24.52
-32.91
-40.27
-46.25
-50.70
-53.70
-55.47
-56.32
-56.62
-56.65
-56.70
-56.88
-57.24
-57.70
-58.08
-58.13
-57.56
-56.16
-53.87
-50.91
-47.74
-44.96
-43.13
-42.66
-43.67
-46.08
-49.67
-54.17
-59.29
-64.81
-70.44
-75.87
-80.68
-84.52
-87.14
-88.63
-89.43
-90.36
-92.41
-96.50
-103.29
-112.95
-125.15
-139.09
-153.57
-167.17
-178.42
-186.08
-189.30
-187.80
-181.88
-172.25
-159.84
-145.65
-130.56
-115.42
-100.94
-87.65
-75.80
-65.22
-55.34
-45.37
-34.59
-22.69
-9.89
3.13
15.51
26.54
35.88
43.52
49.60
54.23
57.37
58.90
58.88
57.60
55.61
53.58
52.04
51.18
50.86
50.66
50.15
49.11
47.59
45.94
44.58
43.77
43.40
43.02
41.95
39.64
35.86
30.83
25.11
19.29
13.85
8.94
4.43
-0.01
-4.85
-10.60
-17.73
-26.38
-36.17
-45.96
-53.95
-58.06
-56.63
-49.00
-35.78
-18.74
-0.23
17.53
32.95
45.33
54.63
61.21
65.42
67.57
67.91
66.86
65.09
63.40
62.55
62.98
64.62
67.01
69.51
71.56
72.90
73.54
73.62
73.22
72.27
70.54
67.85
64.18
59.75
55.00
50.45
46.44
43.06
40.12
37.24
34.09
30.53
26.70
22.93
19.53
16.63
14.11
11.66
8.96
5.79
2.16
-1.73
-5.61
-9.24
-12.56
-15.72
-19.05
-23.01
-28.03
-34.32
-41.66
-49.27
-55.86
-59.86
-59.82
-54.89
-45.08
-31.37
-15.45
0.71
15.38
27.38
36.26
42.08
45.21
46.11
45.17
42.83
39.64
36.33
33.70
32.38
32.64
34.34
36.93
39.74
42.18
43.91
44.87
45.13
44.82
44.03
42.74
40.91
38.49
35.51
32.10
28.50
25.01
21.91
19.39
17.44
15.92
14.57
13.17
11.59
9.85
8.02
6.23
4.54
2.97
1.48
-0.01
-1.62
-3.51
-5.77
-8.41
-11.28
-14.09
-16.57
-18.58
-20.22
-21.80
-23.73
-26.36
-29.91
-34.37
-39.47
-44.66
-49.03
-51.42
-50.66
-45.96
-37.30
-25.54
-12.26
0.76
12.07
20.87
27.08
31.00
33.02
33.38
32.20
29.64
26.11
22.32
19.10
17.16
16.87
18.08
20.30
22.82
25.07
26.68
27.57
27.80
27.48
26.67
25.37
23.56
21.32
18.77
16.14
13.61
11.30
9.23
7.38
5.69
4.17
2.85
1.77
0.90
0.13
-0.73
-1.82
-3.19
-4.76
-6.41
-8.04
-9.65
-11.39
-13.39
-15.71
-18.23
-20.74
-22.99
-24.83
-26.31
-27.64
-29.16
-31.24
-34.20
-38.17
-43.02
-48.21
-52.79
-55.54
-55.23
-51.10
-43.07
-31.97
-19.24
-6.58
4.54
13.26
19.37
23.17
25.19
25.90
25.64
24.61
23.04
21.22
19.51
18.25
17.70
17.93
18.83
20.17
21.66
23.04
24.12
24.78
24.93
24.53
23.52
21.91
19.79
17.29
14.67
12.18
10.04
8.34
7.06
6.06
5.16
4.21
3.14
2.00
0.88
-0.13
-1.03
-1.89
-2.86
-4.07
-5.55
-7.26
-9.04
-10.74
-12.31
-13.80
-15.33
-17.00
-18.81
-20.60
-22.20
-23.47
-24.43
-25.26
-26.27
-27.78
-30.04
-33.11
-36.83
-40.70
-43.93
-45.58
-44.70
-40.73
-33.71
-24.36
-13.88
-3.64
5.27
12.20
17.03
19.97
21.32
21.35
20.24
18.21
15.59
12.85
10.54
9.10
8.73
9.35
10.68
12.34
14.04
15.56
16.79
17.62
17.89
17.49
16.35
14.54
12.26
9.74
7.18
4.73
2.47
0.44
-1.29
-2.68
-3.79
-4.79
-5.88
-7.27
-9.03
-11.07
-13.16
-15.09
-16.71
-18.06
-19.30
-20.67
-22.43
-24.80
-27.99
-32.06
-36.83
-41.75
-45.87
-48.00
-47.12
-42.67
-34.86
-24.61
-13.29
-2.30
7.24
14.69
19.88
22.92
24.10
23.76
22.29
20.05
17.50
15.08
13.22
12.22
12.26
13.26
14.99
17.08
19.16
20.95
22.23
22.90
22.89
22.17
20.74
18.65
16.06
13.20
10.38
7.87
5.88
4.42
3.33
2.31
1.03
-0.71
-2.87
-5.22
-7.41
-9.18
-10.48
-11.56
-12.78
-14.50
-16.87
-19.72
-22.73
-25.50
-27.81
-29.65
-31.26
-33.05
-35.45
-38.82
-43.32
-48.75
-54.39
-59.05
-61.28
-59.79
-53.96
-44.10
-31.45
-17.76
-4.72
6.41
15.09
21.31
25.38
27.65
28.44
28.03
26.76
25.03
23.29
21.95
21.33
21.53
22.48
23.94
25.58
27.08
28.20
28.85
29.06
28.91
28.43
27.59
26.25
24.29
21.73
18.78
15.82
13.26
11.39
10.25
9.63
9.17
8.53
7.51
6.09
4.38
2.55
0.73
-0.98
-2.56
-4.04
-5.54
-7.18
-9.09
-11.30
-13.71
-16.15
-18.38
-20.31
-21.93
-23.47
-25.24
-27.58
-30.79
-35.03
-40.15
-45.64
-50.57
-53.72
-53.91
-50.34
-42.91
-32.35
-20.02
-7.53
3.72
12.83
19.47
23.75
26.02
26.65
25.95
24.22
21.86
19.38
17.38
16.40
16.73
18.35
20.90
23.87
26.70
29.00
30.52
31.20
31.07
30.18
28.60
26.43
23.82
20.98
18.17
15.56
13.22
11.09
9.02
6.91
4.75
2.67
0.82
-0.76
-2.18
-3.70
-5.60
-8.02
-10.88
-13.95
-16.92
-19.58
-21.93
-24.14
-26.51
-29.40
-33.11
-37.76
-43.21
-48.90
-53.89
-56.95
-56.86
-52.81
-44.68
-33.23
-19.91
-6.45
5.61
15.29
22.34
27.06
29.93
31.38
31.68
30.95
29.39
27.38
25.46
24.16
23.83
24.49
25.92
27.74
29.61
31.24
32.46
33.13
33.17
32.47
30.99
28.81
26.11
23.18
20.32
17.73
15.49
13.50
11.63
9.73
7.77
5.80
3.90
2.08
0.14
-2.14
-5.00
-8.43
-12.14
-15.57
-18.14
-19.40
-19.42
-18.84
-18.83
-20.69
-25.41
-33.34
-44.01
-56.25
-68.42
-79.03
-87.09
-92.42
-95.53
-97.37
-99.00
-101.29
-104.69
-108.86
-112.97
-116.07
-117.19
-115.59
-110.77
-102.65
-91.63
-78.51
-63.67
-47.60
-31.02
-14.72
0.62
14.47
26.35
35.84
42.85
49.28
57.37
68.73
83.69
101.50
120.74
139.83
157.48
172.95
187.74
202.73
216.70
226.61
229.61
224.92
214.29
201.38
190.58
188.17
197.81
218.63
245.40
270.80
288.10
292.77
283.19
245.84
178.22
90.90
2.83
-70.62
-124.24
-160.34
-183.40
-196.96
-203.17
-201.28
-191.77
-177.39
-162.37
-149.97
-141.31
-135.32
-130.43
-125.49
