1530126022.00
64.000000
-0.00
-0.00
-0.00
-0.00
-0.00
-0.00
-0.00
-0.00
-0.00
-0.00
0.00
0.01
0.01
-0.00
-0.03
-0.05
-0.05
0.00
0.13
0.36
0.66
1.01
1.37
1.72
2.06
2.40
2.79
3.24
3.80
4.42
5.06
5.66
6.20
6.68
7.15
7.68
8.31
9.14
10.09
11.04
11.88
12.56
13.14
13.76
14.65
15.96
17.91
20.32
22.90
25.38
27.58
29.57
31.68
34.32
37.81
42.54
48.15
54.10
59.83
64.97
69.58
74.14
79.34
85.71
93.76
103.00
112.62
121.73
129.77
136.75
143.30
150.75
157.77
166.64
177.95
191.79
206.97
220.57
228.25
225.36
208.53
176.87
132.76
80.05
23.07
-34.94
-92.44
-149.16
-205.23
-260.37
-313.74
-363.87
-409.83
-450.91
-486.50
-515.74
-537.23
-549.22
-549.96
-538.37
-514.21
-478.67
-433.88
-382.45
-327.02
-269.84
-212.63
-156.66
-102.95
-52.37
-5.90
35.58
71.43
101.35
125.50
144.38
158.69
169.15
176.37
180.75
182.57
182.07
179.51
175.23
169.65
163.18
156.15
148.81
141.30
133.69
126.02
118.33
110.69
103.16
95.80
88.68
81.83
75.25
68.95
62.95
57.25
51.86
46.78
42.03
37.59
33.45
29.61
26.07
22.81
19.84
17.14
14.70
12.50
10.52
8.76
7.19
5.83
4.68
3.73
2.95
2.31
1.79
1.33
0.92
0.55
0.24
0.01
-0.14
-0.23
-0.28
-0.34
-0.46
-0.64
-0.87
-1.07
-1.20
-1.21
-1.14
-1.05
-1.05
-1.23
-1.61
-2.13
-2.63
-2.97
-3.06
-2.94
-2.77
-2.78
-3.17
-3.96
-5.02
-6.07
-6.80
-7.04
-6.85
-6.53
-6.45
-6.96
-8.13
-9.73
-11.34
-12.52
-13.02
-12.87
-12.41
-12.02
-12.09
-12.92
-14.69
-17.39
-20.64
-23.44
-24.30
-21.73
-14.88
-4.23
8.41
20.56
30.03
35.68
37.70
37.25
35.70
34.04
32.66
31.56
30.65
29.94
29.56
29.54
29.75
29.86
29.53
28.43
26.42
23.58
20.14
16.51
12.81
9.06
5.13
0.80
-4.01
-8.99
-13.51
-16.74
-18.00
-17.04
-14.25
-10.50
-6.92
-4.42
-3.47
-3.93
-5.28
-6.88
-8.17
-8.91
-9.09
-8.84
-8.41
-7.98
-7.65
-7.44
-7.30
-7.17
-6.96
-6.60
-6.06
-5.31
-4.46
-3.70
-3.23
-3.27
-3.91
-5.04
-6.32
-7.32
-7.70
-7.38
-6.59
-5.75
-5.33
-5.53
-6.30
-7.30
-8.13
-8.57
-8.65
-8.66
-8.94
-9.74
-11.15
-13.00
-14.88
-16.26
-16.58
-15.41
-12.59
-8.29
-2.91
3.02
8.69
13.45
16.91
19.00
19.88
19.77
18.86
17.34
15.40
13.23
11.10
9.22
7.61
6.15
4.59
2.78
0.70
-1.50
-3.57
-5.23
-6.42
-7.29
-8.25
-9.83
-12.49
-16.43
-21.49
-27.13
-32.50
-36.70
-39.10
-39.68
-39.17
-39.01
-40.89
-46.09
-54.85
-66.02
-77.27
-85.81
-89.37
-86.91
-79.06
-67.77
-55.74
-45.49
-38.74
-36.02
-36.79
-39.79
-43.65
-47.30
-50.37
-53.14
-56.39
-60.99
-67.42
-75.35
-83.52
-89.92
-92.26
-88.57
-77.77
-59.90
-36.05
-8.08
21.69
50.77
76.81
97.90
112.95
121.90
125.76
126.24
125.10
123.57
122.12
120.51
118.26
114.99
110.60
105.31
99.42
93.29
87.27
81.73
77.05
73.54
71.30
70.17
69.82
69.84
69.87
69.63
68.83
67.23
64.59
60.93
56.55
52.10
48.32
45.80
44.68
44.51
44.47
43.69
41.54
37.91
33.13
27.74
22.31
17.03
11.73
5.85
-1.22
-9.80
-19.65
-29.99
-39.85
-48.58
-56.16
-63.13
-70.22
-77.93
-86.35
-95.59
-106.12
-118.91
-134.83
-153.94
-175.06
-196.45
-217.31
-239.15
-265.69
-300.82
-345.70
-396.67
-445.73
-483.37
-502.60
-501.70
-484.21
-456.46
-424.23
-390.57
-355.82
-319.13
-280.40
-240.95
-202.86
-167.61
-135.16
-103.93
-71.94
-37.96
-2.17
33.92
68.39
99.99
128.80
156.42
185.48
218.71
257.86
302.56
349.89
394.68
430.87
453.47
460.24
452.46
434.24
410.79
386.30
362.81
340.31
317.81
294.69
271.27
248.59
227.58
208.40
190.44
172.91
155.50
138.65
123.32
110.47
100.54
93.35
88.28
84.58
81.54
78.51
74.89
70.26
64.57
58.27
52.23
47.27
43.71
41.02
37.98
33.23
25.97
16.40
5.67
-4.59
-13.01
-18.93
-22.48
-24.33
-25.13
-25.29
-24.85
-23.81
-22.32
-20.81
-19.89
-20.08
-21.64
-24.50
-28.44
-33.17
-38.40
-43.69
-48.30
-51.14
-51.04
-47.16
-39.36
-28.37
-15.57
-2.53
9.48
19.66
27.69
33.49
36.97
38.06
36.89
33.95
30.07
26.26
23.25
21.35
20.35
19.81
19.32
18.70
17.88
16.76
15.12
12.67
9.31
5.32
1.24
-2.45
-5.79
-9.51
-14.79
-22.70
-33.59
-47.01
-61.90
-77.19
-92.15
-106.45
-119.74
-131.31
-139.88
-143.88
-141.91
-133.24
-118.06
-97.49
-73.39
-47.94
-23.12
-0.30
20.06
38.22
54.71
69.79
83.31
94.92
104.55
112.61
119.78
126.49
132.55
137.09
138.99
137.24
131.15
120.29
104.55
84.39
61.17
36.99
14.08
-6.04
-23.07
-37.74
-51.12
-63.92
-76.46
-88.86
-101.21
-113.27
-123.82
-130.41
-130.06
-120.62
-102.07
-76.92
-49.34
-23.38
-1.68
14.97
27.13
35.72
41.31
43.74
42.29
36.37
26.30
13.80
1.87
-6.23
-8.44
-5.08
1.03
5.94
6.58
2.25
-5.23
-12.79
-17.98
-20.17
-20.50
-20.80
-22.25
-24.81
-27.63
-29.98
-31.94
-34.37
-38.38
-44.43
-51.88
-59.10
-64.04
-64.92
-60.80
-51.78
-38.87
-23.47
-6.98
9.53
25.23
39.40
51.20
59.82
64.68
65.82
64.03
60.78
57.65
55.74
55.22
55.41
55.30
54.14
51.70
48.26
44.21
39.76
34.88
29.51
23.72
17.78
12.17
7.38
3.84
2.04
2.36
4.81
8.55
11.83
12.61
9.66
3.52
-3.46
-8.28
-8.90
-5.50
-0.36
3.40
3.53
-0.27
-6.61
-13.52
-19.65
-24.78
-29.42
-34.11
-38.96
-43.69
-48.01
-51.97
-55.64
-58.99
-61.81
-63.88
-65.25
-66.47
-68.47
-72.48
-79.99
-92.49
-111.16
-136.12
-165.76
-196.68
-224.44
-244.96
-255.90
-257.06
-249.55
-234.39
-211.32
-178.86
-135.68
-82.43
-22.61
37.93
92.87
137.66
170.72
193.28
208.26
218.45
225.47
229.59
230.19
226.63
219.18
209.36
199.83
193.49
192.14
195.64
201.65
206.44
206.47
199.74
186.39
168.26
147.84
127.35
108.42
92.21
79.64
71.27
66.78
64.60
62.13
56.72
46.82
32.74
16.42
0.30
-13.66
-24.97
-34.66
-44.77
-57.44
-73.94
-93.94
-115.13
-133.68
-145.31
-146.64
-136.36
-115.63
-87.58
-56.31
-25.79
0.82
21.25
33.92
37.83
32.56
18.53
-2.93
-29.77
-59.52
-89.74
-118.15
-142.74
-161.83
-174.31
-179.79
-178.82
-172.66
-162.87
-150.74
-136.88
-121.18
-103.23
-82.97
-61.17
-39.48
-20.12
-5.12
4.36
8.45
8.57
6.97
6.05
7.76
13.16
22.31
34.37
47.97
61.63
74.15
84.62
92.39
96.89
97.67
94.67
88.52
80.53
72.41
65.53
60.40
56.53
52.78
48.12
42.28
35.92
30.23
26.29
24.57
24.76
26.09
27.74
29.17
30.25
31.15
32.06
33.07
34.06
34.84
35.27
35.37
35.26
35.08
34.84
34.41
33.59
32.21
30.24
27.79
25.01
22.01
18.80
15.35
11.59
7.55
3.30
-1.00
-5.15
-8.90
-11.96
-14.07
-15.10
-15.05
-14.12
-12.67
-11.07
-9.68
-8.77
-8.53
-9.06
-10.37
-12.41
-14.99
-17.84
-20.63
-23.10
-25.08
-26.51
-27.49
-28.20
-28.77
-29.27
-29.64
-29.66
-29.02
-27.53
-25.17
-22.21
-19.07
-16.17
-13.75
-11.75
-9.88
-7.80
-5.28
-2.40
0.58
3.26
5.35
6.72
7.42
7.55
7.10
5.97
3.94
0.92
-3.01
-7.51
-12.09
-16.24
-19.56
-21.86
-23.15
-23.58
-23.39
-22.82
-22.10
-21.37
-20.71
-20.15
-19.73
-19.54
-19.73
-20.41
-21.63
-23.26
-25.02
-26.58
-27.60
-27.91
-27.43
-26.23
-24.44
-22.21
-19.77
-17.34
-15.17
-13.42
-12.11
-11.04
-9.91
-8.43
-6.43
-3.94
-1.15
1.76
4.69
7.69
10.74
13.68
16.07
17.38
17.18
15.36
12.26
8.45
4.60
1.15
-1.74
-4.20
-6.48
-8.80
-11.23
-13.66
-15.83
-17.36
-17.92
-17.29
-15.51
-12.88
-9.80
-6.69
-3.86
-1.45
0.53
2.12
3.35
4.21
4.69
4.82
4.65
4.23
3.60
2.79
1.80
0.69
-0.46
-1.58
-2.63
-3.65
-4.77
-6.14
-7.83
-9.81
-11.93
-13.98
-15.79
-17.27
-18.49
-19.60
-20.73
-21.90
-22.96
-23.63
-23.58
-22.53
-20.33
-17.05
-12.85
-8.00
-2.75
2.72
8.24
13.67
18.83
23.48
27.40
30.46
32.60
33.89
34.43
34.29
33.52
32.13
30.21
27.96
25.67
23.62
21.97
20.66
19.38
17.75
15.43
12.28
8.40
4.04
-0.52
-5.13
-9.77
-14.50
-19.38
-24.37
-29.19
-33.41
-36.52
-38.05
-37.68
-35.35
-31.23
-25.73
-19.36
-12.69
-6.24
-0.49
4.17
7.43
9.18
9.45
8.50
6.67
4.37
1.96
-0.23
-1.95
-2.94
-2.97
-1.86
0.51
4.06
8.62
13.84
19.24
24.32
28.47
31.19
32.08
31.04
28.25
24.21
19.63
15.26
11.79
9.69
9.17
10.15
12.29
15.11
18.09
20.80
23.04
24.82
26.39
27.98
29.67
31.21
32.09
31.68
29.51
25.47
19.86
13.25
6.30
-0.43
-6.59
-11.95
-16.40
-19.87
-22.37
-24.04
-25.10
-25.84
-26.48
-27.11
-27.71
-28.19
-28.48
-28.58
-28.66
-28.94
-29.69
-31.08
-33.13
-35.64
-38.24
-40.46
-41.80
-41.87
-40.47
-37.60
-33.46
-28.41
-22.88
-17.32
-12.07
-7.41
-3.50
-0.45
1.69
2.91
3.27
2.92
2.12
1.16
0.32
-0.17
-0.22
0.12
0.70
1.30
1.65
1.52
0.74
-0.73
-2.79
-5.23
-7.75
-10.10
-12.14
-13.88
-15.45
-17.05
-18.84
-20.89
-23.06
-25.02
-26.23
-26.16
-24.42
-20.94
-16.09
-10.49
-4.83
0.36
4.80
8.41
11.21
13.17
14.23
14.37
13.72
12.53
11.13
9.82
8.77
8.01
7.48
7.08
6.70
6.23
5.57
4.61
3.37
1.91
0.40
-1.01
-2.26
-3.43
-4.71
-6.28
-8.23
-10.53
-13.08
-15.72
-18.24
-20.40
-21.82
-22.07
-20.76
-17.75
-13.28
-7.93
-2.50
2.32
6.14
8.91
10.81
12.07
12.82
13.12
12.97
12.47
11.74
10.94
10.16
9.39
8.54
7.58
6.56
5.64
4.98
4.64
4.48
4.23
3.60
2.44
0.84
-0.91
-2.52
-3.78
-4.75
-5.69
-6.96
-8.86
-11.47
-14.61
-17.86
-20.72
-22.70
-23.39
-22.62
-20.42
-17.04
-12.81
-8.06
-3.09
1.67
5.75
8.70
10.22
10.25
9.09
7.28
5.48
4.23
3.60
3.41
3.34
3.15
2.70
2.01
1.22
0.64
0.85
2.28
5.65
11.79
20.94
32.05
42.78
50.04
51.50
46.60
35.91
21.62
6.77
-5.92
-15.18
-21.05
-24.76
-27.39
-29.54
-32.83
-38.26
-45.69
-54.00
-62.07
-69.08
-75.39
-81.45
-87.68
-96.23
-108.47
-123.99
-140.63
-155.62
-166.06
-170.37
-167.51
-146.51
-104.81
-50.38
2.57
42.95
64.83
73.63
74.66
71.81
67.47
61.97
55.46
49.18
45.17
44.83
48.47
54.44
60.91
66.54
69.37
68.50
64.66
59.57
54.74
50.93
47.55
43.93
39.76
34.33
27.44
19.73
12.22
5.60
-0.00
-5.45
-11.63
-19.07
-28.14
-38.51
-49.07
-58.34
-65.14
-69.00
-70.42
-70.29
-69.48
-68.63
-67.82
-66.53
-63.94
-59.33
-52.40
-43.42
-33.05
-21.99
-10.74
0.75
13.04
26.87
42.47
59.03
74.68
87.06
94.32
96.14
93.98
90.54
88.68
90.33
95.80
104.00
112.98
120.52
124.32
122.15
112.24
93.99
68.68
39.45
10.35
-15.48
-37.19
-56.52
-76.53
-99.49
-124.88
-148.85
-165.40
-168.80
-155.96
-127.82
-88.94
-45.99
-5.55
27.61
51.37
66.10
73.72
76.56
76.44
74.44
71.00
66.52
61.73
57.65
55.26
54.90
55.95
57.00
56.49
53.55
48.50
42.74
38.04
35.61
35.49
36.55
37.12
35.91
32.54
27.62
22.25
17.44
13.68
10.83
8.43
6.04
3.54
1.18
-0.55
-1.23
-0.68
0.88
2.92
4.75
5.78
5.67
4.48
2.57
0.51
-1.14
-1.99
-1.91
-1.07
0.21
1.57
2.74
3.63
4.24
4.58
4.65
4.39
3.78
2.86
1.78
0.75
-0.05
-0.53
-0.72
-0.78
-0.89
-1.17
-1.63
-2.26
-2.99
-3.83
-4.85
-6.07
-7.44
-8.77
-9.76
-10.14
-9.80
-8.79
-7.29
-5.54
-3.72
-1.94
-0.25
1.28
2.55
3.45
3.92
4.00
3.76
3.33
2.85
2.39
2.06
1.85
1.69
1.38
0.64
-0.75
-2.85
-5.49
-8.35
-11.05
-13.37
-15.28
-16.90
-18.34
-19.61
-20.64
-21.29
-21.48
-21.31
-20.99
-20.80
-20.96
-21.54
-22.43
-23.40
-24.13
-24.27
-23.53
-21.72
-18.86
-15.12
-10.87
-6.47
-2.28
1.48
4.70
7.34
9.38
10.82
11.70
12.10
12.21
12.23
12.33
12.51
12.67
12.62
12.19
11.33
10.10
8.60
7.00
5.47
4.15
3.14
2.45
2.00
1.66
1.33
1.02
0.80
0.75
0.83
0.84
0.39
-0.86
-3.19
-6.70
-11.33
-16.87
-22.91
-28.87
-33.95
-37.31
-38.28
-36.60
-32.52
-26.68
-19.95
-13.16
-6.97
-1.74
2.36
5.40
7.53
9.00
10.03
10.80
11.38
11.80
12.09
12.28
12.46
12.67
12.92
13.13
13.21
13.09
12.77
12.29
11.72
11.08
10.39
9.57
8.57
7.33
5.84
4.10
2.14
-0.02
-2.35
-4.82
-7.35
-9.85
-12.23
-14.48
-16.74
-19.25
-22.31
-26.02
-30.17
-34.17
-37.13
-38.17
-36.73
-32.76
-26.78
-19.68
-12.39
-5.62
0.26
5.23
9.39
12.89
15.77
18.03
19.66
20.69
21.27
21.59
21.84
22.10
22.34
22.48
22.41
22.14
21.72
21.24
20.75
20.18
19.38
18.20
16.59
14.70
12.76
10.99
9.47
8.14
6.78
5.16
3.15
0.77
-1.80
-4.33
-6.62
-8.55
-10.17
-11.68
-13.36
-15.55
-18.46
-22.10
-26.12
-29.85
-32.38
-32.82
-30.60
-25.67
-18.56
-10.26
-1.99
5.20
10.66
14.23
16.22
17.17
17.62
17.96
18.31
18.64
18.85
18.87
18.75
18.51
18.16
17.65
16.96
16.12
15.24
14.43
13.74
13.11
12.39
11.49
10.42
9.28
8.23
7.30
6.45
5.51
4.36
2.94
1.32
-0.40
-2.14
-3.88
-5.60
-7.33
-9.03
-10.71
-12.45
-14.43
-16.88
-19.92
-23.34
-26.54
-28.62
-28.63
-25.94
-20.51
-12.87
-3.98
5.21
13.98
21.98
29.14
35.47
40.90
45.27
48.41
50.26
50.89
50.48
49.21
47.23
44.59
41.32
37.49
33.23
28.78
24.37
20.16
16.15
12.18
7.98
3.40
-1.58
-6.73
-11.66
-15.97
-19.45
-22.13
-24.24
-26.18
-28.31
-30.86
-33.91
-37.34
-40.94
-44.42
-47.54
-50.15
-52.27
-54.04
-55.65
-57.27
-58.89
-60.25
-60.88
-60.18
-57.62
-52.93
-46.23
-37.98
-28.91
-19.75
-11.07
-3.16
3.84
9.89
14.91
18.77
21.37
22.78
23.28
23.27
23.13
23.11
23.25
23.42
23.46
23.27
22.84
22.22
21.49
20.71
19.91
19.08
18.20
17.25
16.17
14.93
13.48
11.82
9.91
7.80
5.54
3.22
0.95
-1.18
-3.17
-5.06
-6.97
-9.09
-11.60
-14.63
-18.16
-21.89
-25.22
-27.38
-27.64
-25.59
-21.31
-15.39
-8.69
-2.05
3.90
8.86
12.72
15.45
17.06
17.59
17.18
16.12
14.79
13.57
12.68
12.17
11.89
11.64
11.25
10.66
9.99
9.37
8.93
8.63
8.31
7.70
6.54
4.73
2.37
-0.27
-2.84
-5.10
-6.94
-8.46
-9.91
-11.62
-13.87
-16.82
-20.40
-24.23
-27.67
-29.91
-30.24
-28.29
-24.17
-18.46
-11.98
-5.52
0.38
5.51
9.87
13.58
16.66
19.05
20.63
21.32
21.16
20.36
19.18
17.88
16.66
15.60
14.71
13.96
13.32
12.82
12.47
12.22
11.91
11.30
10.12
8.24
5.72
2.83
-0.08
-2.66
-4.77
-6.49
-8.13
-10.06
-12.58
-15.82
-19.73
-24.02
-28.16
-31.47
-33.20
-32.74
-29.84
-24.76
-18.26
-11.30
-4.77
0.81
5.38
9.16
12.44
15.38
17.91
19.80
20.87
21.04
20.46
19.45
18.42
17.69
17.41
17.50
17.69
17.65
17.16
16.22
15.00
13.75
12.58
11.43
10.08
8.33
6.12
3.59
0.99
-1.46
-3.69
-5.75
-7.78
-9.86
-12.02
-14.27
-16.67
-19.38
-22.56
-26.13
-29.71
-32.57
-33.83
-32.81
-29.29
-23.60
-16.55
-9.12
-2.14
3.93
8.97
13.08
16.41
19.01
20.87
21.97
22.39
22.29
21.89
21.37
20.81
20.23
19.58
18.89
18.21
17.65
17.26
17.07
16.99
16.86
16.48
15.66
14.28
12.35
10.05
7.70
5.60
3.92
2.61
1.41
0.00
-1.83
-4.10
-6.58
-8.96
-10.99
-12.59
-13.93
-15.33
-17.18
-19.74
-23.02
-26.75
-30.30
-32.90
-33.74
-32.30
-28.47
-22.64
-15.55
-8.09
-1.07
5.01
9.94
13.72
16.48
18.31
19.32
19.62
19.38
18.86
18.31
17.92
17.74
17.70
17.67
17.52
17.23
16.87
16.57
16.41
16.41
16.40
16.15
15.41
14.05
12.12
9.86
7.61
5.66
4.15
2.99
1.89
0.47
-1.52
-4.10
-7.02
-9.89
-12.32
-14.15
-15.51
-16.79
-18.42
-20.72
-23.76
-27.28
-30.82
-33.72
-35.30
-34.99
-32.44
-27.70
-21.22
-13.80
-6.36
0.32
5.81
10.03
13.16
15.50
17.22
18.40
19.06
19.20
18.96
18.52
18.09
17.81
17.70
17.64
17.53
17.27
16.86
16.36
15.82
15.27
14.69
14.01
13.15
12.06
10.71
9.14
7.44
5.72
4.06
2.51
0.99
-0.56
-2.25
-4.14
-6.21
-8.39
-10.52
-12.46
-14.13
-15.55
-16.93
-18.55
-20.71
-23.52
-26.84
-30.15
-32.74
-33.87
-33.00
-30.00
-25.18
-19.17
-12.73
-6.54
-1.03
3.61
7.41
10.48
12.92
14.75
15.98
16.62
16.75
16.53
16.14
15.77
15.52
15.38
15.27
15.04
14.61
13.98
13.25
12.57
12.05
11.67
11.32
10.84
10.06
8.92
7.48
5.85
4.14
2.41
0.68
-1.11
-2.98
-4.93
-6.88
-8.75
-10.42
-11.85
-12.99
-13.85
-14.41
-14.66
-14.67
-14.65
-14.91
-15.93
-18.01
-21.18
-24.99
-28.60
-31.00
-31.38
-29.39
-25.25
-19.58
-13.14
-6.65
-0.58
4.78
9.24
12.68
15.00
16.22
16.50
16.15
15.50
14.86
14.43
14.26
14.33
14.53
14.75
14.85
14.72
14.33
13.72
13.02
12.30
11.59
10.81
9.82
8.54
6.98
5.26
3.51
1.82
0.11
-1.73
-3.82
-6.09
-8.39
-10.43
-12.06
-13.29
-14.33
-15.50
-17.06
-19.16
-21.71
-24.46
-26.96
-28.71
-29.21
-28.08
-25.16
-20.45
-14.17
-6.69
1.39
9.27
15.90
20.20
21.44
19.48
14.91
8.78
2.27
-3.58
-7.76
-9.21
-6.94
-0.57
8.96
19.16
26.49
27.66
21.02
7.27
-10.86
-29.96
-47.20
-61.05
-71.03
-76.98
-78.63
-75.75
-68.83
-59.45
-50.12
-43.24
-40.09
-40.29
-42.19
-43.93
-44.41
-43.71
-42.78
-42.58
-43.45
-44.82
-45.55
-44.46
-40.68
-33.86
-24.23
-12.56
-0.13
11.53
20.97
27.36
30.79
32.17
32.86
34.00
36.21
39.38
42.99
46.38
49.06
50.84
51.84
52.30
52.45
52.41
52.09
51.21
49.42
46.44
42.28
37.22
31.75
26.42
21.65
17.63
14.45
12.02
10.24
8.93
7.91
6.95
5.84
4.44
2.74
0.86
-0.98
-2.58
-3.85
-4.81
-5.56
-6.18
-6.58
-6.50
-5.53
-3.19
0.80
6.34
12.78
18.98
23.55
25.31
23.72
19.12
12.64
5.75
-0.25
-4.74
-7.95
-10.83
-14.70
-20.78
-29.79
-41.66
-55.32
-68.74
-79.26
-84.20
-81.62
-70.92
-53.09
-30.55
-6.46
16.02
34.55
48.04
56.76
61.90
64.98
67.27
69.36
71.26
72.60
73.04
72.49
71.09
69.02
66.33
62.82
58.12
51.89
43.99
34.57
24.07
13.19
2.65
-6.88
-14.97
-21.47
-26.49
-30.27
-33.01
-34.89
-35.98
-36.37
-36.19
-35.62
-34.97
-34.56
-34.75
-35.71
-37.41
-39.44
-41.17
-42.03
-41.79
-40.67
-39.32
-38.39
-38.27
-38.87
-39.67
-40.03
-39.49
-37.90
-35.44
-32.44
-29.25
-26.13
-23.24
-20.59
-18.07
-15.46
-12.45
-8.72
-4.07
1.57
8.06
15.11
22.35
29.33
35.65
41.00
45.20
48.25
50.26
51.23
51.01
49.21
45.34
39.07
30.48
20.13
8.99
-1.81
-11.27
-18.68
-23.74
-26.49
-27.27
-26.60
-25.02
-23.08
-21.12
-19.35
-17.87
-16.86
-16.60
-17.34
-19.15
-21.73
-24.41
-26.38
-27.02
-26.01
-23.46
-19.60
-14.70
-8.86
-2.17
5.17
12.70
19.75
25.70
30.12
32.96
34.45
34.97
34.91
34.57
34.09
33.51
32.70
31.47
29.51
26.55
22.39
17.07
10.80
3.96
-3.02
-9.76
-15.98
-21.51
-26.25
-30.16
-33.20
-35.41
-36.75
-37.19
-36.68
-35.17
-32.68
-29.35
-25.39
-21.07
-16.59
-12.06
-7.51
-2.90
1.84
6.73
11.83
17.14
22.68
28.38
34.11
39.66
44.83
49.54
53.80
57.77
61.64
65.57
69.52
73.16
75.96
77.28
76.61
73.85
69.37
63.96
58.50
53.61
49.47
45.84
42.31
38.70
35.17
32.27
30.68
31.02
33.55
38.11
44.08
50.32
55.33
57.47
55.41
48.56
37.40
23.38
8.45
-5.51
-17.31
-26.58
-33.68
-39.21
-43.58
-46.81
-48.52
-48.24
-45.67
-40.87
-34.25
-26.38
-17.88
-9.30
-1.12
6.15
11.92
15.68
17.09
16.25
13.71
10.39
7.25
5.07
4.18
4.41
5.16
5.53
4.61
1.68
-3.50
-10.67
-19.13
-28.02
-36.67
-44.73
-52.21
-59.22
-65.80
-71.82
-76.97
-81.03
-83.84
-85.35
-85.49
-84.19
-81.41
-77.32
-72.39
-67.25
-62.50
-58.44
-54.92
-51.48
-47.58
-42.88
-37.43
-31.61
-25.97
-20.98
-16.89
-13.67
-11.02
-8.52
-5.82
-2.72
0.76
4.39
7.87
10.88
13.21
14.69
15.26
14.88
13.60
11.62
9.21
6.76
4.64
3.08
2.14
1.65
1.32
0.83
-0.12
-1.71
-4.02
-6.94
-10.14
-13.08
-15.09
-15.59
-14.29
-11.33
-7.25
-2.71
1.69
5.65
9.13
12.22
14.92
17.14
18.62
19.17
18.79
17.70
16.30
15.00
14.07
13.56
13.32
13.08
12.61
11.82
10.79
9.74
8.92
8.50
8.49
8.75
9.10
9.35
9.42
9.32
9.09
8.76
8.32
7.76
7.07
6.24
5.25
3.99
2.33
0.16
-2.47
-5.28
-7.73
-9.25
-9.40
-8.07
-5.50
-2.15
1.43
4.83
7.84
10.40
12.49
14.06
14.97
15.12
14.52
13.31
11.75
10.15
8.71
7.50
6.47
5.50
4.47
3.32
2.06
0.70
-0.80
-2.52
-4.57
-7.09
-10.12
-13.61
-17.37
-21.15
-24.75
-28.09
-31.33
-34.76
-38.83
-43.90
-50.15
-57.35
-64.82
-71.53
-76.34
-78.34
-77.18
-73.16
-67.09
-59.94
-52.43
-44.80
-36.81
-27.81
-17.11
-4.09
11.56
29.84
50.35
72.28
94.34
114.89
132.12
144.47
151.03
151.76
147.42
139.31
128.75
116.77
103.94
90.62
77.19
64.31
52.79
43.33
36.14
30.76
26.29
21.68
16.26
9.87
2.80
-4.49
-11.66
-18.71
-25.91
-33.55
-41.78
-50.39
-58.91
-66.80
-73.64
-79.29
-83.93
-87.88
-91.46
-94.86
-98.12
-101.18
-103.85
-105.81
-106.63
-105.67
-102.25
-95.71
-85.64
-72.09
-55.57
-37.04
-17.62
1.72
20.42
38.46
56.20
74.03
91.97
109.47
125.47
138.79
148.54
154.44
156.83
156.50
154.46
151.75
149.32
147.93
147.99
149.43
151.60
153.40
153.62
151.48
146.92
140.70
134.04
128.01
122.99
118.33
112.47
103.50
89.95
71.44
49.01
24.86
1.78
-17.70
-31.99
-40.73
-44.63
-45.08
-43.51
-41.06
-38.36
-35.67
-33.10
-30.70
-28.31
-25.46
-21.44
-15.72
-8.61
-1.67
2.38
0.57
-9.13
-26.86
-50.70
-77.42
-103.64
-126.80
-145.46
-159.05
-167.36
-170.40
-168.64
-163.38
-156.76
-151.30
-148.94
-150.29
-154.23
-158.31
-159.63
-155.93
-146.41
-131.92
-114.51
-96.61
-80.02
-65.49
-52.65
-40.69
-29.02
-17.81
-7.84
-0.01
5.31
8.59
10.90
13.31
16.42
20.04
23.53
26.18
27.61
27.92
27.55
26.97
26.41
25.85
25.01
23.59
21.39
18.46
15.00
11.33
7.73
4.35
1.31
-1.29
-3.22
-4.22
-3.96
-2.29
0.71
4.67
9.01
13.11
16.42
18.61
19.60
19.57
18.83
17.79
16.78
15.99
15.45
15.02
14.53
13.86
13.00
12.06
11.19
10.49
9.92
9.30
8.39
7.06
5.32
3.35
1.41
-0.35
-1.92
-3.44
-5.12
-7.06
-9.25
-11.53
-13.70
-15.52
-16.83
-17.44
-17.19
-15.91
-13.52
-10.13
-6.04
-1.76
2.16
5.29
7.48
8.82
9.53
9.84
9.85
9.55
8.90
7.94
6.83
5.81
5.06
4.64
4.54
4.64
4.85
5.03
5.05
4.75
3.98
2.68
0.86
-1.38
-3.90
-6.61
-9.45
-12.35
-15.24
-18.00
-20.44
-22.37
-23.54
-23.77
-22.92
-20.97
-18.04
-14.36
-10.24
-6.03
-2.01
1.63
4.82
7.60
10.02
12.06
13.63
14.59
14.82
14.35
13.42
12.39
11.61
11.27
11.27
11.30
11.00
10.15
8.81
7.24
5.79
4.68
3.87
3.10
2.07
0.58
-1.36
-3.61
-5.97
-8.31
-10.51
-12.43
-13.77
-14.15
-13.24
-10.96
-7.62
-3.76
-0.02
3.16
5.65
7.51
8.95
10.07
10.84
11.17
10.99
10.38
9.54
8.75
8.22
7.98
7.90
7.72
7.25
6.40
5.27
4.05
2.93
1.96
1.06
0.04
-1.24
-2.83
-4.70
-6.81
-9.09
-11.48
-13.81
-15.76
-16.92
-16.95
-15.73
-13.43
-10.42
-7.13
-3.90
-0.91
1.81
4.17
6.08
7.43
8.15
8.27
7.95
7.34
6.61
5.88
5.24
4.77
4.51
4.42
4.37
4.21
3.79
3.09
2.16
1.16
0.24
-0.52
-1.12
-1.66
-2.29
-3.17
-4.45
-6.22
-8.44
-10.94
-13.38
-15.29
-16.19
-15.73
-13.82
-10.65
-6.66
-2.36
1.81
5.54
8.66
11.10
12.79
13.70
13.84
13.34
12.49
11.60
10.93
10.61
10.57
10.67
10.67
10.44
9.89
9.11
8.21
7.34
6.61
6.02
5.50
4.97
4.34
3.60
2.80
2.01
1.30
0.63
-0.11
-1.08
-2.48
-4.45
-7.03
-10.03
-13.04
-15.50
-16.82
-16.59
-14.68
-11.35
-7.09
-2.49
1.95
5.94
9.33
12.17
14.51
16.38
17.77
18.66
19.02
18.91
18.48
17.92
17.43
17.10
16.94
16.85
16.73
16.48
16.07
15.48
14.71
13.75
12.61
11.31
9.88
8.38
6.84
5.27
3.71
2.19
0.78
-0.48
-1.60
-2.65
-3.76
-5.02
-6.50
-8.21
-10.10
-12.12
-14.19
-16.15
-17.74
-18.61
-18.37
-16.74
-13.71
-9.59
-4.93
-0.37
3.59
6.70
8.93
10.40
11.21
11.42
11.05
10.20
9.11
8.11
7.50
7.47
7.93
8.62
9.21
9.45
9.28
8.86
8.38
8.02
7.79
7.60
7.26
6.64
5.74
4.64
3.49
2.39
1.38
0.39
-0.69
-1.91
-3.31
-4.85
-6.51
-8.25
-10.00
-11.60
-12.76
-13.11
-12.33
-10.31
-7.16
-3.32
0.66
4.25
7.07
9.02
10.19
10.78
11.02
11.07
11.05
11.00
10.91
10.79
10.63
10.40
10.11
9.72
9.26
8.76
8.24
7.73
7.24
6.75
6.24
5.69
5.09
4.45
3.72
2.82
1.70
0.35
-1.14
-2.59
-3.85
-4.84
-5.62
-6.35
-7.22
-8.35
-9.75
-11.35
-13.02
-14.59
-15.90
-16.69
-16.73
-15.80
-13.82
-10.90
-7.34
-3.56
0.07
3.24
5.81
7.75
9.09
9.91
10.31
10.39
10.28
10.11
9.96
9.86
9.79
9.69
9.52
9.25
8.91
8.56
8.23
7.95
7.71
7.48
7.25
7.02
6.76
6.46
6.09
5.64
5.09
4.43
3.63
2.69
1.62
0.47
-0.64
-1.61
-2.34
-2.88
-3.37
-4.04
-5.09
-6.65
-8.65
-10.86
-12.92
-14.47
-15.20
-14.97
-13.79
-11.79
-9.18
-6.24
-3.24
-0.44
1.93
3.70
4.84
5.40
5.53
5.38
5.05
4.65
4.24
3.87
3.58
3.39
3.28
3.22
3.17
3.15
3.18
3.28
3.40
3.46
3.34
2.96
2.28
1.41
0.48
-0.39
-1.15
-1.86
-2.62
-3.56
-4.73
-6.13
-7.69
-9.30
-10.88
-12.38
-13.81
-15.19
-16.66
-18.34
-20.31
-22.54
-24.79
-26.64
-27.68
-27.60
-26.37
-24.26
-21.69
-19.10
-16.78
-14.82
-13.11
-11.48
-9.73
-7.78
-5.60
-3.27
-0.80
1.81
4.62
7.67
10.89
14.05
16.81
18.88
20.11
20.59
20.57
20.28
19.81
19.10
17.97
16.31
14.20
11.81
9.45
7.35
5.60
4.16
2.88
1.63
0.32
-1.05
-2.49
-3.96
-5.45
-6.88
-8.12
-8.95
-9.15
-8.57
-7.17
-5.12
-2.70
-0.24
2.03
3.95
5.50
6.69
7.53
8.02
8.15
7.93
7.42
6.75
6.07
5.51
5.16
5.02
5.00
4.97
4.79
4.40
3.77
2.98
2.14
1.35
0.68
0.12
-0.41
-1.04
-1.87
-2.91
-4.08
-5.21
-6.12
-6.73
-7.05
-7.28
-7.66
-8.44
-9.67
-11.25
-12.84
-13.99
-14.29
-13.47
-11.56
-8.79
-5.59
-2.41
0.39
2.60
4.18
5.24
5.91
6.29
6.46
6.45
6.30
6.06
5.82
5.66
5.61
5.66
5.75
5.80
5.75
5.60
5.37
5.10
4.83
4.55
4.22
3.77
3.12
2.22
1.08
-0.25
-1.67
-3.07
-4.38
-5.53
-6.55
-7.48
-8.44
-9.52
-10.79
-12.12
-13.27
-13.86
-13.56
-12.21
-9.91
-7.02
-4.04
-1.36
0.77
2.35
3.49
4.34
4.98
5.40
5.54
5.36
4.89
4.22
3.47
2.74
2.11
1.59
1.20
0.94
0.80
0.79
0.91
1.14
1.43
1.72
1.92
1.89
1.56
0.87
-0.13
-1.31
-2.47
-3.44
-4.12
-4.51
-4.69
-4.81
-5.05
-5.56
-6.39
-7.46
-8.52
-9.17
-9.01
-7.85
-5.78
-3.17
-0.53
1.69
3.27
4.21
4.70
4.90
4.93
4.81
4.51
4.01
3.32
2.53
1.72
1.00
0.44
0.12
0.04
0.17
0.43
0.73
1.00
1.17
1.22
1.16
0.95
0.56
-0.08
-0.99
-2.14
-3.44
-4.70
-5.77
-6.60
-7.25
-7.89
-8.71
-9.73
-10.75
-11.42
-11.31
-10.17
-8.02
-5.19
-2.14
0.69
3.03
4.84
6.23
7.34
8.21
8.82
9.11
9.06
8.74
8.29
7.82
7.42
7.09
6.83
6.59
6.34
6.05
5.69
5.19
4.51
3.64
2.60
1.46
0.33
-0.71
-1.60
-2.38
-3.15
-4.09
-5.34
-6.95
-8.84
-10.78
-12.54
-13.91
-14.80
-15.16
-14.93
-14.03
-12.40
-10.07
-7.21
-4.12
-1.13
1.52
3.73
5.52
7.01
8.30
9.44
10.40
11.15
11.66
11.95
12.06
12.04
11.92
11.75
11.52
11.27
10.97
10.60
10.13
9.51
8.65
7.51
6.09
4.46
2.74
1.05
-0.50
-1.80
-2.84
-3.62
-4.18
-4.61
-5.05
-5.64
-6.51
-7.73
-9.19
-10.60
-11.58
-11.75
-10.95
-9.24
-6.92
-4.40
-2.01
0.08
1.82
3.26
4.41
5.24
5.70
5.76
5.48
4.99
4.44
3.97
3.64
3.46
3.40
3.38
3.32
3.19
2.94
2.59
2.12
1.51
0.74
-0.20
-1.25
-2.30
-3.22
-3.89
-4.28
-4.43
-4.50
-4.70
-5.21
-6.12
-7.39
-8.78
-9.95
-10.54
-10.30
-9.16
-7.25
-4.83
-2.18
0.45
2.88
4.97
6.61
7.72
8.28
8.34
8.04
7.54
6.97
6.42
5.94
5.54
5.27
5.10
5.00
4.86
4.55
3.97
3.10
2.06
0.98
0.02
-0.80
-1.51
-2.19
-2.90
-3.60
-4.22
-4.72
-5.12
-5.56
-6.21
-7.20
-8.51
-9.97
-11.25
-12.03
-12.07
-11.28
-9.74
-7.64
-5.27
-2.89
-0.74
1.05
2.40
3.31
3.86
4.13
4.21
4.19
4.11
4.02
3.88
3.67
3.33
2.85
2.24
1.59
0.97
0.47
0.07
-0.34
-0.93
-1.88
-3.24
-4.94
-6.76
-8.46
-9.86
-10.92
-11.72
-12.43
-13.19
-14.13
-15.30
-16.70
-18.26
-19.80
-21.01
-21.48
-20.83
-18.79
-15.33
-10.71
-5.32
0.33
5.76
10.60
14.56
17.50
19.44
20.59
21.23
21.64
21.94
22.07
21.90
21.30
20.31
19.13
18.03
17.21
16.68
16.30
15.86
15.22
14.36
13.36
12.32
11.30
10.28
9.22
8.12
7.02
6.02
5.16
4.45
3.84
3.25
2.66
2.04
1.39
0.71
-0.04
-0.87
-1.71
-2.37
-2.59
-2.06
-0.53
2.09
5.72
10.13
14.96
19.78
24.20
27.93
30.75
32.58
33.43
33.35
32.50
31.08
29.41
27.83
26.63
25.98
25.88
26.19
26.69
27.22
27.71
28.14
28.48
28.59
28.24
27.13
25.04
21.85
17.58
12.35
6.29
-0.42
-7.55
-14.82
-21.90
-28.51
-34.37
-39.24
-42.80
-44.57
-43.95
-40.30
-33.22
-22.80
-9.79
4.48
18.31
30.08
38.60
43.29
44.17
41.83
37.25
31.79
27.09
24.84
26.40
32.39
42.29
54.50
66.64
76.25
81.50
81.60
76.95
68.92
59.35
50.03
42.28
36.73
33.29
31.40
30.23
28.87
26.45
22.17
15.49
6.29
-4.92
-17.02
-28.51
-37.99
-44.63
-48.40
-49.99
-50.37
-50.40
-50.47
-50.50
-50.05
-48.65
-46.01
-42.14
-37.38
-32.30
-27.51
-23.55
-20.76
-19.19
-18.70
-18.93
-19.52
-20.21
-20.86
-21.54
-22.41
-23.69
-25.49
-27.82
-30.57
-33.53
-36.47
-39.21
-41.58
-43.50
-44.87
-45.67
-45.92
-45.72
-45.21
-44.52
-43.66
-42.47
-40.62
-37.70
-33.41
-27.74
-21.06
-14.08
-7.66
-2.50
1.07
3.19
4.36
5.17
6.06
7.23
8.59
9.95
11.08
11.85
12.16
11.96
11.22
9.93
8.02
5.46
2.30
-1.24
-4.67
-7.27
-8.27
-7.01
-3.08
3.68
13.18
24.88
37.43
48.52
55.23
55.08
47.25
33.27
16.65
1.52
-9.05
-14.13
-14.73
-12.75
-9.67
-5.98
-1.50
3.84
9.41
13.95
16.30
16.11
14.08
11.58
9.88
9.54
10.30
11.33
11.76
11.19
9.75
8.00
6.61
6.01
6.23
6.93
7.59
7.75
7.17
5.89
4.11
2.03
-0.29
-2.82
-5.57
-8.44
-11.18
-13.55
-15.35
-16.54
-17.30
-17.87
-18.50
-19.40
-20.63
-22.16
-23.78
-25.17
-25.95
-25.85
-24.85
-23.26
-21.60
-20.36
-19.84
-19.99
-20.54
-21.16
-21.64
-21.93
-22.10
-22.20
-22.23
-22.13
-21.87
-21.48
-21.11
-20.95
-21.11
-21.64
-22.42
-23.26
-23.94
-24.27
-24.15
-23.53
-22.44
-20.91
-19.11
-17.22
-15.50
-14.22
-13.50
-13.27
-13.28
-13.13
-12.44
-10.95
-8.56
-5.40
-1.71
2.13
5.66
8.26
9.26
8.02
4.15
-2.32
-10.86
-20.54
-30.19
-38.68
-45.06
-48.64
-49.01
-46.01
-39.81
-30.93
-20.25
-8.93
1.92
11.42
19.10
24.88
28.95
31.54
32.81
32.85
31.71
29.54
26.57
23.10
19.48
15.99
12.90
10.42
8.75
8.04
8.34
9.54
11.43
13.67
15.92
17.90
19.41
20.37
20.72
20.37
19.21
17.09
13.85
9.34
3.45
-3.84
-12.35
-21.69
-31.22
-40.07
-47.36
-52.37
-54.78
-54.68
-52.58
-49.13
-44.96
-40.48
-35.87
-31.19
-26.54
-22.10
-18.09
-14.74
-12.12
-10.19
-8.82
-7.88
-7.22
-6.70
-6.14
-5.31
-4.06
-2.44
-0.71
0.73
1.54
1.65
1.30
0.94
1.05
1.89
3.41
5.33
7.25
8.90
10.21
11.39
12.86
15.20
18.97
24.59
32.15
41.16
50.42
58.09
62.06
60.64
53.12
40.21
23.84
6.57
-9.27
-22.20
-31.82
-38.57
-43.23
-46.40
-48.34
-49.02
-48.44
-46.79
-44.55
-42.28
-40.44
-39.16
-38.28
-37.49
-36.59
-35.60
-34.70
-34.12
-33.89
-33.75
-33.25
-31.91
-29.39
-25.62
-20.76
-15.17
-9.28
-3.58
1.57
5.97
9.68
12.92
16.03
19.21
22.41
25.34
27.55
28.67
28.53
27.27
25.30
23.18
21.49
20.62
20.72
21.63
22.96
24.23
25.04
25.11
24.34
22.79
20.57
17.82
14.66
11.23
7.69
4.19
0.90
-2.07
-4.69
-7.03
-9.16
-11.02
-12.37
-12.83
-11.98
-9.65
-6.01
-1.60
2.86
6.81
9.94
12.25
13.87
14.92
15.41
15.34
14.80
13.99
13.20
12.64
12.34
12.14
11.81
11.21
10.30
9.22
8.14
7.19
6.34
5.49
4.51
3.33
1.95
0.51
-0.89
-2.19
-3.47
-4.89
-6.66
-8.89
-11.47
-14.06
-16.15
-17.24
-16.99
-15.31
-12.39
-8.56
-4.19
0.41
5.02
9.37
13.19
16.20
18.23
19.30
19.64
19.55
19.34
19.18
19.09
18.98
18.78
18.41
17.84
17.09
16.19
15.24
14.34
13.54
12.82
12.03
11.01
9.67
8.06
6.31
4.59
2.99
1.47
-0.11
-1.91
-4.03
-6.46
-9.07
-11.56
-13.53
-14.56
-14.32
-12.65
-9.72
-5.91
-1.73
2.32
5.87
8.72
10.84
12.26
13.09
13.47
13.57
13.55
13.51
13.46
13.33
13.02
12.45
11.67
10.77
9.88
9.11
8.49
7.98
7.54
7.11
6.60
5.94
5.03
3.88
2.55
1.24
0.17
-0.56
-1.03
-1.48
-2.22
-3.45
-5.17
-7.24
-9.39
-11.34
-12.80
-13.49
-13.17
-11.70
-9.20
-6.02
-2.70
0.21
2.39
3.83
4.74
5.43
6.08
6.71
7.22
7.50
7.53
7.39
7.22
7.11
7.10
7.11
7.05
6.87
6.59
6.30
6.06
5.88
5.69
5.32
4.63
3.56
2.20
0.77
-0.52
-1.50
-2.14
-2.51
-2.76
-3.07
-3.58
-4.39
-5.54
-6.94
-8.47
-9.88
-10.93
-11.38
-11.09
-10.01
-8.23
-5.92
-3.34
-0.74
1.63
3.61
5.10
6.08
6.59
6.72
6.59
6.34
6.11
5.96
5.91
5.90
5.85
5.72
5.49
5.20
4.90
4.66
4.52
4.47
4.45
4.36
4.07
3.49
2.61
1.52
0.37
-0.72
-1.69
-2.56
-3.43
-4.35
-5.37
-6.45
-7.57
-8.77
-10.10
-11.65
-13.37
-15.06
-16.36
-16.86
-16.28
-14.62
-12.15
-9.33
-6.59
-4.16
-2.09
-0.28
1.36
2.81
3.93
4.59
4.69
4.30
3.58
2.75
1.98
1.44
1.19
1.27
1.62
2.10
2.50
2.66
2.50
2.09
1.60
1.21
1.02
1.01
1.02
0.87
0.42
-0.30
-1.18
-2.04
-2.82
-3.52
-4.27
-5.21
-6.37
-7.70
-9.08
-10.42
-11.69
-12.89
-14.02
-14.91
-15.30
-14.85
-13.38
-10.93
-7.84
-4.64
-1.89
0.01
0.93
1.00
0.57
0.06
-0.20
-0.05
0.38
0.76
0.70
-0.10
-1.64
-3.58
-5.38
-6.47
-6.57
-5.83
-4.83
-4.31
-4.86
-6.59
-9.09
-11.58
-13.23
-13.58
-12.61
-10.88
-9.38
-9.46
-12.70
-20.53
-33.47
-50.26
-67.43
-79.92
-82.82
-73.32
-52.11
-23.09
8.27
37.01
60.13
76.73
87.25
92.47
93.12
89.93
83.79
75.66
65.99
54.31
39.45
20.34
-2.94
-28.71
-54.02
-75.72
-91.40
-100.12
-102.36
-99.65
-94.04
-87.66
-82.18
-78.40
-75.89
-73.12
-68.02
-58.88
-45.15
-27.78
-8.82
9.41
25.21
37.99
48.27
57.11
65.58
74.30
83.33
92.32
100.73
108.06
113.86
117.71
119.03
116.94
110.33
98.21
80.36
57.76
32.60
7.59
-14.98
-34.03
-49.74
-62.96
-74.29
-83.55
-89.80
-92.10
-90.12
-84.63
-77.18
-69.50
-62.81
-57.45
-52.96
-48.44
-42.98
-36.00
-27.34
-17.24
-6.19
5.17
16.22
26.41
35.32
42.73
48.64
53.30
57.11
60.57
64.18
68.38
73.55
79.95
87.58
96.02
104.25
110.79
114.00
112.54
105.90
94.53
79.70
63.03
46.01
29.55
13.90
-1.08
-15.60
-29.69
-43.25
-56.15
-68.36
-79.69
-89.48
-96.34
-98.46
-94.48
-84.37
-70.03
-54.83
-42.40
-35.22
-33.72
-36.47
-41.06
-45.54
-48.80
-50.73
-51.51
-51.00
-48.68
-44.25
-38.41
-33.32
-31.81
-35.75
-44.59
-54.81
-60.94
-57.64
-41.77
-13.48
24.19
66.40
107.77
143.20
168.20
179.32
174.72
154.93
123.02
84.08
43.82
7.12
-22.90
-44.88
-58.68
-64.97
-64.85
-59.73
-51.23
-40.98
-30.34
-20.22
-11.09
-3.16
3.46
8.71
12.50
14.77
15.45
14.63
12.42
9.06
4.83
0.02
-5.14
-10.52
-16.10
-21.97
-28.23
-34.84
-41.61
-48.13
-54.02
-58.99
-63.03
-66.31
-68.97
-70.88
-71.48
-69.92
-65.43
-57.62
-46.81
-33.89
-20.09
-6.57
6.04
17.67
28.79
39.98
51.62
63.58
75.19
85.49
93.51
98.55
100.35
99.04
95.09
89.17
82.03
74.31
66.39
58.15
49.11
38.68
26.60
13.34
0.06
-11.77
-21.11
-27.90
-33.14
-38.51
-45.48
-54.59
-64.92
-74.42
-80.59
-81.67
-77.41
-69.27
-59.82
-51.55
-45.78
-42.28
-39.68
-36.48
-31.90
-26.14
-20.01
-14.20
-8.85
-3.49
2.38
8.95
15.96
22.97
29.72
36.23
42.51
48.28
52.74
54.86
53.99
50.48
45.83
42.23
41.55
44.46
49.99
56.02
60.31
61.64
60.28
57.62
55.22
53.82
53.09
52.08
50.03
47.07
44.09
42.11
41.47
41.44
40.55
37.34
31.20
22.69
13.31
4.81
-1.60
-5.64
-8.02
-9.97
-12.65
-16.67
-21.87
-27.49
-32.50
-36.03
-37.63
-37.28
-35.30
-32.14
-28.26
-23.96
-19.48
-15.00
-10.73
-6.92
-3.83
-1.70
-0.63
-0.53
-1.11
-2.01
-2.92
-3.69
-4.32
-4.93
-5.58
-6.23
-6.72
-6.88
-6.67
-6.26
-5.96
-6.07
-6.74
-7.89
-9.22
-10.47
-11.47
-12.22
-12.93
-13.84
-15.15
-16.93
-19.16
-21.69
-24.29
-26.64
-28.37
-29.10
-28.56
-26.64
-23.48
-19.43
-14.94
-10.41
-6.16
-2.29
1.18
4.24
6.88
8.99
10.48
11.31
11.57
11.45
11.19
10.96
10.85
10.84
10.82
10.68
10.36
9.84
9.20
8.53
7.92
7.39
6.91
6.35
5.57
4.47
3.04
1.40
-0.29
-1.93
-3.54
-5.25
-7.24
-9.59
-12.22
-14.83
-16.96
-18.15
-18.09
-16.69
-14.14
-10.80
-7.09
-3.37
0.14
3.35
6.24
8.80
10.94
12.56
13.57
13.94
13.81
13.39
12.96
12.69
12.67
12.83
13.03
13.11
12.96
12.56
11.96
11.25
10.48
9.66
8.76
7.70
6.45
5.04
3.52
1.97
0.42
-1.14
-2.81
-4.65
-6.68
-8.87
-11.09
-13.22
-15.22
-17.15
-19.11
-21.15
-23.17
-24.86
-25.78
-25.45
-23.60
-20.28
-15.82
-10.80
-5.82
-1.32
2.47
5.54
8.00
9.96
11.49
12.61
13.33
13.72
13.93
14.09
14.26
14.42
14.48
14.37
14.12
13.79
13.50
13.32
13.26
13.20
13.00
12.56
11.81
10.80
9.62
8.38
7.14
5.89
4.55
3.03
1.28
-0.70
-2.82
-4.96
-6.99
-8.81
-10.43
-11.99
-13.68
-15.76
-18.34
-21.30
-24.25
-26.58
-27.70
-27.20
-25.03
-21.49
-17.08
-12.30
-7.54
-3.06
1.06
4.75
7.93
10.52
12.46
13.77
14.53
14.87
14.92
14.83
14.70
14.62
14.64
14.76
14.96
15.21
15.46
15.71
15.92
16.02
15.82
15.14
13.88
12.14
10.19
8.39
6.98
5.98
5.20
4.28
2.94
1.06
-1.28
-3.82
-6.29
-8.51
-10.42
-12.09
-13.72
-15.54
-17.79
-20.62
-24.00
-27.68
-31.18
-33.85
-35.08
-34.52
-32.23
-28.67
-24.51
-20.36
-16.57
-13.08
-9.66
-6.16
-2.72
0.20
2.04
2.39
1.38
-0.38
-2.01
-2.66
-1.92
0.10
2.89
5.82
8.37
10.22
11.31
11.99
13.14
16.23
22.75
33.46
47.53
62.35
74.12
79.21
75.52
63.14
44.09
21.33
-2.36
-24.84
-44.64
-60.47
-71.07
-75.35
-72.93
-64.45
-51.54
-36.35
-21.01
-7.18
4.29
13.19
19.86
24.86
28.76
31.99
34.84
37.52
40.25
43.28
46.81
50.91
55.37
59.69
63.16
65.04
64.73
62.01
57.17
50.93
44.38
38.64
34.50
32.17
31.13
30.26
28.26
24.10
17.34
8.32
-1.89
-11.81
-19.96
-25.37
-27.90
-28.36
-28.16
-28.72
-30.98
-35.21
-41.24
-48.84
-58.05
-69.05
-81.73
-95.23
-107.65
-116.39
-118.88
-113.52
-100.37
-81.29
-59.40
-38.20
-20.51
-7.81
-0.18
3.30
3.83
2.38
-0.58
-4.74
-9.67
-14.63
-18.70
-21.20
-21.97
-21.37
-20.17
-19.03
-18.29
-17.85
-17.40
-16.53
-15.00
-12.73
-9.78
-6.19
-1.83
3.67
10.89
20.32
32.01
45.28
58.72
70.59
79.36
84.37
85.99
85.40
84.09
83.15
82.97
83.20
82.93
81.00
76.34
68.11
56.03
40.53
22.77
4.34
-13.27
-29.28
-43.91
-58.29
-73.81
-91.34
-110.50
-129.57
-145.76
-156.02
-157.86
-150.14
-133.27
-109.10
-80.34
-49.90
-20.43
6.00
27.86
44.16
54.51
59.24
59.46
56.97
53.68
51.02
49.40
48.23
46.34
42.74
37.24
30.58
24.15
19.41
17.46
18.63
22.52
28.20
34.50
40.41
45.26
48.90
51.53
53.55
55.21
56.48
57.07
56.64
55.10
52.69
49.91
47.30
45.16
43.46
41.91
40.20
38.11
35.56
32.42
28.49
23.51
17.35
10.29
3.12
-3.14
-7.64
-10.14
-11.26
-12.10
-13.75
-16.65
-20.41
-24.00
-26.34
-26.82
-25.45
-22.80
-19.58
-16.33
-13.34
-10.68
-8.39
-6.62
-5.57
-5.38
-5.99
-7.07
-8.15
-8.76
-8.66
-7.91
-6.87
-6.08
-5.99
-6.79
-8.36
-10.31
-12.16
-13.60
-14.50
-14.98
-15.23
-15.48
-15.88
-16.59
-17.68
-19.16
-20.85
-22.37
-23.26
-23.10
-21.68
-19.11
-15.75
-12.06
-8.46
-5.24
-2.57
-0.59
0.54
0.71
-0.07
-1.62
-3.54
-5.36
-6.68
-7.29
-7.23
-6.74
-6.15
-5.68
-5.43
-5.39
-5.55
-5.95
-6.73
-7.98
-9.70
-11.74
-13.82
-15.64
-16.97
-17.68
-17.72
-17.07
-15.79
-13.93
-11.64
-9.06
-6.41
-3.82
-1.42
0.76
2.70
4.38
5.78
6.83
7.46
7.60
7.19
6.24
4.86
3.27
1.69
0.28
-0.90
-1.91
-2.84
-3.70
-4.42
-4.91
-5.17
-5.38
-5.89
-7.12
-9.32
-12.44
-16.02
-19.40
-21.77
-22.60
-21.64
-19.06
-15.27
-10.84
-6.31
-2.08
1.54
4.32
6.11
6.82
6.57
5.67
4.53
3.60
3.16
3.32
4.00
5.04
6.26
7.43
8.28
8.53
7.91
6.39
4.13
1.58
-0.83
-2.71
-3.99
-4.80
-5.44
-6.21
-7.36
-9.01
-11.14
-13.55
-15.90
-17.71
-18.47
-17.83
-15.67
-12.16
-7.72
-2.85
1.95
6.25
9.74
12.17
13.40
13.45
12.53
11.04
9.49
8.34
7.85
8.06
8.74
9.58
10.27
10.61
10.51
10.01
9.15
8.01
6.63
5.05
3.34
1.61
0.03
-1.20
-1.95
-2.19
-2.12
-2.06
-2.42
-3.58
-5.77
-8.96
-12.85
-16.85
-20.24
-22.27
-22.41
-20.48
-16.73
-11.72
-6.20
-0.91
3.61
7.02
9.28
10.55
11.16
11.50
11.86
12.40
13.13
13.95
14.77
15.56
16.27
16.82
17.05
16.81
16.00
14.72
13.21
11.82
10.83
10.39
10.43
10.78
11.18
11.40
11.30
10.80
9.89
8.58
6.91
4.87
2.51
-0.07
-2.64
-4.92
-6.58
-7.44
-7.56
-7.29
-7.15
-7.65
-9.13
-11.59
-14.75
-18.09
-21.07
-23.18
-24.07
-23.51
-21.47
-18.08
-13.67
-8.76
-3.90
0.42
3.88
6.44
8.21
9.37
10.08
10.39
10.35
10.03
9.59
9.23
9.15
9.39
9.86
10.37
10.70
10.72
10.43
9.87
9.13
8.30
7.45
6.63
5.90
5.31
4.85
4.48
4.07
3.43
2.39
0.80
-1.34
-3.86
-6.49
-8.86
-10.68
-11.81
-12.32
-12.40
-12.28
-12.14
-12.10
-12.16
-12.27
-12.27
-11.96
-11.12
-9.52
-7.10
-3.96
-0.37
3.30
6.75
9.78
12.30
14.25
15.60
16.27
16.25
15.56
14.36
12.89
11.37
10.01
8.96
8.30
8.04
8.16
8.58
9.10
9.51
9.57
9.10
8.05
6.45
4.48
2.38
0.38
-1.33
-2.62
-3.50
-4.02
-4.32
-4.55
-4.88
-5.47
-6.47
-7.99
-10.05
-12.60
-15.39
-18.08
-20.24
-21.46
-21.45
-20.10
-17.58
-14.21
-10.45
-6.76
-3.45
-0.67
1.59
3.40
4.85
5.99
6.85
7.50
8.02
8.50
8.97
9.37
9.54
9.33
8.68
7.65
6.46
5.41
4.76
4.65
5.04
5.67
6.22
6.40
6.04
5.18
4.01
2.75
1.58
0.51
-0.53
-1.63
-2.79
-3.93
-4.92
-5.67
-6.18
-6.56
-6.96
-7.59
-8.63
-10.20
-12.31
-14.82
-17.42
-19.65
-21.02
-21.11
-19.76
-17.08
-13.45
-9.44
-5.58
-2.27
0.30
2.17
3.50
4.48
5.24
5.86
6.36
6.78
7.14
7.50
7.85
8.15
8.30
8.26
8.00
7.57
7.04
6.53
6.05
5.60
5.10
4.50
3.79
3.04
2.37
1.93
1.76
1.77
1.78
1.54
0.91
-0.16
-1.54
-3.01
-4.38
-5.46
-6.17
-6.50
-6.56
-6.52
-6.63
-7.17
-8.34
-10.19
-12.50
-14.81
-16.51
-17.02
-15.99
-13.40
-9.63
-5.27
-0.95
2.85
5.90
8.16
9.70
10.60
10.91
10.68
10.01
9.09
8.17
7.47
7.15
7.22
7.60
8.11
8.59
8.88
8.87
8.53
7.88
6.97
5.87
4.66
3.36
2.03
0.72
-0.52
-1.61
-2.50
-3.25
-3.92
-4.61
-5.33
-6.00
-6.56
-7.05
-7.71
-8.93
-11.22
-14.84
-19.66
-25.06
-29.93
-33.11
-33.67
-31.34
-26.58
-20.44
-14.25
-9.14
-5.81
-4.41
-4.73
-6.42
-9.26
-13.10
-17.86
-23.35
-29.18
-34.88
-40.01
-44.24
-47.42
-49.48
-50.25
-49.48
-46.86
-42.37
-36.56
-30.58
-25.78
-22.96
-21.75
-20.46
-16.80
-8.99
3.15
17.93
32.46
43.88
50.60
52.76
51.81
49.54
47.19
45.12
43.00
40.42
37.34
34.28
31.94
30.79
30.57
30.42
29.28
26.51
22.44
18.27
15.57
15.48
18.10
22.45
27.04
30.51
32.28
32.62
32.27
32.06
32.47
33.63
35.42
37.66
40.30
43.49
47.63
53.14
60.16
68.33
76.66
83.85
88.75
90.91
90.71
89.24
87.72
86.84
86.41
85.31
81.88
74.42
61.73
43.34
19.49
-9.03
-40.90
-74.19
-106.35
-134.37
-155.49
-168.01
-171.86
-168.58
-160.65
-150.44
-139.46
-128.23
-116.74
-105.00
-93.42
-82.57
-72.78
-63.87
-55.24
-46.33
-37.01
-27.61
-18.71
-10.81
-4.10
1.52
6.34
10.62
14.48
17.94
20.91
23.31
25.09
26.30
27.06
27.53
27.79
27.85
27.58
26.84
25.55
23.77
21.74
19.71
17.88
16.26
14.74
13.08
11.16
8.94
6.58
4.25
2.09
0.10
-1.81
-3.79
-5.97
-8.41
-11.13
-14.08
-17.11
-19.98
-22.30
-23.60
-23.48
-21.75
-18.52
-14.18
-9.34
-4.55
-0.26
3.36
6.29
8.56
10.16
11.02
11.10
10.52
9.62
8.81
8.50
8.81
9.60
10.52
11.22
11.51
11.40
10.99
10.41
9.71
8.87
7.90
6.80
5.60
4.30
2.86
1.27
-0.47
-2.23
-3.89
-5.38
-6.76
-8.25
-10.11
-12.52
-15.49
-18.81
-22.00
-24.47
-25.66
-25.22
-23.09
-19.54
-15.03
-10.10
-5.17
-0.54
3.66
7.34
10.41
12.81
14.49
15.50
15.95
16.03
15.93
15.85
15.97
16.36
16.98
17.64
18.06
18.00
17.35
16.21
14.82
13.43
12.17
11.00
9.69
8.03
5.95
3.58
1.19
-0.89
-2.52
-3.76
-4.91
-6.33
-8.32
-11.00
-14.27
-17.90
-21.54
-24.76
-27.11
-28.15
-27.58
-25.32
-21.54
-16.62
-11.10
-5.47
-0.15
4.58
8.57
11.78
14.22
15.95
17.08
17.72
18.02
18.15
18.28
18.56
19.01
19.53
19.93
20.01
19.70
19.05
18.23
17.43
16.74
16.15
15.52
14.74
13.76
12.58
11.28
9.92
8.52
6.99
5.24
3.18
0.78
-1.86
-4.56
-7.07
-9.18
-10.80
-11.99
-13.02
-14.28
-16.13
-18.80
-22.19
-25.88
-29.12
-31.09
-31.10
-28.83
-24.46
-18.55
-11.93
-5.39
0.46
5.33
9.19
12.23
14.64
16.51
17.82
18.48
18.45
17.83
16.90
16.04
15.61
15.79
16.54
17.55
18.38
18.56
17.79
16.11
13.89
11.72
10.13
9.26
8.78
8.00
6.20
3.05
-1.17
-5.60
-9.29
-11.53
-12.18
-11.68
-10.79
-10.31
-11.07
-13.83
-19.24
-27.43
-37.56
-47.72
-55.31
-58.16
-55.61
-49.02
-41.28
-35.37
-32.76
-32.70
-32.56
-29.32
-21.02
-7.70
8.89
26.22
42.03
55.07
65.00
72.05
76.49
78.40
77.74
74.60
69.49
63.37
57.47
52.90
50.26
49.43
49.66
49.89
49.30
47.59
45.09
42.51
40.53
39.45
39.10
38.96
38.49
37.46
35.99
34.45
33.20
32.25
31.24
29.61
26.84
22.80
17.75
12.23
6.68
1.25
-4.27
-10.20
-16.69
-23.50
-30.00
-35.32
-38.71
-39.70
-38.21
-34.42
-28.62
-21.18
-12.54
-3.41
5.29
12.49
17.27
19.16
18.25
15.12
10.53
5.10
-0.83
-7.14
-13.73
-20.28
-26.25
-31.07
-34.30
-35.86
-35.99
-35.07
-33.48
-31.47
-29.20
-26.82
-24.53
-22.59
-21.21
-20.43
-20.08
-19.80
-19.27
-18.36
-17.21
-16.19
-15.71
-15.99
-16.99
-18.40
-19.86
-21.13
-22.20
-23.26
-24.61
-26.45
-28.87
-31.78
-34.92
-37.90
-40.21
-41.27
-40.61
-38.00
-33.61
-27.96
-21.80
-15.86
-10.64
-6.26
-2.56
0.76
3.96
7.13
10.25
13.19
15.82
18.09
19.99
21.54
22.73
23.53
23.93
23.94
23.66
23.20
22.63
21.98
21.19
20.20
18.94
17.42
15.70
13.84
11.92
9.97
8.00
6.07
4.24
2.54
0.97
-0.58
-2.21
-4.01
-5.96
-7.99
-10.00
-11.94
-13.87
-15.92
-18.20
-20.73
-23.27
-25.40
-26.57
-26.31
-24.40
-21.00
-16.57
-11.76
-7.16
-3.15
0.15
2.82
4.96
6.63
7.80
8.40
8.43
8.05
7.49
7.00
6.78
6.82
7.01
7.14
7.05
6.66
6.04
5.33
4.72
4.31
4.16
4.26
4.51
4.76
4.81
4.51
3.72
2.45
0.81
-1.01
-2.81
-4.44
-5.85
-7.07
-8.22
-9.51
-11.08
-13.02
-15.24
-17.44
-19.18
-19.98
-19.50
-17.65
-14.62
-10.80
-6.64
-2.53
1.24
4.54
7.26
9.35
10.69
11.23
10.97
10.05
8.76
7.43
6.37
5.75
5.62
5.90
6.40
6.88
7.07
6.73
5.63
3.71
0.99
-2.38
-6.17
-10.17
-14.14
-17.87
-21.19
-23.92
-25.90
-26.95
-26.94
-25.79
-23.63
-20.78
-17.74
-15.06
-13.16
-12.17
-11.91
-11.99
-11.91
-11.23
-9.61
-6.86
-2.98
1.81
7.06
12.14
16.47
19.69
21.81
23.13
24.06
24.82
25.37
25.40
24.52
22.49
19.30
15.19
10.49
5.57
0.70
-3.92
-8.12
-11.80
-14.86
-17.28
-19.11
-20.38
-21.09
-21.14
-20.41
-18.85
-16.59
-13.97
-11.39
-9.17
-7.31
-5.56
-3.60
-1.29
1.14
3.17
4.23
3.93
2.26
-0.45
-3.68
-6.90
-9.64
-11.60
-12.55
-12.34
-11.01
-8.75
-5.96
-3.09
-0.50
1.62
3.30
4.73
6.12
7.63
9.27
10.92
12.42
13.67
14.69
15.65
16.76
18.18
19.94
21.94
23.99
25.96
27.75
29.37
30.80
31.95
32.59
32.47
31.42
29.45
26.80
23.89
21.11
18.69
16.64
14.76
12.72
10.29
7.35
3.97
0.27
-3.66
-7.77
-12.07
-16.49
-20.73
-24.30
-26.60
-27.18
-25.92
-23.13
-19.40
-15.38
-11.55
-8.11
-5.06
-2.34
-0.05
1.63
2.48
2.46
1.73
0.70
-0.18
-0.53
-0.22
0.68
1.88
3.01
3.75
3.87
3.31
2.17
0.67
-0.92
-2.36
-3.53
-4.45
-5.21
-5.92
-6.62
-7.27
-7.80
-8.16
-8.41
-8.67
-9.13
-9.95
-11.14
-12.64
-14.25
-15.74
-16.86
-17.38
-17.14
-16.07
-14.20
-11.61
-8.32
-4.26
0.68
6.57
13.26
20.34
27.16
33.05
37.45
40.11
41.02
40.39
38.51
35.64
32.04
28.00
23.85
19.91
16.49
13.79
11.86
10.62
9.88
9.35
8.73
7.72
6.16
3.99
1.37
-1.42
-4.08
-6.44
-8.50
-10.49
-12.71
-15.42
-18.61
-22.04
-25.22
-27.56
-28.58
-28.05
-26.02
-22.81
-18.86
-14.65
-10.54
-6.73
-3.30
-0.22
2.54
4.97
6.94
8.28
8.86
8.63
7.77
6.55
5.33
4.35
3.77
3.55
3.60
3.82
4.13
4.50
4.86
5.06
4.95
4.35
3.22
1.61
-0.30
-2.25
-4.01
-5.36
-6.21
-6.56
-6.60
-6.61
-6.96
-7.96
-9.76
-12.25
-14.98
-17.32
-18.59
-18.20
-15.87
-11.68
-6.15
-0.17
5.20
9.01
10.76
10.58
9.22
7.75
7.04
7.38
8.32
8.92
8.25
5.80
1.69
-3.45
-8.92
-14.17
-18.87
-22.81
-25.68
-27.09
-26.65
-24.14
-19.70
-13.71
-6.71
0.76
8.15
14.87
20.29
23.81
25.08
24.06
21.12
16.82
11.74
6.33
0.84
-4.66
-10.20
-15.79
-21.36
-26.68
-31.28
-34.49
-35.51
-33.73
-28.91
-21.40
-12.07
-2.10
7.37
15.49
21.82
26.27
28.96
30.09
29.89
28.64
26.68
24.42
22.24
20.40
19.03
18.12
17.62
17.46
17.54
17.77
17.99
18.04
17.79
17.21
16.37
15.37
14.40
13.52
12.75
11.99
11.14
10.10
8.88
7.57
6.33
5.25
4.34
3.50
2.58
1.47
0.15
-1.37
-3.11
-5.17
-7.71
-10.82
-14.38
-17.98
-21.03
-22.94
-23.35
-22.27
-20.02
-17.09
-13.91
-10.73
-7.58
-4.47
-1.39
1.50
4.01
5.96
7.33
8.26
9.01
9.86
10.98
12.36
13.87
15.32
16.52
17.36
17.79
17.83
17.56
17.07
16.49
15.95
15.50
15.10
14.61
13.86
12.72
11.17
9.35
7.46
5.70
4.15
2.75
1.29
-0.47
-2.71
-5.45
-8.56
-11.78
-14.79
-17.19
-18.63
-18.77
-17.43
-14.68
-10.79
-6.24
-1.58
2.71
6.34
9.19
11.24
12.46
12.76
12.07
10.34
7.71
4.54
1.27
-1.64
-3.98
-5.74
-7.18
-8.60
-10.23
-12.16
-14.26
-16.34
-18.17
-19.52
-20.15
-19.79
-18.27
-15.58
-12.04
-8.19
-4.71
-2.08
-0.48
0.24
0.39
0.26
-0.03
-0.53
-1.40
-2.75
-4.56
-6.62
-8.64
-10.20
-10.91
-10.51
-8.95
-6.42
-3.29
0.04
3.23
6.07
8.44
10.24
11.40
11.88
11.74
11.15
10.30
9.38
8.48
7.63
6.81
6.08
5.51
5.18
5.10
5.16
5.17
4.95
4.34
3.30
1.88
0.22
-1.49
-3.09
-4.41
-5.38
-6.04
-6.53
-7.08
-7.92
-9.25
-11.10
-13.28
-15.41
-16.96
-17.44
-16.57
-14.36
-11.13
-7.37
-3.58
-0.14
2.75
5.08
6.85
8.11
8.86
9.11
8.90
8.35
7.58
6.76
6.01
5.40
4.99
4.79
4.78
4.91
5.08
5.18
5.07
4.63
3.80
2.59
1.08
-0.59
-2.31
-4.02
-5.68
-7.30
-8.93
-10.59
-12.32
-14.09
-15.83
-17.35
-18.41
-18.72
-18.07
-16.41
-13.86
-10.76
-7.49
-4.42
-1.81
0.24
1.75
2.78
3.37
3.50
3.18
2.43
1.38
0.23
-0.81
-1.58
-2.06
-2.32
-2.58
-3.06
-3.97
-5.41
-7.36
-9.69
-12.21
-14.73
-17.12
-19.35
-21.49
-23.70
-26.15
-29.03
-32.45
-36.43
-40.85
-45.43
-49.80
-53.55
-56.44
-58.56
-60.36
-62.51
-65.41
-68.83
-71.69
-72.28
-68.82
-60.07
-45.77
-26.65
-4.23
19.54
42.62
63.08
79.33
90.35
95.94
96.76
94.12
89.59
84.49
79.64
75.38
71.76
68.73
66.24
64.15
62.25
60.22
57.73
54.58
50.74
46.33
41.52
36.47
31.28
26.05
20.88
15.96
11.48
7.59
4.35
1.75
-0.30
-1.92
-3.18
-4.13
-4.78
-5.13
-5.15
-4.84
-4.29
-3.65
-3.14
-2.95
-3.20
-3.86
-4.78
-5.73
-6.46
-6.78
-6.53
-5.71
-4.41
-2.87
-1.36
-0.12
0.77
1.44
2.07
2.86
3.78
4.56
4.77
3.93
1.75
-1.83
-6.54
-11.86
-17.17
-21.85
-25.48
-27.90
-29.22
-29.78
-30.00
-30.23
-30.64
-31.09
-31.30
-30.86
-29.44
-26.86
-23.19
-18.66
-13.64
-8.57
-3.82
0.26
3.44
5.60
6.80
7.25
7.27
7.18
7.26
7.61
8.20
8.88
9.51
9.99
10.32
10.52
10.65
10.73
10.74
10.64
10.38
9.92
9.25
8.36
7.23
5.90
4.47
3.09
1.90
0.99
0.35
-0.13
-0.55
-1.05
-1.70
-2.61
-3.87
-5.54
-7.60
-9.83
-11.86
-13.24
-13.57
-12.66
-10.55
-7.53
-4.03
-0.47
2.79
5.51
7.61
9.09
10.04
10.59
10.82
10.81
10.60
10.21
9.66
9.02
8.37
7.80
7.36
7.04
6.77
6.49
6.14
5.73
5.32
4.97
4.69
4.42
4.09
3.60
2.94
2.15
1.22
0.16
-1.07
-2.49
-4.05
-5.64
-7.10
-8.34
-9.35
-10.26
-11.26
-12.52
-14.06
-15.69
-17.07
-17.73
-17.28
-15.58
-12.72
-9.10
-5.20
-1.50
1.70
4.28
6.22
7.57
8.38
8.68
8.55
8.14
7.65
7.29
7.16
7.25
7.44
7.56
7.52
7.31
7.01
6.75
6.59
6.48
6.29
5.79
4.84
3.38
1.52
-0.53
-2.52
-4.23
-5.58
-6.60
-7.49
-8.47
-9.77
-11.51
-13.67
-16.00
-18.15
-19.65
-20.09
-19.22
-17.07
-13.93
-10.25
-6.47
-2.95
0.14
2.77
4.95
6.67
7.87
8.48
8.46
7.91
7.03
6.07
5.31
4.90
4.89
5.16
5.54
5.86
6.03
6.04
5.96
5.84
5.66
5.34
4.76
3.80
2.47
0.88
-0.78
-2.26
-3.43
-4.28
-4.97
-5.75
-6.87
-8.45
-10.47
-12.68
-14.76
-16.37
-17.24
-17.18
-16.16
-14.24
-11.59
-8.47
-5.15
-1.95
0.90
3.25
5.03
6.24
6.92
7.16
7.08
6.82
6.56
6.44
6.56
6.92
7.42
7.91
8.22
8.22
7.90
7.34
6.68
6.08
5.62
5.24
4.80
4.11
3.03
1.57
-0.08
-1.68
-3.01
-4.01
-4.76
-5.46
-6.32
-7.47
-8.95
-10.72
-12.70
-14.74
-16.66
-18.17
-18.93
-18.67
-17.20
-14.56
-11.05
-7.13
-3.33
-0.06
2.51
4.42
5.83
6.94
7.84
8.48
8.79
8.75
8.45
8.10
7.93
8.08
8.53
9.09
9.52
9.62
9.32
8.67
7.81
6.89
6.03
5.28
4.66
4.11
3.55
2.85
1.90
0.61
-0.98
-2.78
-4.57
-6.15
-7.40
-8.33
-9.15
-10.12
-11.52
-13.50
-15.98
-18.69
-21.18
-22.95
-23.61
-22.95
-20.98
-17.89
-14.03
-9.79
-5.62
-1.90
1.07
3.17
4.46
5.15
5.50
5.70
5.85
5.95
6.01
6.04
6.13
6.34
6.69
7.09
7.41
7.56
7.53
7.40
7.27
7.17
7.04
6.70
5.99
4.85
3.33
1.62
-0.07
-1.56
-2.81
-3.87
-4.87
-5.97
-7.31
-9.01
-11.10
-13.56
-16.16
-18.57
-20.33
-21.01
-20.31
-18.21
-14.95
-10.98
-6.78
-2.74
0.92
4.09
6.74
8.84
10.36
11.25
11.58
11.49
11.22
11.01
11.01
11.25
11.61
11.93
12.07
11.98
11.75
11.47
11.22
10.98
10.62
9.97
8.95
7.60
6.04
4.42
2.86
1.38
-0.04
-1.40
-2.70
-3.95
-5.19
-6.50
-7.95
-9.56
-11.32
-13.21
-15.24
-17.42
-19.67
-21.72
-23.10
-23.29
-21.96
-19.09
-15.05
-10.45
-5.88
-1.75
1.81
4.85
7.44
9.57
11.13
12.02
12.27
12.07
11.74
11.61
11.83
12.37
12.99
13.45
13.59
13.44
13.13
12.85
12.66
12.46
12.09
11.37
10.29
8.99
7.69
6.55
5.59
4.67
3.55
2.13
0.46
-1.25
-2.73
-3.88
-4.78
-5.69
-6.92
-8.68
-10.99
-13.74
-16.66
-19.45
-21.74
-23.13
-23.27
-21.93
-19.13
-15.16
-10.49
-5.68
-1.22
2.54
5.41
7.40
8.62
9.31
9.71
10.02
10.30
10.52
10.59
10.53
10.38
10.27
10.30
10.47
10.71
10.89
10.91
10.74
10.35
9.75
8.95
7.95
6.82
5.63
4.45
3.30
2.14
0.93
-0.39
-1.82
-3.32
-4.82
-6.26
-7.61
-8.96
-10.46
-12.29
-14.55
-17.10
-19.55
-21.32
-21.82
-20.65
-17.79
-13.63
-8.80
-3.96
0.38
4.00
6.87
9.08
10.73
11.89
12.58
12.88
12.89
12.76
12.63
12.55
12.48
12.31
11.97
11.42
10.72
9.95
9.20
8.53
7.93
7.34
6.64
5.71
4.45
2.82
0.86
-1.30
-3.48
-5.47
-7.16
-8.50
-9.58
-10.58
-11.72
-13.27
-15.36
-17.98
-20.87
-23.58
-25.55
-26.24
-25.37
-22.97
-19.34
-14.96
-10.30
-5.72
-1.48
2.28
5.45
7.93
9.69
10.79
11.35
11.50
11.40
11.11
10.74
10.41
10.26
10.41
10.86
11.46
11.97
12.18
12.01
11.49
10.76
9.91
8.99
7.94
6.71
5.29
3.74
2.15
0.58
-0.97
-2.54
-4.22
-6.05
-8.02
-10.09
-12.25
-14.54
-16.99
-19.58
-22.08
-24.07
-24.99
-24.35
-21.95
-17.98
-12.98
-7.63
-2.54
1.93
5.63
8.52
10.60
11.90
12.49
12.57
12.40
12.26
12.33
12.65
13.14
13.68
14.14
14.43
14.50
14.29
13.79
13.05
12.18
11.34
10.64
10.08
9.57
8.93
8.01
6.72
5.08
3.19
1.20
-0.75
-2.56
-4.20
-5.73
-7.28
-9.04
-11.18
-13.76
-16.66
-19.60
-22.17
-23.91
-24.45
-23.57
-21.22
-17.58
-12.98
-7.91
-2.88
1.66
5.40
8.19
10.06
11.15
11.64
11.72
11.57
11.34
11.18
11.17
11.38
11.77
12.28
12.76
13.09
13.20
13.11
12.86
12.54
12.16
11.67
10.94
9.86
8.37
6.53
4.49
2.41
0.47
-1.25
-2.75
-4.05
-5.24
-6.46
-7.87
-9.70
-12.12
-15.18
-18.67
-22.08
-24.67
-25.69
-24.65
-21.53
-16.81
-11.29
-5.81
-0.97
3.00
6.16
8.66
10.60
11.94
12.60
12.57
12.00
11.19
10.47
10.11
10.17
10.55
11.05
11.40
11.42
11.05
10.37
9.54
8.72
7.98
7.20
6.20
4.76
2.83
0.58
-1.72
-3.77
-5.43
-6.73
-7.88
-9.08
-10.49
-12.17
-14.09
-16.13
-18.04
-19.49
-20.06
-19.40
-17.38
-14.11
-9.95
-5.42
-1.01
2.94
6.28
9.03
11.30
13.23
14.85
16.13
16.97
17.32
17.20
16.78
16.34
16.10
16.17
16.50
16.99
17.52
18.03
18.49
18.81
18.87
18.55
17.80
16.69
15.39
14.13
13.01
12.03
11.08
9.99
8.69
7.20
5.63
4.15
2.89
1.90
1.11
0.34
-0.68
-2.23
-4.46
-7.32
-10.44
-13.21
-14.98
-15.24
-13.78
-10.78
-6.64
-1.92
2.90
7.36
11.12
13.88
15.43
15.66
14.57
12.35
9.31
5.85
2.45
-0.42
-2.46
-3.65
-4.38
-5.34
-7.24
-10.50
-14.99
-20.11
-24.99
-28.88
-31.37
-32.45
-32.43
-31.72
-30.64
-29.32
-27.73
-25.82
-23.57
-21.11
-18.71
-16.61
-14.97
-13.76
-12.81
-11.93
-10.99
-9.95
-8.78
-7.31
-5.24
-2.23
1.90
7.01
12.67
18.27
23.27
27.39
30.60
33.08
35.12
36.95
38.74
40.60
42.58
44.67
46.83
48.97
50.94
52.49
53.27
52.84
50.82
47.08
41.84
35.61
29.06
22.66
16.65
10.98
5.62
0.60
-3.92
-7.85
-11.41
-15.07
-19.40
-24.71
-30.84
-37.21
-43.11
-48.08
-52.06
-55.40
-58.63
-62.27
-66.66
-71.85
-77.49
-82.71
-86.24
-86.74
-83.30
-75.90
-65.47
-53.55
-41.60
-30.52
-20.48
-11.26
-2.69
4.99
11.27
15.70
18.40
20.00
21.44
23.41
26.08
29.01
31.57
33.29
34.12
34.36
34.41
34.51
34.56
34.16
32.92
30.69
27.59
23.97
20.23
16.64
13.28
10.04
6.80
3.43
-0.05
-3.61
-7.14
-10.47
-13.35
-15.46
-16.44
-16.04
-14.24
-11.31
-7.72
-4.08
-0.85
1.71
3.59
4.93
5.88
6.55
6.95
7.13
7.18
7.28
7.62
8.25
9.12
10.02
10.73
11.17
11.40
11.59
11.83
12.01
11.83
10.84
8.72
5.39
1.12
-3.62
-8.33
-12.62
-16.34
-19.49
-22.17
-24.45
-26.29
-27.57
-28.08
-27.62
-26.09
-23.49
-20.06
-16.14
-12.14
-8.38
-5.07
-2.25
0.18
2.31
4.20
5.80
7.05
7.86
8.20
8.14
7.81
7.38
6.98
6.74
6.67
6.77
7.00
7.28
7.52
7.61
7.47
7.11
6.63
6.18
5.85
5.59
5.17
4.27
2.64
0.20
-2.92
-6.46
-10.17
-13.85
-17.32
-20.36
-22.64
-23.83
-23.70
-22.25
-19.73
-16.52
-12.93
-9.05
-4.95
-0.83
2.70
4.68
4.05
0.16
-6.85
-16.05
-25.93
-34.92
-41.82
-45.98
-47.30
-45.93
-42.16
-36.28
-28.74
-20.17
-11.41
-3.43
2.94
7.15
9.16
9.44
8.94
8.91
10.53
14.60
21.22
29.72
38.84
47.08
53.16
56.40
56.80
54.98
51.88
48.53
45.72
43.97
43.41
43.84
44.75
45.47
45.28
43.60
40.17
35.09
28.80
21.97
15.32
9.48
4.85
1.54
-0.54
-1.63
-2.04
-2.07
-1.95
-1.80
-1.70
-1.64
-1.58
-1.48
-1.33
-1.12
-0.89
-0.75
-0.83
-1.32
-2.36
-3.96
-5.92
-7.86
-9.32
-9.97
-9.79
-9.05
-8.24
-7.86
-8.15
-8.96
-9.80
-10.01
-8.97
-6.36
-2.22
3.08
8.97
14.92
20.64
26.07
31.25
36.13
40.27
42.90
43.09
40.16
34.04
25.45
15.86
7.14
1.17
-0.69
2.12
9.12
18.72
28.50
35.72
38.00
34.09
24.25
10.10
-6.02
-21.98
-36.55
-49.62
-61.78
-73.65
-85.16
-95.47
-103.25
-107.18
-106.52
-101.31
-92.37
-81.16
-69.72
-60.47
-55.85
-57.66
-66.27
-80.06
-95.33
-107.25
-111.34
-104.92
-88.11
-63.60
-35.66
-8.66
14.14
31.16
42.33
48.47
50.65
49.91
47.12
43.19
39.07
35.62
33.44
32.69
33.12
34.31
35.82
37.37
38.84
40.28
41.68
42.95
43.85
44.10
43.37
41.43
38.22
33.80
28.40
22.32
15.99
9.83
4.24
-0.49
-4.21
-6.95
-8.91
-10.34
-11.48
-12.50
-13.47
-14.38
-15.15
-15.65
-15.68
-14.99
-13.31
-10.52
-6.68
-2.14
2.61
7.01
10.67
13.40
15.25
16.45
17.27
17.94
18.62
19.35
20.03
20.46
20.41
19.65
18.11
15.93
13.39
10.89
8.84
7.59
7.37
8.22
10.02
12.43
15.04
17.47
19.43
20.70
21.01
19.95
17.03
11.92
4.67
-4.08
-13.23
-21.51
-27.88
-31.70
-32.89
-31.76
-28.93
-25.12
-21.10
-17.55
-14.92
-13.34
-12.65
-12.49
-12.49
-12.30
-11.67
-10.35
-8.17
-5.08
-1.23
2.99
7.12
10.70
13.55
15.72
17.47
19.01
20.43
21.62
22.37
22.50
21.98
20.97
19.83
18.96
18.71
19.23
20.43
21.99
23.42
24.27
24.27
23.41
21.92
20.07
17.98
15.59
12.69
9.15
5.10
1.06
-2.26
-4.19
-4.42
-3.16
-1.16
0.58
1.13
-0.12
-3.31
-8.12
-14.02
-20.23
-25.94
-30.29
-32.62
-32.82
-31.59
-30.35
-30.78
-34.06
-40.21
-47.96
-55.34
-60.57
-62.92
-62.84
-61.46
-59.70
-57.53
-54.08
-48.17
-39.23
-27.72
-15.05
-2.94
7.35
15.35
21.33
25.79
28.95
30.62
30.34
27.84
23.36
17.76
12.15
7.57
4.53
2.98
2.39
2.02
1.26
-0.24
-2.51
-5.28
-8.16
-10.72
-12.58
-13.47
-13.24
-11.91
-9.65
-6.77
-3.61
-0.46
2.47
5.13
7.48
9.48
11.03
12.01
12.35
12.17
11.71
11.31
11.22
11.58
12.30
13.19
13.99
14.50
14.65
14.47
14.08
13.63
13.20
12.73
12.05
10.96
9.32
7.19
4.76
2.30
0.02
-2.01
-3.86
-5.64
-7.47
-9.36
-11.36
-13.50
-15.80
-18.18
-20.39
-22.01
-22.54
-21.66
-19.30
-15.77
-11.63
-7.41
-3.55
-0.19
2.72
5.28
7.58
9.57
11.18
12.30
12.96
13.26
13.33
13.28
13.15
12.91
12.54
12.05
11.51
11.04
10.71
10.55
10.47
10.30
9.85
8.98
7.63
5.88
3.86
1.77
-0.23
-2.04
-3.63
-4.99
-6.11
-7.04
-7.91
-8.93
-10.40
-12.51
-15.32
-18.56
-21.67
-23.94
-24.70
-23.58
-20.61
-16.21
-11.07
-5.88
-1.15
2.89
6.25
9.00
11.17
12.72
13.60
13.84
13.63
13.29
13.11
13.28
13.76
14.38
14.92
15.26
15.34
15.22
14.96
14.58
14.04
13.29
12.31
11.11
9.70
8.10
6.28
4.30
2.24
0.23
-1.64
-3.37
-5.09
-6.98
-9.20
-11.82
-14.73
-17.71
-20.38
-22.34
-23.21
-22.68
-20.63
-17.21
-12.82
-8.04
-3.48
0.45
3.58
5.97
7.80
9.20
10.20
10.82
11.10
11.20
11.35
11.70
12.25
12.82
13.16
13.07
12.55
11.77
10.97
10.30
9.79
9.35
8.80
8.07
7.06
5.82
4.34
2.70
0.98
-0.68
-2.13
-3.28
-4.18
-5.01
-6.02
-7.51
-9.71
-12.65
-16.18
-19.87
-23.09
-25.13
-25.38
-23.52
-19.69
-14.41
-8.49
-2.75
2.20
6.10
8.96
11.05
12.63
13.90
14.94
15.71
16.13
16.19
15.97
15.62
15.29
15.11
15.08
15.15
15.23
15.26
15.19
14.97
14.52
13.73
12.51
10.89
9.03
7.17
5.56
4.27
3.26
2.36
1.37
0.12
-1.40
-3.15
-5.06
-7.03
-9.04
-11.06
-13.11
-15.23
-17.45
-19.74
-21.98
-23.84
-24.89
-24.69
-22.95
-19.69
-15.24
-10.17
-5.02
-0.22
4.06
7.77
10.93
13.49
15.33
16.39
16.72
16.53
16.16
15.92
16.00
16.37
16.84
17.18
17.23
17.00
16.61
16.21
15.88
15.54
15.02
14.16
12.87
11.24
9.48
7.81
6.38
5.21
4.18
3.10
1.85
0.36
-1.29
-2.95
-4.49
-5.80
-6.94
-8.01
-9.20
-10.70
-12.64
-15.09
-18.02
-21.25
-24.41
-26.89
-27.99
-27.14
-24.13
-19.28
-13.36
-7.34
-2.06
2.03
4.95
6.99
8.55
9.87
10.94
11.65
11.87
11.65
11.15
10.69
10.49
10.63
11.01
11.44
11.77
11.95
12.02
12.03
11.96
11.71
11.16
10.24
8.96
7.43
5.78
4.16
2.64
1.29
0.10
-1.01
-2.13
-3.32
-4.62
-6.00
-7.41
-8.89
-10.53
-12.49
-14.85
-17.51
-20.13
-22.21
-23.22
-22.81
-20.89
-17.62
-13.37
-8.58
-3.68
0.94
5.00
8.32
10.82
12.48
13.32
13.43
12.92
11.98
10.89
9.93
9.34
9.21
9.46
9.89
10.28
10.45
10.31
9.89
9.24
8.41
7.44
6.36
5.19
3.95
2.65
1.30
-0.14
-1.68
-3.32
-4.99
-6.55
-7.91
-8.97
-9.78
-10.49
-11.31
-12.43
-13.97
-15.93
-18.10
-20.18
-21.74
-22.34
-21.66
-19.61
-16.34
-12.23
-7.76
-3.34
0.75
4.38
7.48
9.98
11.80
12.89
13.30
13.19
12.78
12.27
11.79
11.41
11.14
10.99
10.93
10.96
11.02
11.03
10.87
10.47
9.75
8.74
7.54
6.31
5.21
4.33
3.62
2.92
2.02
0.77
-0.84
-2.65
-4.46
-6.07
-7.44
-8.63
-9.80
-11.09
-12.63
-14.48
-16.68
-19.21
-21.89
-24.37
-26.12
-26.59
-25.37
-22.41
-18.06
-12.95
-7.77
-3.04
1.03
4.48
7.43
9.91
11.82
12.99
13.33
12.97
12.24
11.60
11.35
11.59
12.13
12.66
12.94
12.92
12.71
12.50
12.37
12.26
11.98
11.34
10.29
8.93
7.47
6.10
4.95
3.96
2.97
1.79
0.25
-1.71
-3.94
-6.21
-8.20
-9.74
-10.83
-11.71
-12.73
-14.15
-16.10
-18.45
-20.92
-23.19
-24.93
-25.83
-25.57
-23.91
-20.76
-16.33
-11.09
-5.69
-0.73
3.38
6.51
8.72
10.13
10.83
10.87
10.30
9.33
8.24
7.34
6.85
6.82
7.15
7.61
7.97
8.06
7.85
7.35
6.69
5.98
5.35
4.83
4.41
3.98
3.37
2.43
1.07
-0.69
-2.68
-4.66
-6.40
-7.77
-8.86
-9.88
-11.12
-12.80
-14.98
-17.53
-20.10
-22.22
-23.40
-23.25
-21.58
-18.50
-14.40
-9.80
-5.23
-1.05
2.60
5.70
8.30
10.35
11.72
12.28
12.00
11.06
9.78
8.55
7.72
7.43
7.63
8.09
8.52
8.69
8.49
7.92
7.14
6.29
5.46
4.66
3.78
2.71
1.38
-0.16
-1.77
-3.29
-4.66
-5.92
-7.22
-8.71
-10.48
-12.48
-14.62
-16.79
-18.91
-20.91
-22.59
-23.67
-23.76
-22.55
-19.94
-16.11
-11.50
-6.64
-2.00
2.14
5.66
8.56
10.86
12.51
13.48
13.71
13.31
12.50
11.58
10.81
10.32
10.02
9.70
9.14
8.25
7.12
5.97
4.99
4.23
3.59
2.86
1.85
0.50
-1.08
-2.70
-4.17
-5.36
-6.28
-7.04
-7.79
-8.64
-9.67
-10.90
-12.38
-14.17
-16.32
-18.82
-21.45
-23.75
-25.09
-24.86
-22.75
-18.85
-13.72
-8.10
-2.71
2.03
6.01
9.31
12.05
14.29
15.93
16.90
17.21
16.99
16.49
15.96
15.54
15.29
15.17
15.13
15.17
15.31
15.51
15.68
15.66
15.27
14.40
13.10
11.50
9.77
8.04
6.40
4.88
3.48
2.17
0.92
-0.34
-1.65
-3.06
-4.60
-6.31
-8.27
-10.64
-13.52
-16.85
-20.25
-23.06
-24.53
-24.15
-21.83
-17.96
-13.24
-8.38
-3.89
0.04
3.40
6.26
8.57
10.26
11.25
11.53
11.27
10.68
10.02
9.50
9.26
9.37
9.83
10.54
11.34
12.02
12.42
12.46
12.16
11.61
10.88
9.97
8.88
7.58
6.08
4.45
2.75
1.01
-0.71
-2.43
-4.13
-5.80
-7.45
-9.13
-10.98
-13.17
-15.80
-18.78
-21.81
-24.37
-25.85
-25.74
-23.82
-20.22
-15.45
-10.20
-5.12
-0.67
2.99
5.90
8.17
9.84
10.87
11.22
10.97
10.33
9.61
9.09
8.90
9.00
9.22
9.40
9.41
9.25
8.98
8.66
8.35
7.99
7.47
6.63
5.35
3.65
1.68
-0.24
-1.85
-3.02
-3.86
-4.66
-5.75
-7.39
-9.66
-12.45
-15.54
-18.58
-21.14
-22.75
-22.94
-21.40
-18.13
-13.50
-8.11
-2.66
2.27
6.36
9.57
11.95
13.60
14.59
14.96
14.83
14.42
14.01
13.85
14.07
14.60
15.23
15.66
15.67
15.17
14.24
13.12
12.06
11.24
10.68
10.17
9.42
8.17
6.38
4.22
2.07
0.22
-1.21
-2.38
-3.61
-5.22
-7.38
-10.06
-13.11
-16.34
-19.55
-22.45
-24.59
-25.44
-24.52
-21.65
-17.12
-11.59
-5.94
-0.87
3.21
6.30
8.62
10.44
11.91
13.06
13.82
14.18
14.27
14.24
14.28
14.50
14.87
15.28
15.60
15.71
15.56
15.13
14.42
13.47
12.30
10.94
9.46
7.95
6.46
5.05
3.67
2.29
0.84
-0.74
-2.43
-4.20
-5.99
-7.72
-9.38
-11.03
-12.80
-14.85
-17.31
-20.14
-23.06
-25.55
-26.99
-26.83
-24.83
-21.14
-16.26
-10.84
-5.53
-0.75
3.28
6.52
9.00
10.75
11.79
12.23
12.25
12.11
12.03
12.11
12.37
12.70
12.97
13.08
13.02
12.83
12.56
12.23
11.81
11.23
10.38
9.28
8.02
6.78
5.76
5.09
4.71
4.42
3.95
3.09
1.75
0.07
-1.73
-3.41
-4.88
-6.19
-7.54
-9.13
-11.13
-13.54
-16.15
-18.58
-20.32
-20.91
-20.02
-17.57
-13.79
-9.12
-4.13
0.62
4.75
8.08
10.61
12.41
13.60
14.21
14.30
13.92
13.20
12.31
11.47
10.84
10.51
10.47
10.58
10.72
10.71
10.48
10.01
9.38
8.68
7.96
7.25
6.49
5.63
4.65
3.54
2.31
0.94
-0.54
-2.11
-3.67
-5.12
-6.38
-7.49
-8.62
-10.01
-11.89
-14.33
-17.19
-20.11
-22.63
-24.24
-24.57
-23.39
-20.75
-16.89
-12.28
-7.45
-2.85
1.18
4.51
7.11
8.97
10.10
10.49
10.22
9.50
8.58
7.77
7.24
7.08
7.20
7.50
7.84
8.12
8.27
8.23
7.98
7.56
7.02
6.39
5.65
4.69
3.39
1.70
-0.24
-2.18
-3.82
-4.97
-5.68
-6.23
-7.05
-8.48
-10.66
-13.47
-16.57
-19.49
-21.71
-22.77
-22.31
-20.21
-16.58
-11.86
-6.69
-1.76
2.41
5.61
7.93
9.62
10.91
11.92
12.58
12.83
12.67
12.23
11.71
11.27
11.00
10.86
10.74
10.56
10.28
9.93
9.51
9.02
8.43
7.73
6.94
6.12
5.30
4.44
3.44
2.19
0.59
-1.31
-3.36
-5.36
-7.15
-8.68
-10.05
-11.39
-12.87
-14.62
-16.68
-19.06
-21.60
-23.98
-25.68
-26.12
-24.87
-21.81
-17.30
-12.01
-6.76
-2.15
1.53
4.34
6.52
8.30
9.79
10.96
11.76
12.20
12.36
12.42
12.55
12.81
13.17
13.48
13.59
13.41
12.97
12.38
11.77
11.21
10.67
10.07
9.31
8.37
7.28
6.13
4.99
3.85
2.65
1.27
-0.36
-2.23
-4.23
-6.21
-8.00
-9.51
-10.76
-11.92
-13.20
-14.83
-16.96
-19.58
-22.46
-25.22
-27.34
-28.31
-27.72
-25.39
-21.47
-16.40
-10.84
-5.41
-0.62
3.28
6.31
8.58
10.25
11.42
12.18
12.59
12.76
12.81
12.89
13.04
13.24
13.38
13.38
13.22
13.00
12.86
12.87
13.00
13.05
12.78
12.03
10.84
9.41
8.01
6.83
5.90
5.07
4.20
3.18
2.05
0.92
-0.16
-1.22
-2.36
-3.65
-5.09
-6.61
-8.10
-9.56
-11.08
-12.79
-14.82
-17.19
-19.73
-22.15
-24.00
-24.82
-24.24
-22.11
-18.58
-14.08
-9.23
-4.57
-0.52
2.79
5.41
7.45
8.97
10.00
10.57
10.74
10.68
10.58
10.58
10.72
10.94
11.08
11.05
10.83
10.50
10.21
10.04
10.01
9.98
9.74
9.09
7.96
6.43
4.76
3.22
2.03
1.24
0.70
0.13
-0.74
-2.11
-3.92
-5.97
-7.92
-9.54
-10.72
-11.59
-12.44
-13.53
-15.10
-17.24
-19.92
-22.93
-25.92
-28.34
-29.61
-29.21
-26.97
-23.17
-18.45
-13.57
-9.07
-5.08
-1.45
2.05
5.44
8.54
11.06
12.88
14.22
15.59
17.52
20.38
24.15
28.42
32.53
35.76
37.46
37.33
35.43
32.30
28.88
26.23
25.26
26.37
29.30
33.16
36.70
38.63
38.00
34.42
28.10
19.77
10.40
1.10
-7.14
-13.50
-17.52
-19.20
-19.01
-17.83
-16.72
-16.56
-17.85
-20.58
-24.31
-28.43
-32.28
-35.32
-37.12
-37.42
-36.15
-33.46
-29.71
-25.28
-20.46
-15.46
-10.52
-6.03
-2.49
-0.36
0.20
-0.60
-2.20
-3.95
-5.31
-6.07
-6.28
-6.08
-5.64
-4.99
-4.07
-2.69
-0.65
2.25
6.08
10.64
15.54
20.31
24.54
27.99
30.64
32.54
33.71
34.16
33.94
33.13
31.89
30.43
28.91
27.45
26.11
24.93
23.92
23.06
22.30
21.63
21.12
20.98
21.50
22.90
25.19
28.07
31.11
33.84
35.99
37.52
38.53
39.10
39.20
38.64
37.24
34.86
31.41
26.72
20.51
12.44
2.34
-9.55
-22.50
-35.48
-47.46
-57.80
-66.35
-73.36
-79.21
-84.20
-88.44
-91.99
-94.87
-97.08
-98.52
-98.90
-97.78
-94.81
-90.03
-84.07
-78.02
-73.08
-70.14
-69.55
-71.02
-73.74
-76.44
-77.56
-75.56
-69.58
-59.90
-48.12
-36.50
-26.86
-19.54
-13.18
-5.57
5.05
18.81
34.11
48.42
59.56
66.55
69.70
70.00
68.31
65.08
60.42
54.47
47.67
40.76
34.52
29.54
26.01
23.73
22.17
20.63
18.56
15.71
12.29
8.86
6.07
4.34
3.70
3.75
3.84
3.39
2.17
0.33
-1.67
-3.37
-4.49
-5.04
-5.19
-5.12
-4.85
-4.25
-3.16
-1.51
0.59
2.97
5.43
7.81
10.03
11.99
13.55
14.56
14.97
14.82
14.29
13.60
12.90
12.24
11.54
10.72
9.71
8.53
7.28
6.09
5.12
4.47
4.15
4.03
3.89
3.45
2.56
1.21
-0.39
-1.96
-3.29
-4.34
-5.23
-6.19
-7.36
-8.81
-10.44
-12.06
-13.44
-14.37
-14.72
-14.39
-13.38
-11.71
-9.46
-6.72
-3.59
-0.21
3.21
6.36
8.95
10.75
11.70
11.92
11.66
11.24
10.91
10.82
11.00
11.35
11.75
12.06
12.16
12.06
11.78
11.42
11.02
10.59
10.04
9.22
7.99
6.28
4.13
1.72
-0.73
-3.00
-4.95
-6.64
-8.22
-9.93
-11.98
-14.49
-17.47
-20.79
-24.14
-27.06
-29.00
-29.42
-28.01
-24.80
-20.20
-14.89
-9.60
-4.85
-0.85
2.46
5.28
7.78
9.97
11.73
12.92
13.50
13.59
13.47
13.41
13.59
14.04
14.60
15.09
15.36
15.40
15.24
14.95
14.55
13.97
13.14
12.05
10.77
9.46
8.24
7.16
6.14
5.04
3.71
2.09
0.23
-1.70
-3.48
-4.96
-6.12
-7.10
-8.15
-9.56
-11.53
-14.09
-17.06
-20.04
-22.48
-23.78
-23.48
-21.40
-17.73
-12.99
-7.89
-3.07
1.07
4.43
7.15
9.44
11.42
13.08
14.38
15.30
15.94
16.43
16.84
17.17
17.35
17.31
17.06
16.73
16.46
16.33
16.32
16.27
15.97
15.24
14.02
12.38
10.51
8.66
7.03
5.73
4.68
3.70
2.55
1.09
-0.72
-2.69
-4.62
-6.29
-7.64
-8.77
-9.92
-11.36
-13.31
-15.82
-18.71
-21.58
-23.90
-25.09
-24.75
-22.73
-19.21
-14.65
-9.61
-4.67
-0.22
3.51
6.50
8.81
10.51
11.65
12.22
12.27
11.91
11.34
10.81
10.54
10.62
10.99
11.49
11.89
12.02
11.83
11.32
10.58
9.69
8.69
7.62
6.49
5.34
4.19
3.10
2.07
1.07
0.00
-1.24
-2.74
-4.55
-6.67
-9.06
-11.64
-14.33
-16.99
-19.41
-21.29
-22.31
-22.19
-20.81
-18.19
-14.55
-10.24
-5.66
-1.22
2.79
6.16
8.82
10.78
12.08
12.81
13.01
12.77
12.23
11.59
11.03
10.69
10.60
10.68
10.80
10.82
10.70
10.44
10.12
9.77
9.41
8.95
8.32
7.42
6.18
4.63
2.85
1.00
-0.79
-2.39
-3.82
-5.18
-6.68
-8.58
-11.07
-14.17
-17.65
-21.00
-23.55
-24.67
-24.01
-21.59
-17.79
-13.16
-8.26
-3.48
0.97
5.00
8.51
11.36
13.41
14.54
14.83
14.47
13.78
13.10
12.63
12.47
12.56
12.77
12.93
12.94
12.73
12.31
11.67
10.81
9.75
8.53
7.24
5.95
4.67
3.36
1.89
0.20
-1.68
-3.63
-5.47
-7.09
-8.52
-9.96
-11.65
-13.82
-16.49
-19.50
-22.56
-25.24
-27.15
-27.90
-27.23
-25.03
-21.38
-16.63
-11.30
-6.02
-1.32
2.43
5.14
6.92
7.97
8.49
8.67
8.63
8.52
8.45
8.53
8.81
9.27
9.85
10.42
10.88
11.12
11.08
10.75
10.16
9.39
8.52
7.62
6.70
5.79
4.87
3.91
2.90
1.81
0.57
-0.87
-2.54
-4.40
-6.33
-8.18
-9.84
-11.34
-12.88
-14.74
-17.21
-20.32
-23.82
-27.08
-29.32
-29.81
-28.14
-24.42
-19.24
-13.42
-7.78
-2.86
1.16
4.38
7.03
9.26
11.08
12.43
13.25
13.60
13.64
13.55
13.47
13.41
13.35
13.27
13.21
13.28
13.54
13.95
14.35
14.52
14.27
13.54
12.33
10.78
9.06
7.33
5.76
4.40
3.23
2.11
0.86
-0.68
-2.59
-4.77
-7.04
-9.18
-11.04
-12.63
-14.07
-15.61
-17.49
-19.85
-22.66
-25.61
-28.16
-29.71
-29.69
-27.85
-24.30
-19.45
-13.89
-8.24
-2.98
1.59
5.32
8.18
10.23
11.57
12.31
12.56
12.50
12.25
11.97
11.78
11.74
11.85
12.06
12.31
12.50
12.59
12.49
12.14
11.51
10.66
9.68
8.68
7.74
6.79
5.73
4.41
2.80
0.97
-0.92
-2.74
-4.44
-6.08
-7.74
-9.47
-11.25
-13.11
-15.10
-17.33
-19.89
-22.65
-25.23
-27.02
-27.37
-25.88
-22.55
-17.80
-12.32
-6.78
-1.68
2.71
6.33
9.18
11.30
12.66
13.32
13.37
12.98
12.40
11.88
11.62
11.70
12.09
12.59
13.00
13.11
12.86
12.28
11.48
10.56
9.58
8.55
7.49
6.41
5.30
4.07
2.56
0.57
-2.03
-5.13
-8.45
-11.52
-13.95
-15.50
-16.19
-16.24
-15.93
-15.54
-15.29
-15.33
-15.72
-16.40
-17.12
-17.49
-17.04
-15.41
-12.52
-8.64
-4.29
-0.09
3.50
6.33
8.47
10.11
11.40
12.35
12.88
12.97
12.75
12.44
12.32
12.54
13.06
13.69
14.16
14.33
14.17
13.81
13.42
13.08
12.79
12.44
11.89
11.08
10.06
8.98
7.99
7.11
6.26
5.25
3.93
2.28
0.42
-1.44
-3.18
-4.78
-6.35
-8.02
-9.82
-11.62
-13.17
-14.17
-14.40
-13.76
-12.27
-10.03
-7.23
-4.11
-0.94
1.98
4.38
6.08
7.03
7.30
7.07
6.56
6.01
5.61
5.43
5.50
5.78
6.20
6.70
7.16
7.50
7.59
7.34
6.68
5.60
4.19
2.63
1.10
-0.27
-1.44
-2.49
-3.56
-4.80
-6.33
-8.19
-10.31
-12.52
-14.57
-16.16
-17.03
-17.00
-16.07
-14.36
-12.14
-9.68
-7.25
-5.09
-3.33
-2.07
-1.29
-0.93
-0.85
-0.88
-0.85
-0.72
-0.50
-0.22
0.05
0.30
0.51
0.66
0.66
0.43
-0.08
-0.86
-1.82
-2.85
-3.89
-4.88
-5.85
-6.84
-7.92
-9.22
-10.79
-12.59
-14.41
-15.82
-16.28
-15.41
-13.08
-9.53
-5.22
-0.68
3.67
7.59
10.95
13.63
15.47
16.32
16.12
14.98
13.19
11.16
9.32
7.99
7.31
7.25
7.58
8.00
8.23
8.08
7.46
6.36
4.88
3.11
1.18
-0.82
-2.81
-4.80
-6.88
-9.22
-11.94
-15.11
-18.60
-22.07
-25.02
-26.88
-27.14
-25.57
-22.23
-17.57
-12.19
-6.74
-1.71
2.65
6.27
9.21
11.51
13.22
14.35
14.99
15.27
15.37
15.44
15.57
15.76
15.96
16.10
16.08
15.83
15.27
14.37
13.12
11.57
9.79
7.84
5.77
3.62
1.44
-0.75
-2.88
-5.01
-7.26
-9.89
-13.09
-16.89
-20.98
-24.72
-27.31
-28.01
-26.45
-22.73
-17.40
-11.29
-5.19
0.37
5.19
9.35
12.98
16.15
18.76
20.59
21.50
21.53
20.92
20.08
19.39
19.06
19.07
19.25
19.34
19.17
18.67
17.89
16.96
15.98
14.97
13.88
12.54
10.80
8.59
6.01
3.29
0.73
-1.46
-3.23
-4.73
-6.26
-8.10
-10.50
-13.56
-17.20
-21.14
-24.88
-27.75
-29.04
-28.23
-25.14
-20.08
-13.74
-7.00
-0.62
4.93
9.50
13.20
16.17
18.51
20.24
21.37
21.95
22.10
22.01
21.84
21.69
21.55
21.37
21.09
20.68
20.15
19.52
18.78
17.92
16.94
15.83
14.62
13.33
11.97
10.54
8.96
7.18
5.16
2.97
0.77
-1.28
-3.11
-4.77
-6.41
-8.24
-10.35
-12.79
-15.55
-18.58
-21.81
-25.02
-27.77
-29.46
-29.46
-27.37
-23.27
-17.70
-11.47
-5.40
0.02
4.60
8.41
11.58
14.14
16.01
17.09
17.38
17.10
16.64
16.37
16.50
16.98
17.60
18.08
18.30
18.31
18.26
18.27
18.29
18.10
17.47
16.26
14.56
12.63
10.76
9.14
7.79
6.55
5.22
3.65
1.81
-0.27
-2.45
-4.60
-6.60
-8.39
-9.92
-11.20
-12.35
-13.55
-15.09
-17.23
-20.05
-23.36
-26.59
-28.95
-29.69
-28.37
-25.01
-20.09
-14.33
-8.45
-2.99
1.79
5.76
8.93
11.32
12.94
13.88
14.24
14.19
13.91
13.59
13.37
13.36
13.59
14.01
14.48
14.85
14.97
14.76
14.25
13.53
12.74
11.93
11.05
10.02
8.73
7.16
5.42
3.70
2.20
1.05
0.20
-0.52
-1.34
-2.46
-3.95
-5.76
-7.67
-9.49
-11.03
-12.22
-13.10
-13.83
-14.63
-15.72
-17.28
-19.33
-21.73
-24.09
-25.87
-26.50
-25.54
-22.88
-18.80
-13.90
-8.88
-4.31
-0.44
2.73
5.37
7.59
9.37
10.57
11.03
10.81
10.14
9.39
8.90
8.84
9.14
9.60
9.99
10.20
10.26
10.25
10.25
10.25
10.17
9.90
9.40
8.65
7.69
6.59
5.40
4.20
3.05
2.00
1.04
0.11
-0.87
-1.95
-3.16
-4.43
-5.68
-6.88
-8.00
-9.08
-10.13
-11.16
-12.17
-13.21
-14.38
-15.82
-17.58
-19.60
-21.59
-23.10
-23.64
-22.84
-20.63
-17.28
-13.34
-9.40
-5.91
-2.99
-0.51
1.76
3.92
5.88
7.38
8.18
8.22
7.68
6.91
6.22
5.79
5.63
5.66
5.79
5.97
6.21
6.49
6.77
6.98
7.04
6.86
6.36
5.54
4.49
3.36
2.37
1.63
1.12
0.66
0.02
-0.96
-2.28
-3.78
-5.22
-6.42
-7.35
-8.06
-8.71
-9.41
-10.27
-11.36
-12.70
-14.31
-16.13
-18.08
-19.97
-21.54
-22.49
-22.49
-21.33
-18.96
-15.61
-11.71
-7.78
-4.26
-1.41
0.72
2.27
3.39
4.19
4.73
5.03
5.14
5.16
5.21
5.38
5.69
6.05
6.37
6.53
6.49
6.33
6.12
5.94
5.78
5.57
5.17
4.49
3.51
2.36
1.22
0.28
-0.38
-0.81
-1.17
-1.67
-2.45
-3.55
-4.89
-6.33
-7.73
-8.98
-10.06
-10.99
-11.87
-12.78
-13.84
-15.16
-16.80
-18.75
-20.84
-22.71
-23.90
-23.96
-22.61
-19.88
-16.13
-11.90
-7.75
-4.08
-1.06
1.34
3.21
4.62
5.57
6.05
6.10
5.86
5.52
5.25
5.18
5.35
5.76
6.36
7.08
7.82
8.46
8.86
8.97
8.78
8.33
7.65
6.77
5.75
4.66
3.65
2.85
2.34
2.00
1.62
0.96
-0.13
-1.59
-3.24
-4.85
-6.27
-7.47
-8.53
-9.54
-10.57
-11.67
-12.85
-14.20
-15.81
-17.80
-20.20
-22.87
-25.47
-27.45
-28.31
-27.67
-25.50
-22.11
-18.02
-13.77
-9.73
-6.05
-2.69
0.39
3.15
5.44
7.08
8.04
8.44
8.57
8.71
9.04
9.57
10.17
10.72
11.11
11.36
11.50
11.62
11.73
11.85
11.95
12.00
11.93
11.60
10.93
9.85
8.43
6.85
5.35
4.08
3.11
2.35
1.61
0.70
-0.51
-2.04
-3.77
-5.53
-7.10
-8.35
-9.28
-10.06
-10.93
-12.14
-13.82
-15.97
-18.48
-21.23
-24.00
-26.52
-28.40
-29.19
-28.49
-26.12
-22.24
-17.34
-12.10
-7.15
-2.88
0.62
3.47
5.85
7.88
9.56
10.81
11.58
11.91
11.96
11.94
12.05
12.35
12.80
13.27
13.66
13.93
14.10
14.23
14.35
14.46
14.56
14.63
14.62
14.48
14.14
13.49
12.48
11.14
9.55
7.87
6.25
4.77
3.46
2.25
1.04
-0.28
-1.79
-3.51
-5.35
-7.16
-8.81
-10.23
-11.46
-12.68
-14.13
-16.05
-18.56
-21.59
-24.76
-27.46
-29.00
-28.77
-26.52
-22.44
-17.13
-11.39
-5.95
-1.25
2.61
5.75
8.32
10.37
11.84
12.68
12.95
12.88
12.75
12.83
13.26
13.98
14.82
15.58
16.11
16.38
16.46
16.47
16.51
16.57
16.56
16.32
15.69
14.58
13.08
11.40
9.82
8.56
7.68
7.07
6.48
5.65
4.40
2.71
0.69
-1.44
-3.49
-5.33
-6.96
-8.44
-9.89
-11.46
-13.27
-15.45
-18.09
-21.15
-24.46
-27.59
-29.95
-30.90
-29.99
-27.09
-22.45
-16.66
-10.44
-4.46
0.79
5.06
8.32
10.66
12.25
13.30
14.00
14.49
14.90
15.30
15.77
16.34
17.01
17.71
18.34
18.77
18.96
18.92
18.70
18.39
18.03
17.58
17.01
16.25
15.28
14.15
12.93
11.68
10.44
9.22
8.01
6.75
5.37
3.78
1.97
-0.02
-2.03
-3.89
-5.46
-6.76
-7.92
-9.18
-10.76
-12.78
-15.27
-18.19
-21.43
-24.77
-27.84
-30.11
-30.97
-29.97
-26.95
-22.22
-16.41
-10.28
-4.49
0.58
4.83
8.33
11.19
13.49
15.20
16.30
16.81
16.86
16.72
16.68
17.00
17.78
18.92
20.09
20.96
21.29
21.03
20.35
19.53
18.80
18.26
17.84
17.36
16.69
15.76
14.65
13.50
12.41
11.41
10.39
9.20
7.71
5.89
3.85
1.76
-0.24
-2.08
-3.80
-5.47
-7.16
-8.86
-10.56
-12.24
-14.00
-15.99
-18.40
-21.28
-24.49
-27.64
-30.11
-31.27
-30.64
-28.06
-23.74
-18.25
-12.33
-6.64
-1.62
2.55
5.94
8.71
11.04
13.00
14.55
15.64
16.25
16.46
16.44
16.41
16.52
16.80
17.16
17.44
17.53
17.39
17.10
16.73
16.30
15.77
15.08
14.17
13.05
11.78
10.45
9.16
7.98
6.97
6.21
5.69
5.37
5.11
4.71
4.03
2.96
1.50
-0.23
-2.09
-3.93
-5.63
-7.15
-8.57
-10.00
-11.64
-13.67
-16.19
-19.14
-22.22
-24.91
-26.57
-26.58
-24.68
-21.01
-16.18
-10.97
-6.11
-1.98
1.37
4.15
6.55
8.67
10.44
11.75
12.58
12.99
13.12
13.13
13.13
13.15
13.16
13.11
12.99
12.82
12.67
12.61
12.59
12.48
12.08
11.25
10.03
8.58
7.21
6.10
5.32
4.70
4.04
3.15
1.98
0.59
-0.93
-2.50
-4.03
-5.50
-6.83
-8.01
-9.06
-10.15
-11.52
-13.42
-16.00
-19.18
-22.59
-25.60
-27.48
-27.62
-25.73
-21.99
-16.98
-11.46
-6.18
-1.63
2.02
4.83
6.94
8.47
9.48
9.96
10.01
9.82
9.61
9.65
10.03
10.71
11.51
12.21
12.66
12.82
12.80
12.68
12.54
12.31
11.87
11.13
10.05
8.70
7.23
5.75
4.31
2.89
1.43
-0.14
-1.81
-3.57
-5.37
-7.14
-8.85
-10.52
-12.17
-13.91
-15.86
-18.15
-20.82
-23.72
-26.46
-28.47
-29.16
-28.12
-25.30
-21.02
-15.86
-10.50
-5.50
-1.18
2.35
5.14
7.25
8.77
9.77
10.34
10.64
10.82
11.04
11.38
11.85
12.38
12.86
13.20
13.40
13.46
13.46
13.41
13.25
12.89
12.19
11.14
9.77
8.21
6.60
5.04
3.55
2.07
0.53
-1.10
-2.84
-4.65
-6.47
-8.27
-10.00
-11.68
-13.36
-15.18
-17.31
-19.88
-22.89
-26.04
-28.80
-30.49
-30.55
-28.71
-25.14
-20.38
-15.11
-9.92
-5.17
-1.00
2.66
5.85
8.57
10.78
12.41
13.48
14.15
14.61
15.07
15.63
16.24
16.75
16.99
16.91
16.57
16.16
15.87
15.79
15.85
15.86
15.59
14.91
13.83
12.47
11.02
9.61
8.28
6.99
5.64
4.15
2.45
0.52
-1.61
-3.90
-6.24
-8.50
-10.52
-12.21
-13.56
-14.72
-15.99
-17.69
-20.06
-23.12
-26.58
-29.90
-32.39
-33.44
-32.66
-29.97
-25.66
-20.27
-14.41
-8.66
-3.45
1.02
4.70
7.63
9.96
11.77
13.16
14.20
14.93
15.43
15.81
16.17
16.58
17.03
17.45
17.74
17.88
17.86
17.78
17.71
17.60
17.34
16.74
15.67
14.17
12.42
10.66
9.13
7.96
7.10
6.42
5.68
4.67
3.26
1.39
-0.86
-3.30
-5.71
-7.92
-9.87
-11.62
-13.32
-15.15
-17.21
-19.58
-22.23
-25.07
-27.88
-30.24
-31.61
-31.45
-29.44
-25.64
-20.52
-14.81
-9.26
-4.35
-0.21
3.26
6.29
8.99
11.31
13.11
14.25
14.78
14.86
14.80
14.84
15.17
15.79
16.57
17.34
17.90
18.13
18.02
17.65
17.11
16.51
15.91
15.30
14.63
13.83
12.86
11.66
10.25
8.67
7.00
5.36
3.78
2.27
0.70
-1.06
-3.08
-5.24
-7.30
-9.02
-10.30
-11.27
-12.27
-13.66
-15.70
-18.46
-21.75
-25.28
-28.62
-31.28
-32.78
-32.66
-30.62
-26.68
-21.22
-14.94
-8.65
-3.06
1.45
4.88
7.46
9.53
11.26
12.69
13.72
14.29
14.47
14.50
14.66
15.15
16.00
17.02
17.94
18.52
18.65
18.37
17.83
17.19
16.58
16.03
15.48
14.79
13.81
12.44
10.68
8.71
6.77
5.06
3.69
2.59
1.55
0.35
-1.14
-2.90
-4.75
-6.54
-8.15
-9.66
-11.23
-13.07
-15.33
-18.08
-21.23
-24.59
-27.83
-30.52
-32.14
-32.23
-30.51
-27.01
-22.07
-16.29
-10.32
-4.73
0.13
4.10
7.18
9.45
10.99
11.92
12.38
12.50
12.44
12.35
12.35
12.57
13.06
13.78
14.61
15.37
15.88
16.02
15.78
15.23
14.47
13.58
12.59
11.49
10.30
9.08
7.91
6.87
5.93
5.02
3.95
2.56
0.77
-1.37
-3.71
-6.05
-8.26
-10.25
-12.12
-14.03
-16.18
-18.75
-21.76
-25.00
-27.97
-30.03
-30.51
-29.01
-25.53
-20.53
-14.73
-8.86
-3.48
1.15
4.99
8.11
10.56
12.32
13.40
13.85
13.82
13.52
13.19
13.02
13.10
13.42
13.88
14.33
14.66
14.82
14.82
14.70
14.47
14.04
13.32
12.22
10.76
9.11
7.48
6.04
4.82
3.73
2.58
1.16
-0.62
-2.75
-5.12
-7.56
-9.87
-11.95
-13.74
-15.35
-16.99
-18.98
-21.56
-24.73
-28.19
-31.33
-33.37
-33.68
-31.91
-28.17
-22.95
-16.91
-10.73
-4.94
0.16
4.43
7.82
10.36
12.09
13.12
13.59
13.72
13.74
13.85
14.14
14.56
15.01
15.35
15.51
15.56
15.56
15.60
15.62
15.48
14.99
14.06
12.74
11.22
9.76
8.51
7.46
6.45
5.26
3.75
1.90
-0.15
-2.22
-4.18
-5.99
-7.73
-9.51
-11.43
-13.58
-16.00
-18.76
-21.86
-25.15
-28.23
-30.49
-31.27
-30.06
-26.81
-21.90
-16.04
-10.06
-4.57
0.12
4.00
7.24
9.96
12.19
13.87
14.94
15.45
15.59
15.60
15.71
15.98
16.35
16.64
16.72
16.55
16.25
15.96
15.76
15.59
15.23
14.52
13.38
11.90
10.30
8.80
7.54
6.49
5.49
4.32
2.81
0.88
-1.41
-3.87
-6.26
-8.39
-10.22
-11.89
-13.68
-15.90
-18.73
-22.10
-25.65
-28.77
-30.79
-31.14
-29.52
-25.99
-20.99
-15.18
-9.31
-3.94
0.60
4.26
7.16
9.41
11.08
12.15
12.62
12.60
12.32
12.09
12.13
12.52
13.15
13.78
14.16
14.11
13.63
12.87
12.02
11.26
10.63
10.06
9.37
8.32
6.77
4.73
2.34
-0.10
-2.36
-4.26
-5.81
-7.15
-8.50
-10.11
-12.18
-14.80
-17.87
-21.07
-23.87
-25.62
-25.76
-23.97
-20.37
-15.44
-9.89
-4.42
0.46
4.52
7.75
10.23
12.04
13.21
13.73
13.64
13.07
12.26
11.48
10.97
10.86
11.09
11.50
11.85
11.98
11.80
11.33
10.60
9.63
8.31
6.58
4.40
1.94
-0.51
-2.61
-4.11
-5.01
-5.59
-6.29
-7.54
-9.63
-12.57
-16.19
-20.15
-24.00
-27.22
-29.25
-29.59
-27.94
-24.38
-19.34
-13.54
-7.73
-2.45
2.05
5.79
8.90
11.44
13.33
14.47
14.83
14.59
14.11
13.76
13.77
14.09
14.45
14.53
14.18
13.48
12.65
11.91
11.32
10.70
9.75
8.29
6.32
4.05
1.78
-0.29
-2.07
-3.65
-5.17
-6.81
-8.74
-11.11
-14.00
-17.34
-20.81
-23.87
-25.83
-26.11
-24.40
-20.82
-15.84
-10.17
-4.53
0.56
4.81
8.14
10.62
12.35
13.38
13.78
13.61
13.05
12.35
11.78
11.52
11.62
11.95
12.28
12.40
12.14
11.45
10.35
8.89
7.17
5.27
3.33
1.47
-0.21
-1.74
-3.22
-4.85
-6.86
-9.41
-12.53
-16.05
-19.60
-22.56
-24.25
-24.11
-21.87
-17.73
-12.29
-6.35
-0.67
4.29
8.31
11.42
13.70
15.21
16.04
16.24
15.97
15.40
14.70
13.98
13.30
12.69
12.19
11.83
11.61
11.48
11.35
11.06
10.47
9.46
7.99
6.12
3.98
1.78
-0.34
-2.29
-4.16
-6.14
-8.45
-11.23
-14.42
-17.73
-20.71
-22.84
-23.64
-22.83
-20.38
-16.49
-11.58
-6.20
-0.93
3.76
7.53
10.26
11.99
12.85
12.99
12.54
11.64
10.47
9.31
8.45
8.12
8.36
8.97
9.61
9.91
9.68
8.89
7.70
6.30
4.85
3.41
1.94
0.42
-1.21
-2.91
-4.69
-6.59
-8.67
-11.07
-13.83
-16.87
-19.88
-22.37
-23.74
-23.50
-21.42
-17.65
-12.66
-7.13
-1.72
3.02
6.74
9.37
10.99
11.79
12.01
11.86
11.48
10.95
10.34
9.75
9.29
9.04
9.01
9.07
9.06
8.78
8.12
7.09
5.76
4.24
2.64
1.05
-0.48
-1.93
-3.32
-4.71
-6.25
-8.09
-10.37
-13.18
-16.50
-20.10
-23.55
-26.21
-27.35
-26.43
-23.28
-18.25
-12.16
-5.95
-0.40
4.10
7.56
10.19
12.20
13.62
14.35
14.32
13.67
12.70
11.81
11.30
11.24
11.54
11.97
12.31
12.42
12.23
11.70
10.81
9.57
8.04
6.27
4.36
2.39
0.44
-1.44
-3.23
-5.02
-6.97
-9.33
-12.27
-15.70
-19.14
-21.85
-22.98
-21.98
-18.79
-13.93
-8.25
-2.62
2.35
6.43
9.61
11.99
13.61
14.43
14.48
13.88
12.88
11.81
10.92
10.34
10.02
9.82
9.56
9.12
8.44
7.54
6.45
5.20
3.82
2.33
0.72
-0.97
-2.72
-4.49
-6.29
-8.15
-10.20
-12.54
-15.17
-17.86
-20.13
-21.31
-20.86
-18.55
-14.61
-9.69
-4.54
0.15
4.06
7.11
9.38
10.91
11.66
11.64
10.99
10.04
9.18
8.73
8.75
9.07
9.41
9.53
9.27
8.60
7.59
6.32
4.89
3.44
2.06
0.85
-0.25
-1.37
-2.71
-4.40
-6.50
-8.95
-11.66
-14.46
-17.10
-19.18
-20.19
-19.68
-17.45
-13.66
-8.87
-3.81
0.85
4.76
7.85
10.28
12.22
13.69
14.58
14.79
14.34
13.42
12.34
11.38
10.69
10.28
10.02
9.76
9.40
8.89
8.22
7.39
6.42
5.32
4.12
2.84
1.47
-0.07
-1.87
-4.00
-6.50
-9.34
-12.47
-15.79
-19.13
-22.18
-24.50
-25.57
-24.96
-22.47
-18.32
-13.08
-7.50
-2.32
2.02
5.36
7.80
9.50
10.55
10.95
10.68
9.81
8.60
7.41
6.59
6.31
6.48
6.76
6.77
6.23
5.11
3.61
2.04
0.68
-0.38
-1.26
-2.18
-3.38
-4.97
-6.94
-9.20
-11.68
-14.31
-16.98
-19.41
-21.13
-21.59
-20.34
-17.31
-12.87
-7.73
-2.68
1.71
5.20
7.87
9.85
11.21
11.90
11.80
10.92
9.51
7.99
6.79
6.18
6.11
6.29
6.35
6.05
5.33
4.34
3.28
2.27
1.25
0.09
-1.37
-3.13
-5.13
-7.23
-9.44
-11.88
-14.71
-17.92
-21.15
-23.75
-24.93
-24.16
-21.32
-16.83
-11.47
-6.02
-1.08
3.04
6.31
8.80
10.55
11.56
11.83
11.42
10.52
9.43
8.47
7.86
7.62
7.61
7.57
7.27
6.60
5.59
4.35
3.01
1.59
0.09
-1.54
-3.33
-5.23
-7.20
-9.25
-11.46
-13.91
-16.55
-19.18
-21.33
-22.41
-21.94
-19.69
-15.88
-11.03
-5.86
-0.98
3.24
6.68
9.37
11.34
12.51
12.77
12.14
10.86
9.34
8.00
7.14
6.74
6.57
6.33
5.82
4.97
3.88
2.64
1.33
-0.06
-1.55
-3.12
-4.74
-6.39
-8.09
-9.96
-12.17
-14.83
-17.90
-21.11
-23.92
-25.64
-25.64
-23.59
-19.60
-14.24
-8.27
-2.50
2.54
6.59
9.63
11.74
13.01
13.51
13.33
12.63
11.65
10.63
9.78
9.21
8.95
8.90
8.90
8.77
8.38
7.65
6.62
5.37
3.99
2.56
1.11
-0.38
-1.93
-3.57
-5.36
-7.42
-9.88
-12.84
-16.18
-19.54
-22.28
-23.65
-23.05
-20.30
-15.68
-9.91
-3.84
1.77
6.51
10.23
13.04
15.01
16.22
16.69
16.49
15.81
14.89
14.02
13.38
13.05
13.00
13.10
13.22
13.21
12.96
12.38
11.42
10.07
8.36
6.36
4.21
2.02
-0.08
-1.99
-3.67
-5.19
-6.68
-8.38
-10.53
-13.27
-16.50
-19.90
-22.85
-24.68
-24.83
-23.00
-19.35
-14.35
-8.70
-3.08
1.97
6.15
9.36
11.63
13.05
13.70
13.73
13.30
12.63
11.92
11.31
10.89
10.65
10.55
10.56
10.60
10.57
10.31
9.66
8.54
6.96
5.04
2.97
0.92
-1.00
-2.79
-4.48
-6.12
-7.77
-9.58
-11.70
-14.27
-17.25
-20.32
-22.91
-24.31
-23.94
-21.54
-17.33
-11.87
-5.93
-0.21
4.76
8.74
11.65
13.55
14.56
14.84
14.61
14.12
13.61
13.24
13.06
12.97
12.82
12.50
11.96
11.32
10.67
10.09
9.48
8.65
7.36
5.53
3.21
0.66
-1.81
-3.98
-5.79
-7.38
-9.03
-11.07
-13.74
-17.07
-20.80
-24.39
-27.10
-28.22
-27.30
-24.27
-19.54
-13.79
-7.75
-1.99
3.16
7.60
11.29
14.19
16.24
17.40
17.71
17.35
16.63
15.84
15.22
14.93
14.94
15.14
15.31
15.27
14.90
14.24
13.40
12.51
11.58
10.48
9.02
7.08
4.70
2.11
-0.37
-2.47
-4.14
-5.52
-6.90
-8.59
-10.84
-13.75
-17.30
-21.25
-25.10
-28.21
-29.82
-29.39
-26.73
-22.14
-16.31
-10.07
-4.14
1.13
5.63
9.47
12.72
15.36
17.28
18.41
18.81
18.69
18.33
17.98
17.79
17.73
17.64
17.36
16.79
15.94
14.91
13.87
12.97
12.26
11.64
10.89
9.73
7.96
5.55
2.74
-0.06
-2.44
-4.18
-5.37
-6.31
-7.43
-9.05
-11.35
-14.35
-17.96
-21.89
-25.66
-28.53
-29.74
-28.70
-25.30
-19.98
-13.60
-7.07
-1.12
3.91
8.00
11.25
13.76
15.54
16.59
16.98
16.86
16.46
16.03
15.77
15.79
16.11
16.65
17.20
17.54
17.49
16.98
16.10
15.01
13.87
12.77
11.67
10.46
8.99
7.17
5.01
2.61
0.18
-2.06
-3.94
-5.41
-6.58
-7.72
-9.14
-11.09
-13.67
-16.77
-20.15
-23.44
-26.22
-28.00
-28.34
-26.92
-23.63
-18.74
-12.83
-6.65
-0.93
3.85
7.53
10.18
11.93
12.96
13.36
13.22
12.74
12.13
11.67
11.53
11.73
12.13
12.50
12.62
12.38
11.84
11.11
10.35
9.63
8.93
8.10
6.99
5.46
3.52
1.36
-0.78
-2.66
-4.18
-5.42
-6.60
-7.96
-9.74
-12.06
-14.91
-18.16
-21.50
-24.41
-26.28
-26.51
-24.79
-21.20
-16.25
-10.69
-5.27
-0.48
3.54
6.83
9.50
11.53
12.80
13.18
12.72
11.70
10.59
9.80
9.55
9.76
10.11
10.26
10.00
9.42
8.72
8.15
7.78
7.49
6.99
6.04
4.53
2.57
0.47
-1.48
-3.08
-4.35
-5.47
-6.70
-8.27
-10.27
-12.71
-15.49
-18.45
-21.36
-23.85
-25.45
-25.70
-24.30
-21.26
-16.88
-11.69
-6.25
-1.01
3.72
7.77
11.01
13.34
14.69
15.10
14.74
13.89
12.88
11.99
11.43
11.31
11.53
11.87
12.05
11.81
11.07
9.97
8.73
7.54
6.44
5.28
3.83
1.94
-0.34
-2.81
-5.17
-7.25
-9.02
-10.59
-12.14
-13.85
-15.84
-18.21
-20.94
-23.87
-26.62
-28.62
-29.29
-28.20
-25.33
-21.01
-15.85
-10.54
-5.57
-1.20
2.50
5.58
8.06
9.93
11.17
11.82
11.99
11.84
11.50
11.07
10.59
10.07
9.58
9.22
9.06
9.07
9.07
8.81
8.02
6.63
4.73
2.57
0.44
-1.48
-3.16
-4.68
-6.23
-7.97
-10.03
-12.50
-15.39
-18.58
-21.77
-24.44
-25.90
-25.57
-23.11
-18.73
-13.04
-6.97
-1.40
3.12
6.48
8.94
10.86
12.45
13.73
14.58
14.84
14.56
13.91
13.16
12.51
12.03
11.66
11.28
10.73
9.97
9.00
7.88
6.64
5.31
3.86
2.30
0.68
-0.94
-2.52
-4.10
-5.79
-7.76
-10.20
-13.20
-16.67
-20.33
-23.63
-25.90
-26.47
-24.93
-21.27
-15.97
-9.81
-3.64
1.87
6.42
10.03
12.83
14.91
16.23
16.74
16.43
15.53
14.38
13.36
12.73
12.50
12.49
12.44
12.12
11.45
10.43
9.17
7.77
6.33
4.91
3.52
2.15
0.70
-0.92
-2.87
-5.24
-8.06
-11.27
-14.66
-17.86
-20.35
-21.55
-21.00
-18.52
-14.35
-9.10
-3.59
1.47
5.65
8.86
11.29
13.18
14.63
15.61
16.03
15.87
15.27
14.47
13.74
13.26
13.03
12.90
12.70
12.24
11.43
10.23
8.68
6.83
4.76
2.57
0.32
-1.92
-4.12
-6.32
-8.56
-10.90
-13.26
-15.48
-17.24
-18.18
-17.97
-16.43
-13.60
-9.71
-5.19
-0.51
3.86
7.56
10.34
12.11
12.91
12.90
12.26
11.23
10.04
8.90
8.00
7.42
7.13
6.95
6.61
5.92
4.84
3.49
2.12
0.91
-0.06
-0.93
-1.94
-3.37
-5.36
-7.93
-10.90
-13.99
-16.79
-18.84
-19.70
-19.05
-16.80
-13.16
-8.60
-3.72
0.93
4.99
8.35
11.05
13.11
14.46
14.89
14.32
12.83
10.82
8.83
7.36
6.59
6.38
6.37
6.21
5.73
4.96
4.02
2.99
1.84
0.47
-1.23
-3.27
-5.59
-8.14
-10.89
-13.83
-16.89
-19.82
-22.19
-23.42
-23.02
-20.79
-16.91
-11.96
-6.68
-1.74
2.49
5.99
8.88
11.29
13.19
14.41
14.80
14.36
13.34
12.13
11.09
10.36
9.87
9.36
8.61
7.53
6.21
4.81
3.48
2.23
1.00
-0.33
-1.87
-3.66
-5.74
-8.15
-10.97
-14.16
-17.52
-20.59
-22.72
-23.29
-21.94
-18.78
-14.29
-9.19
-4.11
0.59
4.83
8.70
12.23
15.26
17.51
18.69
18.70
17.69
16.06
14.29
12.76
11.66
10.96
10.48
9.98
9.26
8.21
6.84
5.25
3.57
1.90
0.24
-1.48
-3.40
-5.64
-8.28
-11.32
-14.66
-18.11
-21.33
-23.86
-25.17
-24.85
-22.70
-18.88
-13.85
-8.26
-2.75
2.25
6.57
10.24
13.37
16.00
18.07
19.48
20.11
19.97
19.18
17.96
16.55
15.15
13.89
12.88
12.14
11.65
11.33
11.02
10.49
9.52
7.96
5.83
3.31
0.62
-1.96
-4.29
-6.32
-8.14
-9.98
-12.10
-14.73
-17.93
-21.41
-24.58
-26.64
-26.87
-24.90
-20.87
-15.40
-9.33
-3.43
1.79
6.16
9.72
12.60
14.91
16.68
17.92
18.64
18.88
18.75
18.39
17.93
17.50
17.14
16.82
16.46
15.97
15.29
14.43
13.46
12.45
11.45
10.45
9.37
8.09
6.47
4.44
2.06
-0.52
-3.08
-5.37
-7.29
-8.85
-10.22
-11.59
-13.16
-15.12
-17.57
-20.57
-23.97
-27.38
-30.17
-31.58
-30.98
-28.12
-23.32
-17.27
-10.89
-4.92
0.20
4.41
7.84
10.61
12.76
14.27
15.15
15.52
15.57
15.46
15.31
15.14
14.95
14.76
14.61
14.56
14.58
14.56
14.34
13.76
12.79
11.50
10.05
8.61
7.25
6.01
4.85
3.71
2.54
1.24
-0.27
-2.01
-3.98
-6.07
-8.12
-9.97
-11.51
-12.81
-14.02
-15.45
-17.42
-20.12
-23.47
-27.04
-30.13
-31.90
-31.69
-29.30
-24.98
-19.38
-13.30
-7.40
-2.08
2.49
6.33
9.47
11.94
13.74
14.90
15.46
15.53
15.26
14.80
14.35
14.03
13.92
14.00
14.15
14.23
14.07
13.61
12.85
11.89
10.85
9.83
8.88
7.96
7.00
5.95
4.79
3.60
2.45
1.38
0.30
-0.93
-2.46
-4.31
-6.36
-8.35
-10.04
-11.28
-12.14
-12.86
-13.76
-15.11
-17.08
-19.68
-22.79
-26.11
-29.14
-31.30
-31.92
-30.55
-27.10
-21.91
-15.72
-9.38
-3.61
1.22
5.06
8.04
10.34
11.98
12.94
13.23
12.98
12.52
12.19
12.24
12.74
13.53
14.31
14.82
14.88
14.50
13.78
12.91
12.07
11.38
10.86
10.44
10.00
9.41
8.56
7.44
6.11
4.66
3.20
1.83
0.57
-0.58
-1.71
-2.90
-4.21
-5.66
-7.23
-8.87
-10.55
-12.26
-14.01
-15.80
-17.65
-19.61
-21.78
-24.24
-26.92
-29.45
-31.20
-31.45
-29.69
-25.92
-20.61
-14.58
-8.62
-3.26
1.31
5.08
8.06
10.22
11.48
11.90
11.74
11.36
11.14
11.23
11.58
12.02
12.34
12.46
12.42
12.31
12.23
12.19
12.17
12.09
11.91
11.57
11.01
10.16
8.99
7.53
5.92
4.33
2.94
1.85
1.00
0.27
-0.54
-1.55
-2.87
-4.54
-6.57
-8.89
-11.34
-13.66
-15.57
-16.95
-17.89
-18.75
-19.99
-21.93
-24.62
-27.72
-30.62
-32.60
-33.06
-31.66
-28.41
-23.65
-17.92
-11.88
-6.15
-1.18
2.82
5.83
7.99
9.47
10.41
10.95
11.21
11.33
11.42
11.57
11.77
11.94
12.00
11.91
11.71
11.52
11.42
11.46
11.56
11.57
11.34
10.78
9.86
8.62
7.14
5.57
4.06
2.79
1.82
1.10
0.44
-0.43
-1.75
-3.61
-5.85
-8.19
-10.32
-12.06
-13.39
-14.50
-15.64
-17.12
-19.15
-21.80
-24.94
-28.12
-30.71
-32.00
-31.41
-28.76
-24.29
-18.62
-12.51
-6.63
-1.38
3.08
6.71
9.54
11.53
12.70
13.15
13.09
12.80
12.51
12.33
12.29
12.35
12.45
12.58
12.73
12.87
12.95
12.93
12.77
12.46
12.00
11.34
10.40
9.17
7.69
6.10
4.59
3.23
1.97
0.68
-0.74
-2.33
-4.02
-5.68
-7.25
-8.76
-10.33
-12.09
-14.19
-16.69
-19.59
-22.73
-25.79
-28.21
-29.36
-28.72
-26.09
-21.71
-16.22
-10.45
-5.08
-0.51
3.20
6.17
8.53
10.30
11.40
11.79
11.58
11.02
10.49
10.29
10.56
11.25
12.12
12.89
13.34
13.35
12.99
12.39
11.71
11.03
10.31
9.39
8.11
6.35
4.14
1.71
-0.67
-2.72
-4.36
-5.66
-6.86
-8.18
-9.80
-11.81
-14.20
-16.93
-19.86
-22.71
-25.01
-26.15
-25.59
-23.10
-18.90
-13.58
-7.93
-2.64
1.86
5.45
8.18
10.14
11.39
11.97
11.95
11.52
10.95
10.56
10.58
11.07
11.93
12.89
13.61
13.87
13.59
12.87
11.96
11.07
10.34
9.72
9.03
8.03
6.53
4.45
1.91
-0.79
-3.31
-5.35
-6.84
-7.93
-9.02
-10.55
-12.89
-16.12
-19.98
-23.89
-27.08
-28.84
-28.68
-26.47
-22.47
-17.22
-11.38
-5.60
-0.37
4.03
7.53
10.17
12.10
13.44
14.31
14.76
14.90
14.83
14.75
14.84
15.21
15.81
16.47
16.92
16.98
16.58
15.84
14.96
14.15
13.46
12.83
12.03
10.88
9.28
7.29
5.10
2.90
0.83
-1.12
-3.06
-5.10
-7.31
-9.71
-12.32
-15.18
-18.32
-21.63
-24.80
-27.26
-28.36
-27.59
-24.78
-20.23
-14.57
-8.58
-2.91
2.05
6.19
9.59
12.33
14.48
16.06
17.08
17.66
17.95
18.11
18.25
18.41
18.58
18.76
18.92
19.06
19.12
18.98
18.53
17.73
16.61
15.33
14.03
12.83
11.71
10.64
9.50
8.22
6.73
5.01
3.03
0.84
-1.45
-3.72
-5.87
-7.89
-9.89
-12.03
-14.50
-17.42
-20.71
-24.12
-27.16
-29.24
-29.74
-28.28
-24.77
-19.53
-13.23
-6.67
-0.63
4.39
8.26
11.14
13.30
14.99
16.32
17.28
17.83
18.02
17.99
17.93
17.99
18.20
18.50
18.79
19.05
19.28
19.50
19.64
19.52
18.96
17.86
16.30
14.48
12.66
11.04
9.66
8.41
7.13
5.65
3.85
1.69
-0.77
-3.38
-5.94
-8.26
-10.26
-12.03
-13.82
-15.97
-18.73
-22.11
-25.73
-28.93
-30.93
-31.15
-29.36
-25.76
-20.85
-15.29
-9.67
-4.36
0.45
4.71
8.40
11.45
13.74
15.23
15.98
16.21
16.24
16.37
16.79
17.47
18.25
18.92
19.32
19.44
19.36
19.20
19.04
18.81
18.40
17.66
16.51
14.98
13.21
11.47
9.97
8.82
7.92
7.00
5.75
3.96
1.67
-0.88
-3.31
-5.36
-6.99
-8.39
-9.90
-11.82
-14.34
-17.44
-20.96
-24.58
-27.85
-30.22
-31.14
-30.22
-27.37
-22.88
-17.37
-11.56
-6.10
-1.37
2.53
5.68
8.22
10.25
11.78
12.81
13.36
13.56
13.59
13.65
13.89
14.32
14.86
15.35
15.63
15.59
15.23
14.62
13.91
13.20
12.55
11.92
11.18
10.22
8.97
7.43
5.64
3.67
1.57
-0.57
-2.71
-4.74
-6.59
-8.20
-9.64
-11.06
-12.68
-14.75
-17.35
-20.36
-23.39
-25.84
-27.06
-26.53
-24.06
-19.86
-14.52
-8.78
-3.35
1.33
5.07
7.95
10.10
11.67
12.71
13.24
13.30
13.03
12.64
12.34
12.29
12.52
12.92
13.33
13.58
13.57
13.27
12.75
12.10
11.38
10.60
9.71
8.61
7.24
5.61
3.82
1.95
0.09
-1.75
-3.55
-5.34
-7.12
-8.88
-10.66
-12.57
-14.72
-17.25
-20.16
-23.26
-26.18
-28.41
-29.40
-28.77
-26.38
-22.43
-17.41
-11.96
-6.67
-1.95
2.04
5.32
8.03
10.24
11.98
13.21
13.89
14.07
13.87
13.50
13.17
13.01
13.07
13.34
13.77
14.24
14.65
14.89
14.84
14.41
13.54
12.25
10.63
8.83
7.05
5.41
3.99
2.72
1.42
-0.11
-1.99
-4.16
-6.40
-8.42
-9.99
-11.11
-12.04
-13.15
-14.80
-17.17
-20.17
-23.51
-26.78
-29.48
-31.12
-31.23
-29.50
-25.90
-20.79
-14.84
-8.91
-3.68
0.51
3.71
6.24
8.41
10.37
12.05
13.30
14.08
14.47
14.69
14.93
15.24
15.53
15.66
15.54
15.19
14.77
14.41
14.20
14.08
13.91
13.51
12.71
11.47
9.86
8.06
6.31
4.82
3.66
2.74
1.83
0.68
-0.85
-2.75
-4.80
-6.79
-8.53
-9.99
-11.26
-12.43
-13.61
-14.91
-16.46
-18.45
-21.01
-24.05
-27.15
-29.61
-30.62
-29.60
-26.49
-21.72
-16.13
-10.54
-5.55
-1.37
2.10
5.08
7.76
10.18
12.22
13.77
14.75
15.22
15.36
15.33
15.29
15.24
15.13
14.86
14.43
13.97
13.64
13.61
13.84
14.15
14.20
13.69
12.52
10.76
8.67
6.62
4.90
3.66
2.89
2.36
1.79
0.92
-0.41
-2.15
-4.14
-6.18
-8.15
-10.00
-11.80
-13.63
-15.59
-17.74
-20.13
-22.71
-25.30
-27.52
-28.86
-28.78
-26.98
-23.47
-18.67
-13.18
-7.67
-2.60
1.78
5.40
8.26
10.38
11.74
12.38
12.42
12.08
11.59
11.18
10.97
10.99
11.20
11.50
11.77
11.89
11.77
11.34
10.62
9.71
8.70
7.71
6.72
5.67
4.44
2.93
1.17
-0.76
-2.69
-4.50
-6.11
-7.55
-8.91
-10.30
-11.83
-13.61
-15.74
-18.29
-21.19
-24.23
-26.96
-28.82
-29.26
-27.96
-24.97
-20.68
-15.72
-10.67
-5.95
-1.72
2.00
5.25
8.04
10.28
11.91
12.90
13.38
13.50
13.44
13.33
13.24
13.18
13.20
13.33
13.57
13.85
14.02
13.91
13.39
12.50
11.37
10.17
9.03
7.91
6.69
5.22
3.42
1.36
-0.79
-2.81
-4.56
-5.98
-7.15
-8.18
-9.23
-10.52
-12.24
-14.63
-17.75
-21.50
-25.40
-28.77
-30.77
-30.75
-28.45
-24.12
-18.42
-12.19
-6.24
-1.10
3.03
6.18
8.55
10.36
11.77
12.91
13.84
14.58
15.17
15.63
16.01
16.29
16.43
16.36
16.08
15.64
15.19
14.83
14.59
14.37
13.97
13.22
12.08
10.61
9.00
7.45
6.02
4.69
3.33
1.84
0.16
-1.71
-3.65
-5.57
-7.35
-8.92
-10.32
-11.66
-13.15
-14.99
-17.39
-20.42
-23.96
-27.61
-30.74
-32.59
-32.52
-30.21
-25.86
-20.09
-13.74
-7.61
-2.21
2.23
5.76
8.50
10.56
12.01
12.95
13.53
13.95
14.41
15.04
15.79
16.54
17.10
17.32
17.20
16.86
16.49
16.24
16.18
16.24
16.25
16.03
15.48
14.55
13.29
11.84
10.31
8.79
7.34
5.92
4.48
2.96
1.34
-0.33
-1.97
-3.50
-4.90
-6.23
-7.58
-9.07
-10.82
-12.97
-15.63
-18.88
-22.63
-26.56
-30.03
-32.25
-32.50
-30.40
-26.11
-20.30
-13.90
-7.80
-2.57
1.57
4.73
7.12
8.91
10.20
11.03
11.44
11.57
11.53
11.45
11.41
11.44
11.57
11.80
12.12
12.47
12.76
12.87
12.73
12.31
11.64
10.79
9.82
8.75
7.58
6.29
4.86
3.29
1.61
-0.15
-1.93
-3.68
-5.36
-6.92
-8.36
-9.69
-11.01
-12.50
-14.41
-16.96
-20.16
-23.68
-26.85
-28.76
-28.61
-26.04
-21.31
-15.25
-8.91
-3.22
1.34
4.75
7.24
9.14
10.63
11.73
12.41
12.68
12.64
12.49
12.44
12.61
12.98
13.43
13.73
13.73
13.34
12.65
11.85
11.07
10.38
9.72
8.94
7.92
6.63
5.14
3.56
1.95
0.33
-1.37
-3.16
-5.08
-7.06
-9.05
-11.00
-12.93
-14.92
-17.14
-19.71
-22.58
-25.49
-27.89
-29.13
-28.63
-26.16
-21.91
-16.48
-10.65
-5.13
-0.36
3.52
6.62
9.12
11.14
12.71
13.77
14.28
14.28
13.96
13.55
13.25
13.19
13.34
13.54
13.60
13.37
12.82
12.02
11.14
10.34
9.71
9.22
8.71
8.01
7.03
5.77
4.30
2.69
0.96
-0.98
-3.19
-5.60
-8.07
-10.35
-12.28
-13.95
-15.62
-17.61
-20.10
-22.94
-25.58
-27.29
-27.36
-25.46
-21.72
-16.67
-11.09
-5.71
-0.99
2.91
6.08
8.70
10.88
12.62
13.86
14.56
14.75
14.63
14.38
14.20
14.10
14.00
13.75
13.24
12.52
11.76
11.17
10.84
10.71
10.57
10.15
9.25
7.84
6.01
3.98
1.95
0.12
-1.41
-2.62
-3.63
-4.65
-5.93
-7.70
-10.13
-13.17
-16.62
-20.07
-22.95
-24.67
-24.73
-22.89
-19.34
-14.61
-9.44
-4.53
-0.29
3.20
6.04
8.38
10.25
11.52
12.07
11.92
11.29
10.52
9.91
9.57
9.42
9.31
9.11
8.83
8.58
8.48
8.52
8.53
8.27
7.49
6.14
4.34
2.38
0.57
-0.92
-2.05
-2.98
-3.96
-5.26
-7.06
-9.44
-12.38
-15.64
-18.82
-21.33
-22.56
-22.06
-19.71
-15.80
-10.96
-5.91
-1.22
2.84
6.23
9.05
11.36
13.09
14.10
14.32
13.80
12.77
11.54
10.40
9.56
9.08
8.90
8.93
9.03
9.10
9.00
8.60
7.82
6.63
5.11
3.45
1.82
0.36
-0.92
-2.11
-3.39
-4.97
-7.00
-9.60
-12.67
-15.92
-18.84
-20.80
-21.24
-19.92
-16.98
-12.94
-8.47
-4.12
-0.20
3.23
6.29
9.04
11.39
13.14
14.06
14.02
13.07
11.51
9.74
8.18
7.16
6.77
6.85
7.05
7.00
6.43
5.34
3.93
2.51
1.31
0.38
-0.45
-1.41
-2.73
-4.47
-6.54
-8.81
-11.14
-13.43
-15.55
-17.23
-18.12
-17.79
-16.03
-12.87
-8.71
-4.10
0.36
4.26
7.38
9.68
11.19
11.98
12.13
11.74
10.98
10.02
9.03
8.16
7.49
7.06
6.79
6.55
6.14
5.41
4.35
3.05
1.70
0.48
-0.58
-1.61
-2.84
-4.48
-6.66
-9.34
-12.37
-15.46
-18.19
-20.09
-20.70
-19.76
-17.27
-13.53
-9.08
-4.51
-0.27
3.41
6.47
8.98
11.00
12.53
13.45
13.67
13.12
11.92
10.31
8.67
7.33
6.44
5.92
5.53
5.01
4.22
3.19
2.03
0.85
-0.31
-1.54
-2.96
-4.68
-6.75
-9.17
-11.91
-14.81
-17.58
-19.80
-20.93
-20.57
-18.54
-15.04
-10.56
-5.69
-0.99
3.19
6.72
9.60
11.85
13.42
14.20
14.11
13.21
11.76
10.19
8.88
8.08
7.81
7.85
7.91
7.75
7.23
6.36
5.21
3.86
2.39
0.88
-0.64
-2.17
-3.78
-5.61
-7.81
-10.49
-13.63
-17.00
-20.19
-22.64
-23.73
-23.00
-20.31
-15.91
-10.44
-4.69
0.64
5.14
8.74
11.58
13.80
15.43
16.38
16.56
16.04
15.06
13.96
13.04
12.47
12.20
12.05
11.82
11.36
10.60
9.50
8.12
6.51
4.75
2.93
1.10
-0.70
-2.48
-4.27
-6.14
-8.20
-10.59
-13.43
-16.71
-20.15
-23.18
-25.08
-25.22
-23.27
-19.42
-14.26
-8.59
-3.11
1.77
5.96
9.54
12.63
15.22
17.19
18.44
18.92
18.72
18.08
17.26
16.48
15.82
15.24
14.64
13.93
13.07
12.15
11.27
10.48
9.75
8.94
7.86
6.33
4.32
1.98
-0.46
-2.74
-4.74
-6.52
-8.33
-10.45
-13.07
-16.23
-19.75
-23.25
-26.21
-28.08
-28.35
-26.73
-23.23
-18.23
-12.33
-6.26
-0.57
4.42
8.63
12.11
14.85
16.81
17.92
18.22
17.87
17.18
16.42
15.81
15.39
15.12
14.91
14.70
14.43
14.07
13.58
12.92
12.06
11.03
9.91
8.72
7.49
6.13
4.55
2.70
0.61
-1.62
-3.77
-5.68
-7.24
-8.49
-9.66
-11.04
-12.97
-15.63
-19.02
-22.82
-26.47
-29.25
-30.46
-29.65
-26.73
-22.02
-16.17
-9.95
-4.04
1.08
5.25
8.51
11.01
12.87
14.18
14.95
15.30
15.36
15.33
15.33
15.41
15.48
15.48
15.38
15.21
15.08
15.01
14.96
14.75
14.25
13.36
12.13
10.66
9.10
7.54
5.99
4.44
2.82
1.08
-0.81
-2.82
-4.90
-6.99
-8.99
-10.86
-12.61
-14.29
-16.04
-18.04
-20.46
-23.39
-26.66
-29.88
-32.39
-33.47
-32.57
-29.52
-24.58
-18.42
-11.85
-5.58
-0.06
4.51
8.14
10.89
12.80
13.91
14.33
14.25
13.95
13.71
13.69
13.89
14.19
14.39
14.37
14.09
13.58
12.89
12.04
11.10
10.11
9.15
8.25
7.34
6.24
4.76
2.78
0.37
-2.21
-4.63
-6.66
-8.29
-9.72
-11.23
-13.03
-15.14
-17.37
-19.45
-21.19
-22.56
-23.76
-25.08
-26.80
-29.10
-31.96
-35.22
-38.48
-41.16
-42.45
-41.47
-37.47
-30.17
-20.00
-8.10
3.95
14.64
22.93
28.54
31.78
33.27
33.62
33.17
32.11
30.57
28.75
26.97
25.52
24.55
23.99
23.59
23.07
22.22
21.01
19.60
18.19
16.95
15.91
14.95
13.86
12.48
10.77
8.86
6.94
5.14
3.43
1.62
-0.57
-3.30
-6.55
-10.12
-13.69
-16.99
-19.89
-22.40
-24.60
-26.56
-28.34
-29.92
-31.28
-32.34
-32.88
-32.56
-30.95
-27.75
-22.96
-16.99
-10.58
-4.53
0.60
4.61
7.66
10.04
11.92
13.31
14.10
14.25
13.92
13.43
13.14
13.18
13.42
13.52
13.19
12.36
11.23
10.16
9.43
9.07
8.85
8.42
7.52
6.12
4.39
2.54
0.71
-1.11
-2.99
-4.96
-6.86
-8.45
-9.51
-9.93
-9.79
-9.30
-8.70
-8.13
-7.71
-7.48
-7.52
-7.97
-8.87
-10.10
-11.26
-11.77
-10.99
-8.53
-4.41
0.86
6.40
11.29
14.83
16.79
17.43
17.32
17.07
17.08
17.44
17.95
18.35
18.45
18.24
17.81
17.24
16.53
15.59
14.32
12.74
11.02
9.34
7.85
6.57
5.41
4.21
2.86
1.35
-0.35
-2.17
-4.09
-6.03
-7.87
-9.47
-10.73
-11.66
-12.40
-13.16
-14.10
-15.32
-16.82
-18.51
-20.27
-21.93
-23.14
-23.46
-22.40
-19.70
-15.45
-10.18
-4.65
0.42
4.59
7.80
10.22
12.07
13.47
14.37
14.69
14.43
13.68
12.65
11.55
10.50
9.56
8.72
7.95
7.26
6.63
6.05
5.49
4.89
4.16
3.16
1.83
0.13
-1.86
-4.04
-6.26
-8.35
-10.24
-11.87
-13.28
-14.58
-15.97
-17.66
-19.80
-22.32
-24.93
-27.06
-28.08
-27.52
-25.20
-21.35
-16.43
-11.08
-5.83
-1.10
2.86
5.92
8.04
9.24
9.58
9.22
8.35
7.22
6.06
5.09
4.44
4.16
4.16
4.26
4.27
4.06
3.59
2.88
2.03
1.08
0.07
-1.01
-2.18
-3.46
-4.90
-6.50
-8.28
-10.29
-12.57
-15.14
-17.95
-20.78
-23.23
-24.77
-24.89
-23.26
-19.94
-15.28
-9.90
-4.44
0.58
4.83
8.16
10.57
12.11
12.90
13.06
12.74
12.08
11.22
10.27
9.35
8.54
7.86
7.29
6.77
6.22
5.55
4.72
3.71
2.51
1.10
-0.51
-2.30
-4.17
-6.05
-7.89
-9.74
-11.76
-14.12
-16.92
-20.01
-23.01
-25.33
-26.31
-25.48
-22.71
-18.26
-12.77
-6.98
-1.55
3.08
6.81
9.68
11.86
13.44
14.47
14.93
14.87
14.39
13.64
12.77
11.89
11.09
10.44
9.97
9.68
9.48
9.24
8.76
7.91
6.62
4.91
2.86
0.56
-1.90
-4.43
-6.97
-9.50
-12.08
-14.85
-17.92
-21.28
-24.67
-27.53
-29.18
-29.01
-26.71
-22.40
-16.61
-10.14
-3.76
1.95
6.68
10.37
13.09
14.95
16.04
16.48
16.45
16.17
15.89
15.78
15.88
16.05
16.10
15.86
15.29
14.48
13.59
12.73
11.94
11.12
10.14
8.85
7.17
5.14
2.86
0.46
-1.92
-4.23
-6.52
-8.92
-11.61
-14.78
-18.44
-22.42
-26.22
-29.12
-30.38
-29.46
-26.20
-20.94
-14.38
-7.36
-0.67
5.18
10.00
13.79
16.69
18.77
20.07
20.57
20.37
19.66
18.74
17.94
17.49
17.42
17.58
17.68
17.46
16.77
15.64
14.26
12.90
11.73
10.84
10.14
9.46
8.59
7.39
5.80
3.87
1.71
-0.51
-2.68
-4.72
-6.69
-8.77
-11.27
-14.45
-18.40
-22.83
-27.08
-30.21
-31.37
-30.02
-26.15
-20.27
-13.22
-5.87
1.12
7.37
12.76
17.28
20.89
23.52
25.10
25.65
25.36
24.58
23.70
23.04
22.77
22.82
23.03
23.18
23.10
22.75
22.17
21.43
20.61
19.73
18.79
17.79
16.67
15.38
13.89
12.17
10.28
8.30
6.34
4.43
2.48
0.34
-2.17
-5.18
-8.66
-12.48
-16.45
-20.32
-23.81
-26.56
-28.12
-27.95
-25.63
-21.06
-14.61
-7.05
0.57
7.32
12.57
16.19
18.41
19.64
20.24
20.41
20.14
19.41
18.24
16.80
15.34
14.15
13.36
12.91
12.55
11.86
10.51
8.36
5.54
2.44
-0.49
-2.93
-4.80
-6.30
-7.80
-9.67
-12.16
-15.32
-18.99
-22.79
-26.12
-28.25
-28.43
-26.16
-21.46
-14.97
-7.91
-1.71
2.35
3.60
2.10
-1.37
-5.60
-9.38
-11.75
-12.23
-10.84
-7.95
-4.08
0.23
4.58
8.65
12.20
14.99
16.84
17.67
17.55
16.69
15.40
14.00
12.71
11.60
10.67
9.83
9.03
8.32
7.75
7.42
7.32
7.37
7.32
6.89
5.82
4.00
1.55
-1.27
-4.13
-6.71
-8.84
-10.51
-11.80
-12.87
-13.86
-14.90
-16.17
-17.84
-20.05
-22.76
-25.64
-28.06
-29.20
-28.36
-25.27
-20.20
-13.91
-7.36
-1.38
3.56
7.37
10.21
12.24
13.56
14.16
14.02
13.27
12.10
10.83
9.72
8.93
8.47
8.25
8.11
7.92
7.63
7.30
7.06
6.95
6.90
6.66
5.95
4.53
2.42
-0.13
-2.68
-4.80
-6.24
-7.02
-7.39
-7.74
-8.46
-9.80
-11.95
-14.90
-18.51
-22.41
-25.98
-28.49
-29.19
-27.56
-23.54
-17.51
-10.26
-2.73
4.28
10.24
14.94
18.43
20.79
22.12
22.42
21.76
20.35
18.57
16.91
15.84
15.61
16.19
17.29
18.45
19.24
19.36
18.72
17.35
15.41
13.04
10.39
7.61
4.86
2.29
0.09
-1.60
-2.74
-3.44
-3.92
-4.50
-5.53
-7.26
-9.87
-13.43
-17.81
-22.70
-27.48
-31.32
-33.34
-32.83
-29.54
-23.81
-16.45
-8.55
-1.17
4.96
9.47
12.36
13.84
14.24
13.88
13.07
12.09
11.22
10.63
10.42
10.57
10.93
11.26
11.32
10.95
10.12
8.94
7.63
6.42
5.47
4.78
4.27
3.76
3.15
2.38
1.52
0.66
-0.17
-1.04
-2.12
-3.62
-5.66
-8.23
-11.19
-14.28
-17.18
-19.49
-20.74
-20.49
-18.40
-14.49
-9.13
-3.06
2.86
7.95
11.91
14.84
17.09
19.01
20.67
21.87
22.28
21.64
19.90
17.25
14.00
10.46
6.88
3.57
0.94
-0.50
-0.31
1.62
4.90
8.70
12.02
14.09
14.54
13.54
11.51
8.86
5.78
2.26
-1.81
-6.42
-11.38
-16.30
-20.75
-24.33
-26.76
-27.89
-27.69
-26.18
-23.51
-19.92
-15.76
-11.42
-7.30
-3.67
-0.73
1.43
2.80
3.40
3.32
2.76
2.02
1.50
1.53
2.29
3.70
5.47
7.23
8.68
9.67
10.25
10.54
10.55
10.11
8.92
6.73
3.58
-0.11
-3.62
-6.22
-7.42
-7.20
-5.98
-4.46
-3.35
-3.09
-3.75
-5.00
-6.21
-6.68
-5.81
-3.32
0.67
5.66
10.97
15.95
20.17
23.47
25.87
27.40
28.07
27.81
26.56
24.44
21.72
18.83
16.20
14.12
12.67
11.75
11.09
10.45
9.70
8.81
7.93
7.20
6.68
6.30
5.91
5.33
4.45
3.26
1.82
0.22
-1.49
-3.23
-4.89
-6.25
-7.00
-6.84
-5.61
-3.37
-0.42
2.86
6.07
8.96
11.44
13.52
15.25
16.61
17.58
18.09
18.12
17.73
17.00
16.06
14.92
13.56
11.84
9.64
6.97
4.01
1.11
-1.29
-2.89
-3.65
-3.76
-3.61
-3.59
-3.93
-4.69
-5.80
-7.16
-8.71
-10.48
-12.54
-14.96
-17.78
-21.00
-24.51
-28.13
-31.58
-34.50
-36.53
-37.36
-36.90
-35.27
-32.82
-30.03
-27.36
-25.14
-23.47
-22.26
-21.30
-20.44
-19.65
-18.97
-18.50
-18.25
-18.12
-17.99
-17.77
-17.54
-17.43
-17.63
-18.20
-19.08
-20.06
-20.95
-21.65
-22.22
-22.73
-23.14
-23.23
-22.57
-20.75
-17.59
-13.27
-8.27
-3.22
1.40
5.34
8.55
11.05
12.79
13.58
13.30
11.96
9.85
7.43
5.17
3.35
2.05
1.15
0.50
-0.03
-0.48
-0.88
-1.27
-1.71
-2.24
-2.86
-3.52
-4.15
-4.71
-5.28
-6.06
-7.31
-9.31
-12.14
-15.58
-19.03
-21.65
-22.61
-21.40
-18.00
-12.88
-6.77
-0.42
5.62
11.05
15.68
19.33
21.82
22.93
22.56
20.83
18.07
14.77
11.48
8.67
6.59
5.25
4.50
4.06
3.68
3.21
2.59
1.79
0.83
-0.27
-1.51
-2.90
-4.44
-6.14
-8.07
-10.27
-12.78
-15.55
-18.41
-21.02
-22.90
-23.55
-22.56
-19.83
-15.59
-10.37
-4.85
0.38
4.93
8.70
11.71
14.05
15.73
16.73
17.07
16.82
16.15
15.27
14.36
13.53
12.80
12.07
11.22
10.10
8.66
6.97
5.16
3.45
1.95
0.67
-0.53
-1.85
-3.47
-5.47
-7.80
-10.36
-12.98
-15.50
-17.69
-19.25
-19.84
-19.18
-17.12
-13.71
-9.27
-4.24
0.88
5.63
9.72
12.98
15.34
16.76
17.23
16.79
15.57
13.86
12.00
10.35
9.18
8.51
8.16
7.82
7.17
6.08
4.63
3.02
1.51
0.23
-0.89
-2.06
-3.55
-5.57
-8.13
-11.08
-14.08
-16.69
-18.44
-18.95
-17.93
-15.35
-11.43
-6.60
-1.39
3.67
8.19
11.95
14.83
16.77
17.74
17.78
17.03
15.77
14.34
13.06
12.07
11.33
10.68
9.91
8.87
7.56
6.09
4.57
3.12
1.76
0.48
-0.76
-2.01
-3.34
-4.85
-6.70
-9.03
-11.79
-14.68
-17.12
-18.41
-17.98
-15.65
-11.67
-6.71
-1.50
3.34
7.48
10.89
13.64
15.78
17.21
17.81
17.51
16.41
14.81
13.08
11.54
10.31
9.33
8.36
7.17
5.67
3.89
2.04
0.33
-1.08
-2.21
-3.22
-4.37
-5.86
-7.85
-10.35
-13.21
-16.18
-18.90
-20.91
-21.70
-20.88
-18.27
-14.05
-8.71
-2.96
2.53
7.28
11.10
14.02
16.09
17.34
17.69
17.10
15.71
13.83
11.89
10.23
8.98
8.00
7.04
5.82
4.26
2.45
0.63
-0.94
-2.10
-2.90
-3.57
-4.46
-5.94
-8.24
-11.37
-15.06
-18.79
-21.90
-23.73
-23.78
-21.90
-18.26
-13.36
-7.87
-2.47
2.37
6.45
9.77
12.42
14.43
15.71
16.10
15.53
14.11
12.18
10.13
8.29
6.73
5.33
3.83
2.08
0.12
-1.83
-3.51
-4.81
-5.80
-6.77
-8.07
-9.95
-12.53
-15.71
-19.22
-22.63
-25.40
-26.97
-26.90
-25.00
-21.40
-16.53
-10.97
-5.24
0.29
5.42
10.03
13.96
16.94
18.70
19.08
18.18
16.35
14.15
12.12
10.60
9.58
8.81
7.89
6.50
4.61
2.42
0.27
-1.54
-2.94
-4.12
-5.43
-7.25
-9.83
-13.18
-16.99
-20.75
-23.74
-25.27
-24.85
-22.35
-18.04
-12.52
-6.52
-0.60
4.91
9.86
14.25
17.97
20.83
22.58
23.10
22.51
21.11
19.35
17.64
16.17
14.92
13.69
12.28
10.55
8.58
6.56
4.72
3.22
2.02
0.97
-0.20
-1.76
-3.87
-6.61
-9.90
-13.49
-17.00
-19.95
-21.77
-21.98
-20.28
-16.70
-11.59
-5.58
0.62
6.37
11.23
15.02
17.70
19.33
20.01
19.85
19.02
17.79
16.39
15.04
13.84
12.76
11.70
10.53
9.16
7.59
5.92
4.30
2.89
1.75
0.81
-0.15
-1.40
-3.16
-5.50
-8.36
-11.56
-14.91
-18.15
-20.95
-22.83
-23.25
-21.77
-18.27
-13.03
-6.70
-0.09
6.03
11.17
15.08
17.76
19.36
20.07
20.13
19.71
18.96
17.95
16.76
15.48
14.19
13.01
11.94
10.96
9.94
8.81
7.53
6.14
4.71
3.26
1.78
0.21
-1.51
-3.38
-5.30
-7.20
-9.08
-11.08
-13.43
-16.29
-19.56
-22.74
-25.04
-25.58
-23.79
-19.61
-13.57
-6.59
0.32
6.36
11.14
14.57
16.81
18.06
18.46
18.13
17.19
15.79
14.16
12.55
11.16
10.08
9.28
8.62
7.98
7.26
6.45
5.59
4.70
3.75
2.65
1.35
-0.16
-1.78
-3.38
-4.89
-6.35
-7.93
-9.88
-12.44
-15.62
-19.16
-22.46
-24.75
-25.29
-23.62
-19.77
-14.24
-7.88
-1.57
3.98
8.43
11.74
14.05
15.53
16.29
16.39
15.85
14.78
13.34
11.73
10.13
8.69
7.43
6.38
5.51
4.81
4.22
3.63
2.91
1.89
0.52
-1.15
-2.96
-4.74
-6.38
-7.89
-9.39
-11.04
-12.96
-15.28
-18.04
-21.22
-24.57
-27.58
-29.49
-29.53
-27.19
-22.52
-16.11
-8.90
-1.83
4.40
9.42
13.13
15.52
16.65
16.66
15.85
14.63
13.44
12.60
12.16
11.92
11.61
10.98
9.96
8.68
7.32
6.08
5.01
4.04
3.02
1.80
0.30
-1.42
-3.24
-5.02
-6.71
-8.32
-9.97
-11.80
-13.95
-16.49
-19.42
-22.50
-25.37
-27.44
-28.09
-26.84
-23.56
-18.53
-12.42
-6.10
-0.30
4.48
8.12
10.75
12.55
13.64
14.04
13.74
12.84
11.57
10.27
9.22
8.57
8.24
8.01
7.66
7.08
6.32
5.49
4.68
3.90
3.09
2.15
1.01
-0.37
-1.95
-3.65
-5.41
-7.17
-8.94
-10.82
-12.93
-15.48
-18.55
-22.06
-25.63
-28.57
-30.07
-29.40
-26.25
-20.88
-14.07
-6.84
-0.10
5.54
9.87
12.95
14.91
15.86
15.88
15.15
13.93
12.57
11.38
10.51
9.96
9.59
9.27
8.91
8.47
7.93
7.25
6.38
5.27
3.89
2.25
0.37
-1.65
-3.69
-5.60
-7.25
-8.68
-10.05
-11.70
-14.00
-17.11
-20.90
-24.79
-27.91
-29.34
-28.43
-25.04
-19.60
-12.96
-6.06
0.34
5.81
10.22
13.58
15.92
17.20
17.39
16.60
15.15
13.51
12.12
11.26
10.91
10.88
10.86
10.66
10.21
9.59
8.88
8.14
7.28
6.18
4.76
3.03
1.07
-0.96
-2.95
-4.90
-6.95
-9.33
-12.24
-15.76
-19.63
-23.31
-25.99
-26.89
-25.51
-21.82
-16.32
-9.83
-3.26
2.65
7.49
11.13
13.62
15.06
15.60
15.37
14.57
13.42
12.10
10.75
9.47
8.31
7.34
6.59
6.02
5.50
4.83
3.87
2.59
1.10
-0.41
-1.83
-3.15
-4.50
-6.06
-8.00
-10.43
-13.33
-16.62
-20.06
-23.19
-25.41
-26.05
-24.62
-20.99
-15.49
-8.84
-1.87
4.63
10.15
14.47
17.60
19.64
20.72
20.90
20.27
18.97
17.25
15.47
13.95
12.87
12.19
11.67
11.01
10.00
8.62
7.05
5.53
4.18
2.99
1.82
0.47
-1.15
-3.09
-5.34
-7.90
-10.80
-13.97
-17.18
-19.96
-21.71
-21.83
-20.02
-16.36
-11.37
-5.78
-0.35
4.39
8.19
11.04
13.06
14.36
14.97
14.91
14.22
13.05
11.66
10.36
9.38
8.80
8.52
8.24
7.69
6.69
5.28
3.65
2.07
0.67
-0.60
-1.93
-3.58
-5.72
-8.37
-11.43
-14.71
-17.94
-20.76
-22.68
-23.16
-21.77
-18.30
-13.05
-6.64
0.07
6.31
11.54
15.50
18.18
19.63
19.93
19.21
17.68
15.67
13.61
11.87
10.74
10.27
10.27
10.43
10.37
9.83
8.69
7.05
5.15
3.26
1.59
0.12
-1.30
-2.90
-4.88
-7.35
-10.35
-13.81
-17.59
-21.39
-24.74
-26.98
-27.44
-25.65
-21.55
-15.57
-8.49
-1.27
5.28
10.62
14.56
17.12
18.50
18.88
18.51
17.60
16.42
15.18
14.07
13.20
12.62
12.34
12.32
12.52
12.76
12.83
12.48
11.48
9.79
7.54
5.00
2.50
0.26
-1.66
-3.36
-5.03
-6.86
-9.02
-11.61
-14.73
-18.36
-22.27
-25.90
-28.42
-28.97
-26.94
-22.34
-15.80
-8.37
-1.17
5.01
9.86
13.46
16.06
17.85
18.88
19.12
18.63
17.66
16.56
15.64
15.10
14.87
14.78
14.62
14.29
13.81
13.23
12.55
11.65
10.32
8.41
5.96
3.19
0.45
-1.95
-3.87
-5.39
-6.82
-8.49
-10.76
-13.83
-17.71
-22.07
-26.31
-29.59
-31.02
-30.00
-26.38
-20.59
-13.49
-6.09
0.79
6.65
11.39
15.08
17.87
19.82
20.93
21.25
20.92
20.21
19.43
18.88
18.71
18.92
19.33
19.70
19.76
19.35
18.45
17.24
15.95
14.78
13.74
12.65
11.23
9.25
6.65
3.60
0.37
-2.75
-5.57
-8.04
-10.25
-12.31
-14.39
-16.61
-19.16
-22.15
-25.65
-29.53
-33.33
-36.33
-37.68
-36.67
-33.03
-27.07
-19.60
-11.67
-4.24
2.15
7.36
11.55
14.93
17.54
19.34
20.25
20.34
19.91
19.35
19.00
19.05
19.42
19.93
20.32
20.41
20.12
19.46
18.48
17.27
15.93
14.55
13.17
11.80
10.35
8.72
6.81
4.60
2.13
-0.52
-3.24
-5.95
-8.58
-11.07
-13.43
-15.74
-18.16
-20.91
-24.17
-27.93
-31.85
-35.33
-37.54
-37.72
-35.40
-30.64
-23.96
-16.28
-8.57
-1.59
4.21
8.78
12.26
14.89
16.80
18.04
18.66
18.76
18.57
18.40
18.44
18.73
19.08
19.18
18.83
18.02
16.99
16.08
15.52
15.30
15.14
14.60
13.32
11.21
8.45
5.48
2.71
0.43
-1.38
-2.97
-4.75
-7.06
-10.10
-13.83
-18.02
-22.28
-26.05
-28.71
-29.61
-28.29
-24.64
-19.05
-12.33
-5.45
0.74
5.78
9.60
12.45
14.58
16.11
17.02
17.21
16.71
15.69
14.47
13.34
12.50
12.00
11.69
11.41
11.02
10.45
9.71
8.83
7.78
6.50
4.91
2.96
0.72
-1.67
-4.00
-6.12
-8.09
-10.09
-12.44
-15.31
-18.62
-21.95
-24.60
-25.78
-24.95
-21.98
-17.19
-11.25
-4.93
1.11
6.43
10.78
14.07
16.25
17.34
17.44
16.77
15.62
14.32
13.14
12.20
11.50
10.95
10.44
9.91
9.33
8.72
8.07
7.32
6.38
5.17
3.62
1.76
-0.31
-2.42
-4.44
-6.27
-7.89
-9.41
-11.03
-13.03
-15.65
-18.94
-22.65
-26.20
-28.75
-29.46
-27.80
-23.77
-17.93
-11.20
-4.53
1.42
6.38
10.43
13.76
16.48
18.54
19.79
20.19
19.84
19.07
18.25
17.61
17.22
16.93
16.55
15.98
15.19
14.25
13.25
12.21
11.12
9.96
8.76
7.55
6.31
4.98
3.41
1.50
-0.74
-3.19
-5.60
-7.79
-9.66
-11.34
-13.04
-15.04
-17.53
-20.55
-23.96
-27.41
-30.33
-32.06
-31.98
-29.70
-25.30
-19.29
-12.51
-5.83
0.06
4.86
8.52
11.16
12.90
13.82
14.00
13.61
12.96
12.40
12.18
12.41
12.99
13.68
14.19
14.31
13.99
13.30
12.44
11.58
10.82
10.12
9.32
8.21
6.66
4.69
2.45
0.19
-1.93
-3.84
-5.64
-7.45
-9.38
-11.43
-13.59
-15.87
-18.42
-21.40
-24.89
-28.64
-32.05
-34.27
-34.49
-32.29
-27.79
-21.64
-14.73
-7.92
-1.79
3.44
7.79
11.33
14.11
16.07
17.17
17.43
17.08
16.44
15.85
15.53
15.53
15.73
15.94
16.01
15.96
15.90
16.02
16.34
16.71
16.77
16.15
14.68
12.46
9.91
7.52
5.67
4.38
3.39
2.27
0.64
-1.66
-4.50
-7.61
-10.68
-13.50
-15.97
-18.11
-20.01
-21.77
-23.55
-25.51
-27.75
-30.17
-32.39
-33.79
-33.70
-31.63
-27.53
-21.84
-15.31
-8.80
-2.90
2.16
6.44
10.11
13.29
15.96
17.99
19.29
19.90
19.99
19.81
19.58
19.39
19.21
18.90
18.35
17.56
16.63
15.75
15.05
14.53
14.01
13.26
12.11
10.52
8.65
6.76
5.02
3.47
2.02
0.50
-1.25
-3.27
-5.52
-7.89
-10.23
-12.41
-14.33
-15.94
-17.32
-18.68
-20.34
-22.62
-25.67
-29.28
-32.84
-35.49
-36.32
-34.72
-30.60
-24.40
-16.99
-9.36
-2.35
3.52
8.08
11.44
13.81
15.45
16.54
17.18
17.42
17.30
16.89
16.29
15.66
15.12
14.75
14.52
14.37
14.20
13.99
13.76
13.56
13.39
13.16
12.68
11.80
10.43
8.70
6.87
5.26
4.07
3.31
2.76
2.11
1.10
-0.40
-2.33
-4.51
-6.73
-8.84
-10.77
-12.49
-14.05
-15.50
-16.97
-18.65
-20.78
-23.56
-26.99
-30.76
-34.17
-36.36
-36.55
-34.30
-29.74
-23.47
-16.40
-9.42
-3.16
2.07
6.26
9.56
12.09
13.93
15.06
15.49
15.28
14.62
13.81
13.16
12.89
13.02
13.42
13.87
14.14
14.13
13.86
13.43
12.91
12.31
11.60
10.71
9.64
8.43
7.13
5.82
4.52
3.24
2.01
0.83
-0.32
-1.51
-2.86
-4.44
-6.20
-7.99
-9.58
-10.86
-11.89
-12.90
-14.23
-16.13
-18.66
-21.70
-24.95
-28.03
-30.47
-31.79
-31.49
-29.27
-25.08
-19.31
-12.68
-6.06
-0.18
4.53
8.01
10.45
12.07
13.01
13.33
13.06
12.32
11.34
10.43
9.85
9.70
9.87
10.09
10.13
9.90
9.49
9.10
8.90
8.86
8.78
8.37
7.41
5.94
4.21
2.57
1.29
0.43
-0.24
-1.05
-2.25
-3.93
-5.91
-7.92
-9.73
-11.28
-12.71
-14.26
-16.16
-18.51
-21.29
-24.37
-27.48
-30.24
-32.13
-32.53
-30.95
-27.19
-21.54
-14.73
-7.72
-1.34
3.92
7.98
11.00
13.20
14.70
15.53
15.71
15.39
14.84
14.36
14.12
14.15
14.33
14.49
14.56
14.53
14.49
14.49
14.51
14.47
14.20
13.57
12.48
10.94
9.10
7.16
5.34
3.78
2.48
1.28
-0.02
-1.59
-3.44
-5.41
-7.34
-9.13
-10.83
-12.60
-14.63
-17.03
-19.80
-22.91
-26.26
-29.67
-32.75
-34.91
-35.49
-33.94
-30.12
-24.37
-17.46
-10.29
-3.63
2.07
6.65
10.17
12.73
14.40
15.28
15.51
15.31
15.00
14.82
14.95
15.37
15.92
16.42
16.70
16.73
16.57
16.35
16.17
16.06
15.96
15.75
15.29
14.46
13.22
11.64
9.87
8.11
6.53
5.21
4.08
2.93
1.54
-0.24
-2.45
-4.91
-7.36
-9.58
-11.48
-13.15
-14.86
-16.96
-19.66
-23.04
-26.91
-30.82
-34.21
-36.40
-36.80
-35.05
-31.11
-25.36
-18.50
-11.36
-4.69
1.03
5.67
9.34
12.22
14.44
16.01
16.90
17.13
16.87
16.43
16.17
16.34
16.97
17.86
18.69
19.19
19.28
19.07
18.79
18.62
18.55
18.37
17.83
16.74
15.13
13.25
11.40
9.79
8.44
7.24
5.97
4.47
2.68
0.61
-1.66
-4.06
-6.49
-8.81
-10.90
-12.69
-14.22
-15.72
-17.53
-19.94
-23.09
-26.80
-30.60
-33.83
-35.76
-35.82
-33.71
-29.49
-23.53
-16.47
-9.09
-2.12
3.87
8.57
11.95
14.22
15.63
16.43
16.82
16.94
16.91
16.87
16.93
17.15
17.48
17.80
17.95
17.84
17.50
17.03
16.60
16.33
16.22
16.19
16.07
15.72
15.03
13.95
12.51
10.76
8.76
6.63
4.45
2.31
0.26
-1.67
-3.46
-5.04
-6.36
-7.39
-8.21
-9.03
-10.20
-12.05
-14.72
-18.05
-21.54
-24.49
-26.16
-26.03
-23.91
-20.00
-14.78
-8.90
-2.94
2.60
7.47
11.50
14.67
17.04
18.67
19.68
20.17
20.21
19.84
19.10
18.09
16.96
15.93
15.14
14.66
14.39
14.16
13.75
13.03
11.96
10.60
9.04
7.40
5.72
4.06
2.43
0.86
-0.63
-2.04
-3.38
-4.72
-6.13
-7.68
-9.38
-11.19
-13.04
-14.92
-16.86
-19.04
-21.59
-24.54
-27.63
-30.27
-31.69
-31.20
-28.49
-23.75
-17.67
-11.16
-5.03
0.22
4.47
7.83
10.47
12.47
13.78
14.37
14.30
13.72
12.89
12.03
11.30
10.76
10.39
10.11
9.86
9.58
9.22
8.78
8.27
7.67
6.96
6.08
4.94
3.47
1.64
-0.49
-2.77
-5.03
-7.09
-8.88
-10.42
-11.86
-13.40
-15.20
-17.42
-20.07
-23.14
-26.47
-29.76
-32.54
-34.18
-34.04
-31.72
-27.20
-20.96
-13.81
-6.67
-0.26
5.06
9.25
12.50
14.97
16.74
17.79
18.08
17.71
16.90
16.02
15.42
15.38
15.92
16.85
17.81
18.45
18.52
17.96
16.91
15.61
14.26
12.98
11.74
10.43
8.95
7.25
5.39
3.48
1.61
-0.20
-2.00
-3.89
-5.92
-8.09
-10.30
-12.49
-14.69
-17.10
-19.93
-23.27
-26.87
-30.04
-31.91
-31.67
-28.98
-24.09
-17.73
-10.87
-4.34
1.35
6.07
9.88
12.87
15.11
16.61
17.44
17.73
17.69
17.51
17.34
17.22
17.16
17.10
17.02
16.92
16.85
16.81
16.82
16.82
16.68
16.26
15.44
14.21
12.63
10.84
8.98
7.14
5.32
3.44
1.48
-0.56
-2.56
-4.43
-6.17
-7.86
-9.68
-11.81
-14.37
-17.33
-20.55
-23.77
-26.57
-28.48
-28.98
-27.65
-24.35
-19.31
-13.16
-6.73
-0.81
4.10
7.84
10.53
12.42
13.72
14.54
14.91
14.84
14.41
13.79
13.19
12.76
12.51
12.36
12.16
11.83
11.37
10.88
10.43
10.07
9.75
9.37
8.87
8.23
7.43
6.47
5.30
3.89
2.24
0.46
-1.32
-2.94
-4.31
-5.47
-6.57
-7.83
-9.49
-11.77
-14.77
-18.44
-22.50
-26.45
-29.61
-31.32
-31.11
-28.83
-24.76
-19.53
-13.92
-8.63
-4.14
-0.58
2.10
4.08
5.49
6.41
6.87
6.94
6.75
6.44
6.15
5.95
5.84
5.82
5.89
6.05
6.32
6.64
6.96
7.21
7.28
7.11
6.61
5.74
4.50
3.03
1.51
0.16
-0.89
-1.67
-2.33
-3.15
-4.39
-6.21
-8.69
-11.78
-15.22
-18.59
-21.28
-22.62
-22.10
-19.58
-15.36
-10.14
-4.76
0.06
3.94
6.88
9.12
10.92
12.43
13.68
14.60
15.17
15.46
15.58
15.61
15.54
15.30
14.80
14.03
13.03
11.95
10.87
9.80
8.66
7.36
5.85
4.15
2.39
0.70
-0.81
-2.16
-3.42
-4.80
-6.52
-8.76
-11.67
-15.18
-19.06
-22.84
-25.86
-27.45
-27.11
-24.68
-20.42
-14.95
-9.06
-3.42
1.48
5.48
8.62
11.03
12.83
14.11
14.93
15.37
15.55
15.65
15.86
16.30
17.03
18.01
19.07
20.06
20.80
21.23
21.33
21.08
20.42
19.25
17.43
14.94
11.91
8.69
5.69
3.23
1.37
-0.15
-1.80
-4.07
-7.24
-11.27
-15.80
-20.24
-23.96
-26.39
-27.20
-26.28
-23.80
-20.16
-15.86
-11.43
-7.26
-3.56
-0.39
2.23
4.29
5.71
6.47
6.63
6.39
6.04
5.88
6.07
6.55
7.16
7.67
7.93
7.93
7.73
7.47
7.20
6.93
6.55
5.94
4.97
3.59
1.86
-0.09
-2.06
-3.86
-5.40
-6.74
-8.10
-9.73
-11.87
-14.58
-17.70
-20.85
-23.50
-25.11
-25.27
-23.74
-20.59
-16.14
-10.90
-5.48
-0.41
3.93
7.42
10.14
12.28
14.00
15.39
16.39
16.92
16.99
16.72
16.34
16.05
15.99
16.14
16.34
16.47
16.41
16.18
15.80
15.34
14.76
14.00
12.98
11.65
10.03
8.21
6.31
4.44
2.67
1.04
-0.49
-1.96
-3.46
-5.03
-6.72
-8.58
-10.65
-13.03
-15.81
-19.00
-22.46
-25.80
-28.42
-29.66
-29.01
-26.34
-21.97
-16.53
-10.79
-5.36
-0.57
3.54
7.07
10.14
12.78
14.92
16.50
17.49
17.90
17.81
17.37
16.75
16.12
15.67
15.46
15.51
15.70
15.91
16.02
15.96
15.71
15.30
14.75
14.03
13.11
11.96
10.59
9.09
7.55
6.11
4.80
3.60
2.41
1.10
-0.43
-2.18
-4.07
-5.93
-7.59
-8.95
-10.02
-10.97
-12.05
-13.54
-15.66
-18.43
-21.64
-24.89
-27.64
-29.29
-29.38
-27.68
-24.25
-19.51
-14.04
-8.52
-3.47
0.79
4.19
6.81
8.77
10.19
11.14
11.69
11.96
12.09
12.21
12.42
12.69
12.93
13.00
12.84
12.44
11.91
11.42
11.10
11.00
11.01
10.96
10.64
9.89
8.74
7.33
5.85
4.47
3.24
2.08
0.84
-0.61
-2.33
-4.23
-6.17
-7.96
-9.50
-10.80
-12.02
-13.38
-15.09
-17.27
-19.87
-22.64
-25.14
-26.81
-27.12
-25.70
-22.52
-17.98
-12.74
-7.58
-3.09
0.49
3.28
5.56
7.54
9.26
10.56
11.25
11.31
10.93
10.41
10.07
10.03
10.21
10.42
10.52
10.50
10.46
10.54
10.75
10.94
10.82
10.20
9.06
7.62
6.20
5.09
4.34
3.78
3.11
2.04
0.47
-1.51
-3.65
-5.65
-7.34
-8.68
-9.78
-10.88
-12.24
-14.10
-16.53
-19.47
-22.62
-25.51
-27.63
-28.47
-27.73
-25.39
-21.69
-17.09
-12.11
-7.24
-2.82
0.94
3.96
6.21
7.72
8.64
9.15
9.46
9.74
10.00
10.20
10.26
10.19
10.07
10.05
10.17
10.39
10.57
10.55
10.28
9.79
9.20
8.59
7.93
7.15
6.19
5.07
3.89
2.79
1.81
0.91
-0.05
-1.19
-2.58
-4.19
-5.95
-7.71
-9.42
-11.00
-12.48
-13.92
-15.43
-17.16
-19.20
-21.55
-23.98
-26.07
-27.29
-27.16
-25.45
-22.23
-17.87
-12.89
-7.83
-3.11
1.01
4.42
7.10
9.05
10.32
10.99
11.18
11.04
10.71
10.35
10.10
10.01
10.07
10.18
10.22
10.09
9.78
9.38
9.01
8.75
8.57
8.32
7.84
7.06
6.01
4.83
3.62
2.40
1.06
-0.49
-2.28
-4.15
-5.90
-7.39
-8.60
-9.73
-11.01
-12.69
-14.86
-17.47
-20.34
-23.17
-25.52
-26.88
-26.81
-25.03
-21.64
-17.07
-12.01
-7.12
-2.87
0.60
3.39
5.70
7.67
9.31
10.54
11.27
11.51
11.38
11.05
10.71
10.48
10.37
10.33
10.25
10.02
9.59
9.00
8.34
7.69
7.11
6.53
5.82
4.87
3.60
2.02
0.21
-1.66
-3.47
-5.13
-6.62
-7.98
-9.39
-11.04
-13.11
-15.68
-18.58
-21.44
-23.71
-24.83
-24.41
-22.30
-18.69
-14.00
-8.82
-3.73
0.84
4.65
7.67
9.98
11.74
13.04
13.91
14.35
14.38
14.10
13.64
13.14
12.67
12.22
11.76
11.27
10.81
10.48
10.38
10.51
10.72
10.77
10.38
9.38
7.75
5.58
3.08
0.47
-2.02
-4.21
-6.04
-7.49
-8.69
-9.85
-11.23
-13.13
-15.68
-18.82
-22.19
-25.19
-27.08
-27.27
-25.46
-21.81
-16.82
-11.19
-5.59
-0.51
3.84
7.44
10.35
12.65
14.36
15.44
15.91
15.83
15.36
14.73
14.18
13.84
13.76
13.86
14.01
14.12
14.12
14.00
13.76
13.38
12.83
12.06
11.02
9.72
8.21
6.55
4.82
3.05
1.25
-0.57
-2.38
-4.12
-5.72
-7.14
-8.47
-9.88
-11.64
-13.96
-16.96
-20.47
-24.09
-27.22
-29.14
-29.34
-27.55
-23.94
-19.03
-13.51
-8.00
-2.93
1.56
5.48
8.85
11.62
13.66
14.86
15.26
15.05
14.55
14.06
13.80
13.80
13.99
14.24
14.48
14.72
15.01
15.39
15.82
16.12
16.08
15.50
14.37
12.80
11.06
9.41
8.00
6.84
5.84
4.82
3.62
2.13
0.34
-1.71
-3.89
-6.04
-8.04
-9.84
-11.54
-13.34
-15.48
-18.10
-21.16
-24.40
-27.31
-29.29
-29.75
-28.33
-25.01
-20.11
-14.27
-8.20
-2.53
2.35
6.27
9.28
11.50
13.04
14.02
14.54
14.72
14.69
14.57
14.49
14.54
14.76
15.14
15.60
16.03
16.30
16.34
16.14
15.74
15.20
14.55
13.76
12.78
11.54
10.08
8.52
7.00
5.65
4.45
3.27
1.87
0.12
-2.02
-4.34
-6.57
-8.50
-10.04
-11.29
-12.46
-13.81
-15.57
-17.90
-20.88
-24.44
-28.30
-31.93
-34.61
-35.66
-34.67
-31.71
-27.36
-22.47
-17.94
-14.36
-11.93
-10.51
-9.75
-9.34
-9.10
-9.02
-9.23
-9.89
-11.09
-12.80
-14.85
-16.96
-18.84
-20.18
-20.70
-20.15
-18.32
-15.04
-10.29
-4.28
2.62
9.85
16.85
23.17
28.58
33.02
36.58
39.37
41.46
42.89
43.67
43.83
43.43
42.56
41.31
39.75
37.95
35.94
33.72
31.24
28.34
24.78
20.33
14.84
8.40
1.42
-5.42
-11.29
-15.46
-17.43
-17.15
-14.93
-11.35
-7.14
-2.99
0.52
3.04
4.42
4.75
4.29
3.36
2.29
1.36
0.75
0.55
0.74
1.19
1.70
2.03
1.99
1.52
0.68
-0.37
-1.49
-2.61
-3.76
-5.04
-6.56
-8.29
-10.13
-11.89
-13.36
-14.45
-15.21
-15.84
-16.62
-17.87
-19.79
-22.38
-25.43
-28.50
-31.04
-32.48
-32.35
-30.42
-26.74
-21.67
-15.77
-9.70
-4.04
0.84
4.78
7.86
10.22
12.01
13.27
13.99
14.15
13.83
13.22
12.59
12.17
12.06
12.20
12.39
12.46
12.32
12.04
11.77
11.60
11.52
11.37
10.93
10.06
8.75
7.13
5.36
3.58
1.83
0.10
-1.64
-3.38
-5.08
-6.76
-8.50
-10.52
-13.00
-16.02
-19.42
-22.78
-25.49
-26.91
-26.60
-24.40
-20.55
-15.55
-10.09
-4.83
-0.26
3.39
6.13
8.17
9.76
11.08
12.15
12.94
13.34
13.33
13.05
12.72
12.59
12.78
13.27
13.91
14.52
15.02
15.38
15.59
15.59
15.26
14.44
13.07
11.15
8.86
6.38
3.90
1.53
-0.73
-2.91
-5.08
-7.24
-9.40
-11.56
-13.75
-16.05
-18.56
-21.33
-24.21
-26.83
-28.60
-28.93
-27.45
-24.18
-19.56
-14.24
-8.82
-3.74
0.81
4.79
8.17
10.81
12.59
13.45
13.46
12.86
11.98
11.19
10.76
10.80
11.26
11.98
12.70
13.21
13.42
13.34
13.08
12.76
12.43
12.01
11.40
10.48
9.17
7.52
5.64
3.67
1.75
-0.06
-1.78
-3.48
-5.30
-7.38
-9.81
-12.63
-15.70
-18.74
-21.36
-23.04
-23.32
-21.93
-18.88
-14.51
-9.42
-4.24
0.50
4.53
7.79
10.42
12.55
14.28
15.58
16.38
16.66
16.45
15.91
15.24
14.64
14.23
14.01
13.97
14.04
14.18
14.35
14.48
14.46
14.15
13.45
12.37
11.00
9.52
8.08
6.74
5.45
4.09
2.55
0.81
-1.07
-2.93
-4.68
-6.27
-7.77
-9.29
-11.00
-13.02
-15.41
-18.14
-21.04
-23.80
-25.93
-26.89
-26.25
-23.85
-19.87
-14.83
-9.38
-4.07
0.77
5.01
8.65
11.67
14.03
15.65
16.52
16.77
16.62
16.32
16.16
16.31
16.86
17.78
18.87
19.87
20.50
20.68
20.55
20.46
20.78
21.67
22.89
23.87
23.98
22.89
20.80
18.40
16.68
16.36
17.64
20.07
22.69
24.36
24.04
20.93
14.67
5.46
-5.79
-17.52
-27.87
-35.23
-38.89
-39.31
-37.83
-36.05
-35.08
-35.13
-35.70
-36.03
-35.69
-34.77
-33.72
-32.95
-32.51
-31.95
-30.54
-27.67
-23.16
-17.49
-11.65
-6.75
-3.53
-1.96
-1.23
-0.14
2.30
6.43
11.75
17.22
21.78
24.74
26.06
26.27
26.32
27.27
30.05
35.10
42.12
50.08
57.42
62.58
64.56
63.22
59.23
53.76
47.87
42.18
36.67
30.86
24.07
15.71
5.43
-6.72
-20.30
-34.54
-48.41
-60.87
-71.07
-78.57
-83.39
-85.92
-86.86
-86.97
-86.94
-87.22
-87.80
-88.14
-87.26
-83.94
-77.15
-66.59
-53.02
-38.24
-24.51
-13.79
-7.00
-3.87
-3.14
-3.12
-2.38
-0.22
3.29
7.54
11.77
15.44
18.20
19.95
20.70
20.50
19.45
17.71
15.74
14.16
13.71
14.60
16.67
19.58
23.08
27.01
31.30
36.26
42.16
49.45
57.65
66.10
74.21
81.71
88.32
93.56
97.31
99.57
101.11
102.02
102.58
103.61
106.20
110.70
115.99
119.83
118.27
107.71
84.15
45.71
-5.95
-65.63
-126.42
-181.97
-227.42
-261.54
-273.40
-255.30
-207.55
-139.83
-65.54
3.81
56.71
92.35
110.51
112.38
100.20
78.26
53.38
33.17
23.44
26.66
42.45
67.04
95.00
120.69
140.45
153.24
159.73
160.28
153.80
138.16
110.10
66.78
8.41
-61.48
-138.06
-217.61
-298.39
-378.83
-454.56
-517.96
-560.75
-574.91
-556.41
-507.65
-436.91
-354.70
-268.56
-180.33
-78.48
34.66
142.95
223.72
260.85
252.23
208.06
145.34
80.85
25.43
-17.88
-48.46
-64.61
-65.12
-48.77
-20.18
9.13
24.01
11.92
-31.13
-95.90
-163.60
-214.31
-235.11
-224.76
-191.15
-144.03
-94.86
-51.90
-17.11
12.39
41.29
73.65
111.20
153.67
198.95
242.98
280.21
305.01
313.20
303.43
278.10
242.95
206.34
177.17
162.22
164.05
179.67
200.67
215.55
213.95
190.54
147.22
92.03
35.26
-14.53
-53.37
-81.72
-101.94
-115.35
-120.89
-115.96
-99.00
-71.80
-39.50
-8.79
14.95
29.73
37.34
41.56
45.52
49.92
52.88
51.79
45.60
36.04
27.07
22.81
25.17
32.81
41.88
47.98
48.44
43.39
35.41
28.00
23.83
23.50
25.47
26.84
24.53
16.35
1.54
-19.32
-44.64
-72.46
-101.02
-129.15
-156.33
-182.70
-208.39
-232.95
-254.80
-271.09
-278.27
-273.29
-254.96
-224.86
-187.21
-147.42
-110.18
-77.78
-49.54
-22.73
5.81
38.32
75.57
117.18
162.05
208.36
253.14
292.05
320.02
332.78
328.75
310.00
281.61
249.77
219.59
193.67
172.30
154.39
138.83
125.11
113.12
102.52
92.42
81.74
70.00
57.91
47.19
39.76
36.49
36.50
37.44
36.67
32.55
25.24
16.39
8.01
1.31
-3.77
-8.29
-13.31
-19.24
-25.59
-31.34
-35.54
-37.74
-38.12
-37.27
-35.95
-34.78
-34.16
-34.22
-34.90
-35.97
-37.19
-38.29
-39.01
-39.07
-38.22
-36.22
-32.95
-28.46
-23.13
-17.70
-13.20
-10.59
-10.43
-12.53
-15.97
-19.49
-22.07
-23.34
-23.65
-23.73
-24.17
-25.18
-26.53
-27.83
-28.83
-29.54
-30.12
-30.68
-31.17
-31.50
-31.65
-31.80
-32.21
-33.07
-34.28
-35.52
-36.38
-36.62
-36.27
-35.57
-34.76
-33.89
-32.68
-30.59
-27.07
-21.72
-14.60
-6.15
2.81
11.36
18.66
24.14
27.57
29.06
28.95
27.71
25.88
23.95
22.28
21.07
20.22
19.33
17.76
14.80
10.00
3.40
-4.40
-12.41
-19.59
-25.19
-28.98
-31.12
-31.99
-31.92
-31.15
-29.80
-28.07
-26.23
-24.55
-23.14
-21.89
-20.45
-18.45
-15.68
-12.24
-8.49
-4.86
-1.72
0.83
2.96
4.98
7.26
9.90
12.75
15.37
17.24
17.99
17.57
16.29
14.68
13.25
12.31
11.85
11.64
11.31
10.52
9.05
6.84
4.00
0.75
-2.62
-5.85
-8.76
-11.30
-13.52
-15.52
-17.39
-19.14
-20.69
-21.84
-22.36
-22.07
-20.93
-19.05
-16.66
-14.02
-11.30
-8.60
