1532033104.00
64.000000
-0.00
-0.00
-0.00
-0.00
-0.00
-0.00
-0.00
-0.00
-0.00
-0.00
0.00
0.01
0.01
-0.00
-0.03
-0.05
-0.05
0.00
0.13
0.36
0.66
1.01
1.37
1.72
2.06
2.40
2.79
3.24
3.80
4.42
5.06
5.66
6.20
6.68
7.15
7.68
8.31
9.14
10.09
11.04
11.88
12.56
13.14
13.76
14.65
15.96
17.91
20.32
22.90
25.38
27.58
29.57
31.68
34.32
37.81
42.54
48.15
54.10
59.83
64.97
69.58
74.14
79.34
85.71
93.76
103.00
112.62
121.73
129.77
136.75
143.30
150.75
157.77
166.64
177.95
191.79
206.97
220.57
228.25
225.36
208.53
176.87
132.76
80.05
23.07
-34.94
-92.44
-149.16
-205.23
-260.37
-313.74
-363.87
-409.83
-450.91
-486.50
-515.74
-537.23
-549.22
-549.96
-538.37
-514.21
-478.67
-433.88
-382.45
-327.02
-269.84
-212.63
-156.66
-102.95
-52.37
-5.90
35.58
71.43
101.35
125.50
144.38
158.69
169.15
176.37
180.75
182.57
182.07
179.51
175.23
169.65
163.18
156.15
148.81
141.30
133.69
126.02
118.33
110.69
103.16
95.80
88.68
81.83
75.25
68.95
62.95
57.25
51.86
46.78
42.03
37.59
33.45
29.61
26.07
22.81
19.83
17.11
14.67
12.48
10.54
8.83
7.35
6.07
4.97
4.05
3.27
2.62
2.09
1.65
1.30
1.01
0.79
0.61
0.47
0.37
0.28
0.22
0.18
0.15
0.13
0.12
0.13
0.14
0.16
0.19
0.23
0.27
0.32
0.37
0.42
0.47
0.53
0.58
0.62
0.67
0.72
0.77
0.82
0.87
0.93
1.01
1.09
1.19
1.30
1.43
1.58
1.75
1.93
2.14
2.37
2.62
2.90
3.22
3.58
3.97
4.39
4.82
5.24
5.65
6.07
6.53
7.06
7.69
8.41
9.20
10.00
10.79
11.55
12.32
13.14
14.08
15.15
16.35
17.62
18.88
20.05
21.07
21.93
22.66
23.25
23.58
23.46
22.58
20.62
17.30
12.61
6.67
-0.08
-7.12
-13.98
-20.38
-26.24
-31.63
-36.56
-40.84
-44.01
-45.51
-44.89
-42.12
-37.71
-32.72
-28.37
-25.67
-25.02
-26.10
-28.05
-29.97
-31.26
-31.98
-32.72
-34.22
-37.03
-41.31
-46.96
-53.59
-60.46
-66.17
-68.70
-65.99
-56.94
-42.37
-25.04
-8.89
2.71
8.24
8.63
6.35
3.85
2.31
1.30
-0.42
-3.76
-8.62
-13.92
-18.33
-21.24
-23.16
-25.53
-29.99
-37.54
-47.87
-59.37
-69.59
-75.46
-73.88
-62.53
-40.68
-9.30
29.50
73.63
119.34
162.48
200.67
233.81
263.28
290.36
315.16
336.65
353.24
363.32
364.05
353.23
329.85
294.04
246.44
188.45
122.74
53.23
-15.77
-82.60
-146.21
-205.14
-257.18
-300.61
-334.18
-357.18
-369.40
-357.07
-313.95
-245.63
-167.01
-92.38
-29.89
18.91
55.76
83.15
103.22
115.28
118.87
115.14
106.92
96.19
84.23
71.56
58.14
43.69
26.17
4.25
-21.81
-44.79
-62.09
-73.06
-78.26
-78.76
-75.71
-71.25
-66.88
-62.99
-58.92
-54.71
-50.16
-45.28
-40.18
-35.03
-30.43
-26.74
-23.80
-21.05
-18.64
-16.55
-14.81
-13.43
-12.32
-11.43
-10.58
-9.43
-7.71
-5.84
-4.26
-3.46
-3.76
-5.00
-6.67
-7.94
-8.04
-6.71
-4.60
-2.80
-2.55
-4.58
-8.63
-13.57
-17.68
-19.46
-18.48
-15.71
-13.24
-13.34
-17.38
-24.96
-34.03
-41.64
-45.52
-44.95
-41.32
-37.65
-36.91
-41.74
-52.08
-66.63
-83.04
-97.99
-106.97
-104.87
-87.73
-55.36
-13.15
28.83
58.83
69.70
61.43
41.15
19.40
4.05
-3.81
-9.48
-20.22
-39.45
-63.27
-81.95
-84.88
-66.34
-28.66
18.68
62.85
92.72
102.10
90.13
60.70
19.87
-24.98
-66.23
-96.53
-109.92
-103.37
-78.52
-41.95
-3.17
28.92
50.01
61.54
69.14
78.82
93.11
109.59
122.66
127.57
122.49
112.04
103.38
101.62
106.97
115.17
120.61
119.81
113.52
105.21
98.70
95.48
94.00
91.54
85.61
76.27
64.44
52.32
41.88
34.07
28.43
23.73
18.90
13.42
8.08
4.09
2.67
4.15
7.68
11.26
12.27
8.82
0.34
-11.46
-23.47
-32.76
-38.17
-41.13
-45.13
-54.53
-70.59
-93.83
-121.33
-147.80
-167.56
-176.76
-174.62
-163.33
-147.22
-130.77
-117.59
-109.14
-105.14
-104.30
-105.30
-107.22
-109.38
-111.20
-111.77
-110.05
-105.15
-96.98
-86.48
-75.28
-65.82
-58.31
-52.32
-46.77
-40.38
-32.06
-21.45
-9.02
4.16
16.94
28.49
38.18
45.76
51.32
54.92
56.28
54.98
50.53
42.71
31.82
18.47
3.50
-11.74
-26.08
-38.64
-48.78
-56.21
-60.83
-62.65
-61.95
-59.09
-54.00
-46.80
-37.82
-27.41
-15.90
-3.43
10.14
25.42
40.01
52.96
63.70
71.97
77.71
80.99
81.96
80.77
77.50
72.18
65.26
57.03
47.62
37.09
25.44
12.64
-1.39
-16.71
-33.47
-51.36
-70.09
-89.32
-108.64
-127.62
-145.88
-163.02
-178.69
-192.60
-204.32
-213.53
-220.01
-223.62
-224.31
-222.06
-216.87
-208.81
-198.01
-184.52
-168.47
-150.12
-129.79
-107.93
-85.06
-61.80
-38.84
-16.92
3.26
20.99
35.60
46.52
53.29
55.65
53.55
47.13
36.85
23.32
7.40
-9.96
-27.75
-45.03
-60.94
-74.80
-86.12
-94.61
-100.18
-102.90
-102.98
-100.72
-96.52
-90.78
-83.94
-76.43
-68.71
-61.20
-54.30
-48.32
-43.51
-40.01
-37.86
-36.93
-36.99
-37.66
-38.50
-39.01
-38.76
-37.38
-34.65
-30.50
-25.02
-18.44
-11.10
-3.44
4.09
11.05
17.06
21.79
24.96
26.39
25.91
23.43
18.95
12.55
4.39
-5.31
-16.28
-28.27
-41.04
-54.35
-68.01
-81.69
-94.98
-107.29
-117.87
-125.90
-130.59
-131.33
-127.76
-119.84
-107.78
-91.95
-72.76
-50.59
-25.86
0.93
29.02
57.34
84.55
109.32
130.54
147.72
160.96
170.91
178.44
184.33
189.03
192.66
195.23
196.96
198.54
201.10
205.97
214.17
226.01
240.79
257.23
273.92
289.95
305.40
321.20
338.72
359.45
384.56
414.74
449.72
487.83
525.63
558.19
580.16
587.30
577.91
553.33
517.21
474.06
427.86
381.30
336.30
294.50
257.53
226.51
201.07
178.98
156.56
129.94
96.44
55.39
8.30
-41.35
-88.57
-127.65
-153.40
-162.63
-155.80
-137.50
-115.30
-97.13
-88.26
-89.58
-98.28
-110.15
-122.29
-134.21
-146.87
-160.40
-172.34
-177.67
-170.88
-148.83
-112.56
-67.18
-19.90
22.56
55.64
77.29
87.23
86.30
76.38
60.81
44.66
33.89
33.55
45.66
67.85
93.47
113.49
119.51
106.72
75.51
31.13
-18.43
-65.63
-106.08
-139.62
-169.47
-200.14
-235.17
-275.42
-318.53
-359.32
-390.81
-405.83
-398.85
-368.26
-317.98
-257.31
-198.29
-151.39
-121.52
-106.43
-98.56
-89.19
-72.56
-47.56
-16.51
17.83
54.54
94.68
139.21
186.28
230.08
262.15
274.78
264.53
233.89
190.25
142.90
99.81
65.25
39.67
21.04
6.62
-5.58
-16.45
-25.87
-32.84
-35.60
-32.01
-20.48
-1.14
23.65
50.04
74.67
96.34
116.58
138.18
162.65
188.24
209.82
220.89
216.60
196.10
163.11
124.68
88.78
61.99
47.75
45.91
53.02
63.65
72.03
73.93
67.64
53.91
35.02
13.49
-8.67
-30.19
-50.28
-68.50
-84.88
-100.18
-115.80
-132.89
-151.16
-168.20
-179.93
-182.20
-172.81
-152.82
-126.21
-98.19
-73.17
-53.57
-39.97
-32.00
-28.97
-29.68
-31.76
-31.43
-24.52
-8.53
15.27
41.48
62.22
70.35
62.25
38.84
4.00
-38.13
-85.21
-136.48
-190.69
-243.66
-287.63
-313.11
-312.60
-283.98
-231.84
-166.03
-98.43
-39.57
3.69
28.90
37.61
34.33
25.22
16.62
13.39
17.85
29.39
45.08
60.87
72.70
77.11
71.75
56.04
31.95
4.45
-19.21
-31.48
-27.16
-5.47
29.61
71.01
111.36
145.48
171.70
191.23
206.40
218.81
228.36
233.51
232.46
224.44
210.40
192.98
175.77
162.20
154.74
154.50
161.23
173.65
189.64
206.39
220.17
226.53
220.82
199.08
159.17
101.53
29.14
-53.56
-141.85
-231.34
-317.52
-394.50
-454.39
-488.63
-491.09
-461.32
-405.84
-336.29
-265.01
-200.30
-144.07
-92.98
-41.84
12.77
70.97
130.17
186.99
239.33
286.95
330.81
371.68
409.09
441.23
465.80
481.55
489.42
492.85
496.45
503.89
515.46
527.24
532.35
523.92
498.17
455.85
401.52
341.07
279.44
219.50
162.55
109.43
61.58
21.21
-9.41
-28.91
-37.63
-37.65
-32.21
-24.93
-18.89
-16.13
-17.61
-23.36
-32.74
-44.81
-58.45
-72.35
-85.04
-94.99
-100.98
-102.31
-99.15
-92.46
-83.83
-75.14
-67.95
-63.27
-61.36
-62.00
-64.66
-68.91
-74.51
-81.49
-89.88
-99.57
-110.26
-121.53
-132.97
-144.25
-155.42
-166.87
-179.11
-192.50
-207.08
-222.65
-238.91
-255.79
-273.39
-292.35
-313.54
-337.67
-364.86
-394.33
-424.45
-452.96
-477.61
-494.31
-498.49
-486.33
-456.31
-410.24
-352.66
-289.33
-225.51
-165.27
-111.07
-64.42
-26.23
3.32
24.81
39.66
49.80
57.44
64.40
72.15
81.32
91.58
102.25
112.59
122.11
130.27
137.94
143.92
146.54
143.76
133.52
114.33
85.91
49.46
7.22
-37.61
-82.03
-123.51
-160.25
-191.28
-215.83
-233.01
-241.68
-240.98
-230.36
-210.48
-183.11
-151.11
-118.26
-88.92
-67.88
-57.96
-62.31
-81.59
-112.49
-147.69
-177.77
-194.65
-194.47
-178.84
-153.62
-126.20
-101.92
-82.76
-67.55
-53.92
-40.08
-25.26
-9.10
9.35
31.63
59.12
91.19
124.23
152.07
167.99
167.65
151.08
122.81
89.96
59.77
37.15
23.76
18.43
18.45
20.72
22.36
20.81
13.85
-0.08
-21.42
-48.86
-79.21
-107.49
-127.96
-135.81
-128.83
-108.37
-78.99
-46.73
-16.67
8.91
31.04
52.82
77.14
104.80
133.97
161.12
182.80
197.09
204.05
205.10
202.20
197.01
190.64
183.49
175.53
166.35
155.55
143.02
128.98
113.94
98.24
81.83
64.20
45.05
25.02
5.94
-9.92
-21.27
-29.09
-36.91
-49.46
-70.62
-101.56
-140.02
-181.23
-219.13
-247.83
-262.45
-259.50
-237.07
-195.41
-137.60
-70.11
-2.66
53.71
89.28
99.15
85.29
56.65
26.65
8.34
9.71
30.67
63.58
96.57
118.78
124.29
113.78
93.00
69.61
49.97
37.38
32.17
32.69
36.77
42.43
47.82
51.08
50.15
43.32
29.96
11.28
-9.67
-28.86
-42.84
-50.23
-52.35
-52.61
-54.80
-61.20
-71.33
-82.06
-89.11
-89.01
-80.82
-66.45
-49.80
-34.83
-23.78
-16.36
-10.33
-2.83
7.79
20.90
33.78
42.47
43.77
36.37
21.48
2.77
-14.50
-24.73
-23.59
-9.67
13.99
40.25
59.25
61.75
42.45
2.71
-49.37
-101.50
-141.77
-163.63
-168.01
-162.30
-156.29
-157.19
-166.10
-177.68
-183.09
-174.41
-148.56
-108.40
-60.97
-13.98
27.42
61.63
89.87
114.01
134.91
152.06
164.39
171.34
173.75
174.19
175.39
179.24
185.52
191.99
195.17
192.53
184.01
172.70
163.80
161.58
166.69
174.80
178.06
168.29
140.72
96.09
39.74
-20.68
-78.08
-127.19
-164.23
-185.49
-186.97
-165.44
-120.48
-56.48
17.25
88.65
146.87
185.03
201.59
199.03
180.50
146.91
95.89
23.52
-71.76
-185.43
-305.93
-417.00
-502.83
-553.58
-568.42
-554.51
-522.91
-483.37
-441.26
-397.47
-350.58
-299.86
-246.67
-194.03
-144.58
-99.32
-58.13
-21.73
6.94
23.10
22.35
3.06
-31.65
-74.59
-116.42
-148.35
-163.78
-158.93
-132.63
-86.08
-22.85
51.82
132.03
213.02
292.48
370.61
448.45
524.94
594.91
649.04
676.39
668.10
620.47
536.46
425.58
301.87
180.95
77.07
0.01
-47.08
-68.82
-76.46
-84.28
-104.66
-143.31
-197.35
-256.93
-309.75
-345.52
-358.89
-349.75
-321.45
-278.80
-226.55
-168.69
-108.64
-49.73
4.31
49.26
80.91
96.67
97.05
86.52
73.00
65.50
70.49
89.22
117.79
149.62
179.29
204.67
226.36
245.06
259.07
264.06
254.90
228.47
185.87
132.23
74.52
19.40
-27.99
-63.99
-85.80
-91.28
-79.94
-54.08
-18.98
18.02
49.82
71.81
82.68
83.84
78.00
67.64
54.46
39.82
25.08
11.86
1.62
-5.02
-8.58
-10.73
-13.50
-18.60
-26.22
-35.35
-43.87
-49.29
-49.57
-43.91
-33.32
-20.90
-11.29
-8.49
-15.28
-31.77
-55.36
-81.47
-104.79
-120.56
-125.43
-117.84
-96.58
-62.34
-17.13
35.51
91.23
145.87
196.46
241.64
281.39
317.78
351.74
382.86
408.85
426.19
431.64
423.80
404.20
366.50
310.14
238.22
157.89
77.86
5.47
-55.41
-104.40
-143.25
-174.32
-195.00
-206.66
-211.17
-211.17
-209.88
-210.56
-215.98
-228.09
-248.14
-275.32
-308.28
-342.77
-372.43
-390.11
-389.90
-369.32
-330.37
-278.90
-221.19
-162.31
-103.87
-45.22
13.91
70.96
120.34
155.56
172.63
172.83
162.05
148.56
139.23
136.98
140.34
145.07
146.94
143.72
136.02
126.19
116.86
109.40
103.50
97.84
91.16
83.05
73.92
64.35
54.46
43.96
32.38
19.55
5.81
-8.79
-25.34
-46.35
-74.96
-113.72
-163.17
-221.24
-283.45
-343.89
-396.40
-435.86
-459.31
-466.73
-461.30
-448.22
-432.66
-417.57
-402.82
-386.01
-364.58
-337.69
-306.73
-274.41
-242.99
-213.18
-184.19
-154.85
-124.79
-94.57
-65.10
-36.64
-7.80
24.30
62.45
107.42
156.42
203.03
239.19
258.64
259.88
247.29
229.38
215.05
209.54
212.45
218.38
220.14
212.22
192.82
163.57
127.71
88.11
46.57
4.48
-36.25
-72.59
-100.67
-116.76
-118.41
-105.17
-78.67
-41.88
1.87
49.61
99.11
148.74
196.72
240.87
278.47
306.62
323.03
326.73
318.42
300.03
274.23
243.42
209.37
173.12
135.04
94.36
49.07
-3.87
-67.38
-142.03
-224.39
-306.50
-377.76
-428.19
-452.14
-449.97
-427.14
-391.24
-348.58
-301.91
-250.38
-191.77
-124.80
-50.43
28.65
109.27
188.33
262.24
325.37
369.65
386.13
368.46
317.23
241.91
158.95
86.40
37.35
15.37
14.17
21.51
25.12
17.60
-1.56
-27.15
-51.49
-67.43
-70.91
-61.28
-40.36
-10.70
25.57
66.66
110.27
152.46
187.90
211.19
219.00
211.51
192.00
164.94
133.70
99.42
61.72
20.84
-20.62
-57.75
-85.26
-100.18
-103.43
-99.14
-92.47
-87.44
-85.66
-86.88
-90.06
-94.45
-99.76
-105.43
-109.92
-110.50
-104.14
-88.80
-64.67
-34.52
-2.93
25.33
47.33
63.08
75.49
88.71
105.95
127.72
151.57
173.44
189.43
197.45
197.17
189.04
173.07
148.55
114.86
72.86
25.72
-21.87
-65.45
-102.82
-134.72
-164.00
-193.89
-226.22
-260.69
-294.94
-325.35
-347.79
-358.52
-354.74
-335.02
-299.55
-250.00
-189.20
-120.96
-49.90
18.64
79.26
127.83
163.15
187.63
206.53
225.63
248.55
275.09
301.75
323.83
337.77
342.53
339.06
329.16
314.23
294.87
271.32
244.05
213.98
182.33
150.38
119.00
88.85
60.48
34.26
10.17
-12.60
-35.56
-60.14
-86.48
-112.57
-134.45
-147.61
-149.26
-139.97
-123.82
-106.74
-93.90
-87.37
-85.58
-84.67
-80.85
-72.56
-61.11
-49.89
-42.45
-40.95
-45.24
-53.16
-61.30
-66.23
-65.74
-59.50
-49.15
-37.70
-28.47
-23.83
-24.38
-28.47
-32.61
-32.34
-23.44
-3.30
27.93
66.73
106.84
140.65
161.29
164.50
149.53
118.90
77.20
29.54
-19.59
-66.64
-108.86
-144.06
-170.66
-188.11
-197.25
-200.23
-199.82
-198.39
-197.03
-195.33
-191.67
-184.17
-171.50
-153.45
-130.93
-105.40
-78.35
-50.76
-23.13
4.44
32.01
59.51
86.53
112.40
136.58
159.28
181.66
205.45
231.89
260.66
289.48
314.59
332.24
340.03
337.63
326.35
307.86
282.99
251.38
211.82
163.33
105.97
41.15
-28.62
-100.08
-169.71
-234.10
-290.36
-336.61
-372.20
-397.59
-413.78
-421.61
-421.03
-411.27
-391.42
-361.35
-322.38
-277.01
-228.13
-178.30
-129.49
-83.37
-41.74
-6.62
20.33
38.56
49.29
55.12
58.95
62.76
66.75
69.69
69.70
65.44
56.72
44.56
30.75
17.28
5.87
-2.48
-7.54
-9.78
-9.78
-7.68
-2.80
6.47
22.20
46.20
79.11
120.05
166.44
214.43
259.53
297.40
324.86
340.43
344.61
339.38
327.26
310.34
289.67
265.64
238.75
210.35
182.42
156.53
132.55
107.84
77.88
38.15
-13.48
-75.17
-141.01
-202.66
-251.83
-282.92
-294.52
-289.27
-272.31
-248.83
-222.11
-192.84
-160.15
-123.71
-85.53
-50.29
-23.67
-9.70
-8.40
-15.42
-23.86
-27.35
-22.61
-10.55
4.70
17.81
24.04
20.39
5.88
-18.38
-48.99
-80.49
-106.29
-120.32
-118.89
-102.05
-73.38
-38.43
-2.62
30.28
58.38
80.70
96.24
104.03
104.17
98.90
92.64
90.64
96.26
109.04
124.21
134.53
133.34
117.39
88.24
51.24
13.34
-19.61
-44.39
-60.73
-70.60
-76.83
-81.94
-87.29
-92.95
-98.10
-101.67
-102.79
-100.96
-95.98
-87.91
-77.37
-65.65
-54.66
-46.29
-41.64
-40.34
-40.76
-40.93
-39.96
-38.94
-40.50
-47.32
-60.24
-77.32
-94.56
-107.64
-113.76
-112.61
-106.27
-98.20
-91.97
-90.23
-93.94
-102.14
-112.29
-121.07
-125.49
-123.78
-116.01
-103.80
-89.44
-74.70
-59.89
-43.63
-23.12
5.11
44.19
95.67
158.24
226.86
293.14
346.99
379.39
384.92
363.10
318.20
257.52
189.39
121.59
60.58
11.31
-22.82
-40.42
-42.74
-33.94
-20.29
-8.32
-2.59
-4.23
-10.93
-18.88
-25.39
-30.64
-37.56
-49.82
-69.03
-93.22
-117.33
-135.61
-144.46
-143.98
-137.26
-128.15
-118.97
-109.59
-98.17
-82.91
-63.34
-40.56
-16.68
6.13
26.04
41.70
52.33
57.89
59.50
59.20
59.09
60.03
60.83
58.73
51.09
37.45
20.30
4.19
-6.53
-10.01
-7.59
-2.58
1.97
5.19
8.79
15.69
27.96
45.22
64.64
82.09
94.12
99.25
98.28
93.50
87.45
81.80
76.99
72.37
67.04
60.42
52.62
44.43
36.87
30.86
26.91
25.06
24.95
26.09
27.97
30.22
32.54
34.62
36.12
36.60
35.62
32.79
27.89
21.10
13.12
5.13
-1.35
-4.95
-5.00
-1.83
3.25
8.46
12.30
14.12
14.40
14.31
15.12
17.50
21.09
24.72
26.91
26.61
23.56
18.47
12.59
7.21
3.19
0.73
-0.48
-0.93
-1.05
-1.02
-0.91
-0.78
-0.84
-1.41
-2.82
-5.28
-8.88
-13.55
-19.16
-25.41
-31.59
-36.71
-39.44
-38.57
-33.40
-24.16
-11.91
1.71
14.93
26.42
35.38
41.63
45.32
46.67
45.88
43.04
38.31
31.99
24.56
16.59
8.65
1.11
-5.91
-12.44
-18.54
-24.13
-28.99
-32.84
-35.60
-37.39
-38.53
-39.40
-40.23
-41.11
-42.04
-43.14
-44.66
-46.88
-50.00
-53.92
-58.14
-61.76
-63.60
-62.46
-57.41
-48.19
-35.44
-20.74
-6.24
5.89
14.04
17.63
17.08
13.53
8.31
2.55
-3.01
-8.00
-12.27
-15.79
-18.48
-20.40
-21.64
-22.43
-23.03
-23.75
-24.72
-25.99
-27.46
-28.93
-30.30
-31.47
-32.55
-33.68
-35.12
-37.01
-39.39
-42.09
-44.79
-47.10
-48.68
-49.30
-48.91
-47.55
-45.30
-42.32
-38.81
-35.10
-31.68
-28.85
-26.63
-24.65
-22.26
-18.95
-14.67
-9.90
-5.45
-2.09
-0.11
0.69
0.84
0.76
0.52
-0.06
-1.32
-3.30
-5.79
-8.37
-10.66
-12.57
-14.27
-16.12
-18.42
-21.36
-24.84
-28.64
-32.45
-36.05
-39.32
-42.20
-44.75
-46.96
-48.84
-50.23
-50.78
-49.95
-47.12
-41.80
-33.89
-23.87
-12.80
-2.03
7.16
13.98
18.28
20.38
20.76
19.77
17.63
14.46
10.55
6.42
2.71
-0.06
-1.70
-2.34
-2.37
-2.22
-2.21
-2.49
-3.09
-3.92
-4.88
-5.82
-6.56
-6.97
-7.05
-6.90
-6.77
-6.95
-7.73
-9.38
-12.04
-15.67
-19.95
-24.23
-27.46
-28.37
-25.83
-19.28
-8.99
3.87
17.59
30.36
40.74
48.01
52.14
53.57
52.94
50.89
47.90
44.42
40.79
37.33
34.27
31.66
29.46
27.48
25.54
23.50
21.30
18.90
16.24
13.19
9.60
5.41
0.73
-4.10
-8.70
-12.68
-15.86
-18.37
-20.50
-22.72
-25.34
-28.39
-31.37
-33.26
-32.62
-28.07
-18.84
-5.21
11.38
28.71
44.36
56.58
64.57
68.59
69.48
68.16
65.39
61.61
57.15
52.36
47.77
43.82
40.80
38.64
36.93
35.15
32.90
30.08
26.91
23.79
21.06
18.85
16.98
15.11
12.91
10.24
7.20
4.05
1.02
-1.88
-4.85
-8.24
-12.27
-16.89
-21.61
-25.63
-28.16
-28.70
-27.31
-24.62
-21.61
-19.31
-18.39
-19.01
-20.79
-23.01
-24.96
-26.28
-27.09
-27.86
-29.17
-31.34
-34.28
-37.44
-40.12
-41.81
-42.36
-42.11
-41.72
-42.04
-43.94
-48.18
-55.29
-65.24
-77.37
-90.21
-101.70
-109.45
-111.40
-106.20
-93.49
-73.88
-48.64
-19.48
11.61
42.23
69.58
90.66
102.79
104.48
96.09
80.05
60.33
41.30
26.45
17.33
13.31
12.12
10.96
7.60
1.21
-7.57
-17.14
-25.80
-32.49
-37.08
-40.24
-42.77
-45.18
-47.47
-49.32
-50.48
-51.13
-51.79
-53.03
-55.09
-57.73
-60.32
-62.35
-63.72
-64.95
-66.88
-70.00
-73.81
-76.62
-75.87
-69.27
-55.69
-35.90
-12.32
11.82
33.59
51.08
63.64
71.31
74.37
73.03
67.61
58.84
48.05
36.95
26.98
18.85
12.33
6.53
0.50
-6.35
-13.94
-21.78
-29.29
-36.25
-42.85
-49.64
-57.16
-65.66
-75.06
-84.93
-94.66
-103.79
-112.07
-119.63
-126.84
-134.07
-141.40
-148.24
-153.15
-153.99
-148.41
-134.64
-112.19
-82.23
-47.40
-11.09
23.42
53.71
78.45
97.23
110.28
118.22
122.02
123.04
122.91
123.15
124.54
126.65
127.69
124.92
115.47
97.33
70.14
35.36
-4.09
-44.68
-83.03
-116.59
-143.72
-163.68
-176.25
-181.40
-179.03
-169.08
-151.73
-127.97
-100.00
-71.19
-45.54
-26.41
-15.14
-10.27
-7.81
-2.69
9.33
30.15
58.83
92.09
125.36
154.06
174.60
184.98
185.20
177.33
165.40
154.58
149.74
153.66
165.55
181.31
194.95
200.83
195.74
179.80
155.97
128.23
99.74
71.20
41.80
10.45
-22.83
-55.86
-84.51
-104.02
-110.80
-104.22
-87.29
-64.31
-38.57
-11.42
17.40
47.82
78.25
105.27
126.29
137.02
133.98
115.76
83.61
41.54
-4.57
-48.24
-85.22
-111.95
-129.41
-142.13
-155.43
-172.58
-192.52
-211.29
-224.50
-229.38
-225.53
-214.71
-198.60
-177.49
-150.42
-116.67
-77.49
-36.00
3.66
37.43
62.37
77.87
85.65
89.04
91.69
96.42
104.48
115.34
127.11
137.13
143.24
144.59
141.75
136.32
130.22
124.89
120.89
117.83
114.57
109.82
102.64
92.58
79.87
65.41
50.57
36.94
25.72
17.35
11.31
6.47
1.43
-4.94
-13.10
-22.80
-33.23
-43.17
-51.22
-56.12
-57.12
-54.59
-50.06
-45.78
-43.86
-45.25
-49.28
-53.94
-56.65
-55.29
-48.88
-37.67
-22.80
-5.74
12.08
29.47
45.52
59.65
71.69
81.87
90.76
99.44
109.43
122.71
141.26
166.26
197.36
232.57
268.67
302.19
330.28
350.98
363.04
365.42
357.14
337.58
307.15
267.68
222.23
174.34
127.26
83.61
45.63
15.67
-3.92
-11.46
-7.08
6.77
25.62
44.33
58.69
66.49
67.49
62.46
51.99
35.89
13.48
-15.52
-49.99
-87.04
-122.49
-151.83
-171.51
-179.93
-177.88
-168.15
-154.75
-141.66
-131.92
-127.11
-127.53
-132.82
-142.47
-156.12
-173.41
-193.77
-216.19
-239.43
-262.20
-283.17
-300.60
-311.99
-314.21
-304.49
-281.53
-246.52
-203.20
-157.00
-113.57
-77.48
-51.50
-36.64
-32.61
-38.09
-50.82
-67.67
-84.98
-99.15
-107.55
-109.17
-104.49
-95.06
-82.56
-68.23
-52.61
-35.72
-17.62
1.03
18.87
34.09
44.92
50.30
50.21
45.77
39.08
32.88
29.93
32.37
41.18
55.75
74.08
93.34
110.67
123.97
132.34
135.90
135.51
132.27
127.10
120.73
113.78
106.80
100.26
94.41
89.14
84.04
78.52
72.16
64.82
56.90
49.11
42.25
36.91
33.18
30.63
28.47
25.80
21.87
16.23
8.71
-0.52
-10.89
-21.34
-30.24
-35.64
-35.84
-29.92
-18.36
-3.02
13.42
28.35
39.95
47.67
51.95
53.70
53.74
52.44
49.85
45.97
41.00
35.39
29.73
24.53
20.01
16.09
12.49
8.90
5.08
0.98
-3.34
-7.73
-12.05
-16.25
-20.35
-24.47
-28.74
-33.31
-38.35
-44.06
-50.57
-57.77
-65.00
-70.98
-73.91
-72.00
-64.14
-50.56
-32.87
-13.69
4.29
19.12
29.99
37.22
41.59
43.89
44.48
43.42
40.66
36.45
31.37
26.22
21.78
18.41
15.94
13.80
11.26
7.80
3.33
-1.83
-7.11
-12.00
-16.31
-20.20
-24.02
-28.19
-33.03
-38.70
-45.26
-52.58
-60.23
-67.31
-72.36
-73.66
-69.87
-60.47
-46.23
-29.04
-11.40
4.39
16.82
25.41
30.52
32.86
33.18
31.98
29.56
26.19
22.21
18.11
14.41
11.54
9.71
8.85
8.72
8.94
9.16
9.09
8.56
7.45
5.69
3.24
0.01
-4.00
-8.75
-14.06
-19.77
-25.75
-32.04
-38.70
-45.68
-52.40
-57.66
-59.80
-57.13
-48.70
-34.76
-16.85
2.64
21.16
36.79
48.57
56.46
60.99
62.85
62.59
60.65
57.39
53.23
48.72
44.38
40.55
37.31
34.46
31.66
28.73
25.67
22.70
20.04
17.67
15.23
12.08
7.64
1.63
-5.68
-13.59
-21.23
-27.84
-33.14
-37.39
-41.23
-45.48
-50.86
-57.52
-64.89
-71.56
-75.56
-74.91
-68.34
-55.81
-38.66
-19.29
-0.34
16.03
28.64
37.28
42.41
44.67
44.65
42.80
39.59
35.68
31.78
28.59
26.48
25.38
24.84
24.20
22.90
20.72
17.86
14.76
11.93
9.67
7.87
6.04
3.57
-0.06
-4.95
-10.69
-16.51
-21.60
-25.42
-27.97
-29.70
-31.35
-33.67
-37.14
-41.73
-46.82
-51.19
-53.15
-51.00
-43.41
-30.13
-12.14
8.46
29.00
47.10
61.16
70.64
75.84
77.63
76.90
74.43
70.82
66.60
62.22
58.13
54.66
52.02
50.31
49.53
49.61
50.48
51.96
53.76
55.45
56.52
56.53
55.29
52.94
50.07
47.46
45.82
45.59
46.71
48.64
50.60
51.80
51.83
50.94
50.22
51.37
56.33
66.58
82.42
102.66
124.82
145.87
163.25
175.75
183.72
188.70
192.36
195.46
197.23
195.68
188.42
173.84
151.66
122.93
89.53
53.58
17.15
-17.74
-49.15
-75.47
-96.03
-111.65
-124.53
-137.51
-152.76
-170.78
-190.10
-208.00
-221.66
-229.22
-230.29
-225.76
-217.28
-206.68
-195.74
-185.92
-178.32
-173.44
-170.86
-169.19
-166.30
-159.85
-148.16
-130.70
-108.25
-82.65
-56.17
-30.89
-8.43
10.23
24.57
34.44
40.17
42.57
42.91
42.57
42.41
42.13
39.99
33.33
19.60
-2.25
-30.99
-63.21
-94.60
-121.57
-142.41
-157.49
-168.28
-176.05
-180.95
-182.09
-178.36
-169.53
-156.76
-142.27
-128.56
-117.43
-109.50
-104.16
-99.97
-94.99
-87.35
-75.77
-60.19
-42.03
-24.08
-9.64
-1.33
-0.03
-4.59
-12.52
-21.10
-28.54
-34.53
-39.91
-45.88
-53.15
-61.34
-69.08
-74.56
-76.31
-73.65
-66.92
-57.09
-45.22
-32.21
-18.88
-6.23
4.31
11.15
13.06
9.64
1.55
-9.70
-22.48
-35.57
-48.37
-60.71
-72.27
-82.05
-88.49
-89.38
-82.14
-64.73
-35.87
4.42
54.70
112.19
173.70
235.19
292.51
341.67
377.91
396.59
394.12
369.34
324.63
266.92
204.36
144.90
94.50
54.49
22.62
-5.20
-33.05
-63.61
-96.06
-129.73
-163.59
-196.10
-227.62
-259.41
-293.36
-331.39
-374.42
-419.76
-464.91
-506.99
-530.68
-523.26
-477.41
-394.75
-286.49
-181.25
-91.27
-21.02
29.41
62.93
84.60
98.66
109.21
119.10
128.94
138.52
143.38
137.98
119.10
86.20
42.88
-3.46
-43.69
-69.26
-73.13
-54.22
-16.24
34.72
91.52
148.33
201.69
249.69
291.20
325.96
352.50
369.35
376.21
373.88
364.09
349.07
330.81
310.91
290.82
270.71
249.56
225.68
197.35
164.09
127.64
91.89
61.82
41.74
33.19
34.44
41.44
49.62
55.60
58.04
57.19
53.92
48.79
41.85
33.03
22.84
12.46
3.56
-2.48
-5.25
-5.51
-4.98
-5.54
-8.40
-13.63
-20.28
-26.78
-31.83
-34.96
-36.66
-38.19
-40.91
-45.59
-52.09
-59.44
-66.22
-71.16
-73.63
-73.83
-72.68
-71.52
-71.54
-73.42
-77.00
-81.24
-84.38
-84.38
-79.49
-68.92
-53.11
-33.78
-13.30
5.87
21.89
33.83
41.55
45.40
45.93
43.71
39.40
33.75
27.64
21.92
17.19
13.69
11.24
9.44
7.84
6.13
4.16
1.97
-0.37
-2.89
-5.69
-8.98
-12.86
-17.33
-22.14
-26.92
-31.30
-35.09
-38.43
-41.73
-45.62
-50.62
-56.84
-63.60
-69.33
-71.86
-69.02
-59.48
-43.31
-22.18
1.03
23.15
41.61
54.99
63.16
66.84
67.09
64.90
61.00
55.97
50.44
44.99
40.17
36.27
33.23
30.69
28.20
25.49
22.54
19.61
16.93
14.51
12.09
9.17
5.26
0.15
-5.98
-12.64
-19.12
-24.81
-29.41
-32.98
-35.99
-39.21
-43.41
-49.02
-55.70
-62.03
-65.81
-64.50
-56.27
-40.83
-19.69
4.08
26.93
45.90
59.49
67.73
71.75
72.99
72.53
70.91
68.28
64.82
60.97
57.46
55.06
54.31
55.25
57.42
60.01
62.25
63.62
64.04
63.72
63.08
62.61
62.93
64.89
69.70
78.52
91.85
108.86
127.18
143.44
154.41
158.07
153.95
142.70
125.19
101.88
72.73
37.76
-2.30
-45.89
-90.80
-134.65
-175.27
-210.65
-238.74
-257.52
-265.53
-262.48
-249.88
-230.93
-209.72
-190.19
-175.01
-164.90
-158.67
-153.92
-147.87
-138.50
-125.09
-108.33
-89.95
-72.03
-56.44
-44.38
-36.20
-31.60
-29.91
-30.39
-32.46
-35.81
-40.23
-45.46
-51.17
-56.91
-62.35
-67.52
-72.81
-78.79
-85.77
-93.31
-100.04
-103.88
-102.59
-94.52
-79.29
-58.00
-32.98
-7.26
16.34
35.78
50.13
59.52
64.70
66.77
66.73
65.33
63.11
60.46
57.76
55.34
53.37
51.81
50.39
48.81
46.89
44.74
42.57
40.47
38.19
35.12
30.50
23.84
15.27
5.63
-3.67
-11.11
-15.55
-16.55
-14.52
-10.71
-6.67
-3.82
-2.89
-3.65
-5.02
-5.54
-3.93
0.41
7.16
15.37
23.80
31.41
37.64
42.44
45.99
48.53
50.06
50.42
49.44
47.11
43.70
39.80
36.01
32.78
30.24
28.33
26.88
25.90
25.43
25.42
25.73
25.98
25.78
24.94
23.59
22.05
20.64
19.47
18.33
16.78
14.25
10.36
4.95
-1.66
-8.69
-14.81
-18.37
-17.79
-12.02
-1.09
13.89
30.92
47.65
62.01
72.66
79.05
81.29
79.97
75.81
69.65
62.32
54.52
46.86
39.74
33.32
27.58
22.48
17.96
14.07
10.92
8.65
7.29
6.72
6.54
6.08
4.54
1.28
-3.91
-10.69
-18.26
-25.61
-31.88
-36.63
-39.94
-42.33
-44.58
-47.39
-51.03
-55.11
-58.35
-58.96
-55.03
-45.37
-30.02
-10.49
10.70
30.76
47.54
60.09
68.54
73.75
76.62
77.64
76.85
74.28
70.28
65.64
61.31
57.77
54.75
51.41
46.89
41.09
34.80
29.22
25.09
22.09
18.93
14.19
7.18
-1.76
-11.57
-21.26
-30.40
-39.08
-47.44
-55.11
-61.30
-65.08
-66.04
-64.43
-60.91
-56.01
-49.72
-41.46
-30.18
-14.52
6.74
34.00
66.11
99.90
130.64
153.52
165.43
166.31
158.97
147.67
136.04
125.64
115.93
105.34
92.86
78.82
64.77
52.31
42.20
34.05
26.75
19.35
11.53
3.82
-2.93
-8.13
-11.95
-15.31
-19.44
-25.24
-32.81
-41.36
-49.51
-55.90
-59.85
-61.54
-61.96
-62.47
-64.26
-67.88
-72.90
-77.84
-80.58
-79.05
-71.94
-59.30
-42.66
-24.58
-7.79
5.58
14.54
19.23
20.44
19.16
16.26
12.41
8.12
3.95
0.37
-2.24
-3.80
-4.51
-4.72
-4.80
-4.97
-5.24
-5.50
-5.68
-5.83
-6.22
-7.21
-9.08
-11.94
-15.57
-19.57
-23.45
-26.80
-29.47
-31.64
-33.75
-36.31
-39.67
-43.69
-47.54
-49.79
-48.85
-43.54
-33.72
-20.49
-5.85
7.89
18.87
26.24
30.13
31.26
30.49
28.51
25.74
22.48
19.05
15.81
13.12
11.08
9.57
8.27
6.89
5.32
3.69
2.27
1.24
0.52
-0.30
-1.73
-4.21
-7.85
-12.35
-17.18
-21.77
-25.74
-28.94
-31.57
-33.99
-36.67
-40.06
-44.34
-49.19
-53.61
-56.04
-54.77
-48.61
-37.48
-22.57
-6.10
9.50
22.26
31.19
36.30
38.21
37.69
35.46
32.02
27.86
23.55
19.71
16.82
15.04
14.20
13.79
13.27
12.25
10.66
8.76
6.99
5.64
4.68
3.76
2.26
-0.38
-4.41
-9.68
-15.71
-21.80
-27.31
-31.85
-35.31
-37.87
-40.00
-42.30
-45.39
-49.53
-54.35
-58.66
-60.75
-58.84
-51.82
-39.80
-24.15
-7.14
8.78
21.69
30.66
35.70
37.41
36.61
34.00
30.13
25.52
20.75
16.48
13.31
11.54
11.05
11.25
11.44
11.07
10.00
8.54
7.16
6.20
5.62
4.97
3.60
0.98
-3.10
-8.32
-14.02
-19.46
-24.04
-27.55
-30.18
-32.41
-34.85
-38.04
-42.21
-47.13
-52.14
-56.01
-57.26
-54.49
-46.91
-34.69
-19.20
-2.63
12.66
24.78
32.91
37.22
38.57
37.87
35.84
32.84
29.11
25.05
21.20
18.22
16.44
15.79
15.71
15.54
14.78
13.42
11.75
10.21
9.00
7.88
6.32
3.73
-0.20
-5.41
-11.34
-17.27
-22.53
-26.67
-29.67
-31.87
-33.92
-36.49
-40.09
-44.69
-49.48
-52.95
-53.25
-48.86
-39.25
-25.18
-8.59
8.00
22.29
32.84
39.32
42.25
42.59
41.25
38.82
35.65
32.05
28.40
25.25
23.05
22.00
21.84
21.99
21.72
20.53
18.40
15.72
13.14
11.15
9.82
8.76
7.24
4.57
0.42
-5.00
-11.01
-16.77
-21.61
-25.27
-27.96
-30.22
-32.76
-36.12
-40.60
-46.03
-51.66
-56.13
-57.75
-54.90
-46.69
-33.43
-16.69
1.08
17.33
30.16
38.79
43.45
44.99
44.41
42.45
39.55
35.98
32.04
28.16
24.84
22.48
21.24
20.91
20.93
20.68
19.63
17.66
15.10
12.53
10.52
9.28
8.52
7.57
5.72
2.54
-1.96
-7.27
-12.68
-17.57
-21.65
-24.96
-27.90
-30.86
-34.27
-38.46
-43.53
-49.28
-54.97
-59.31
-60.53
-56.97
-47.68
-33.08
-14.95
3.97
20.91
33.84
41.96
45.59
45.67
43.30
39.37
34.54
29.42
24.61
20.67
18.00
16.63
16.22
16.20
15.95
15.07
13.48
11.46
9.49
7.99
7.07
6.40
5.30
3.01
-0.89
-6.30
-12.54
-18.60
-23.59
-27.08
-29.21
-30.55
-31.80
-33.62
-36.43
-40.37
-45.24
-50.35
-54.46
-55.96
-53.33
-45.65
-33.22
-17.48
-0.74
14.56
26.61
34.58
38.63
39.48
38.07
35.16
31.33
27.08
22.92
19.38
16.91
15.64
15.38
15.61
15.75
15.43
14.59
13.44
12.32
11.43
10.67
9.70
8.02
5.20
1.12
-3.98
-9.55
-14.84
-19.24
-22.45
-24.63
-26.39
-28.59
-32.02
-36.99
-43.10
-49.15
-53.31
-53.70
-49.00
-39.01
-24.77
-8.37
7.75
21.49
31.63
37.93
40.92
41.42
40.20
37.84
34.76
31.34
28.03
25.27
23.35
22.27
21.71
21.20
20.27
18.72
16.64
14.36
12.25
10.56
9.18
7.72
5.69
2.66
-1.53
-6.70
-12.33
-17.77
-22.42
-25.97
-28.50
-30.42
-32.39
-35.11
-39.07
-44.24
-49.87
-54.48
-56.24
-53.48
-45.44
-32.59
-16.61
0.09
15.15
26.91
34.76
39.02
40.51
40.08
38.31
35.61
32.25
28.63
25.26
22.64
21.01
20.28
20.00
19.55
18.50
16.75
14.54
12.36
10.56
9.25
8.18
6.91
4.94
1.86
-2.46
-7.93
-14.08
-20.29
-25.83
-30.09
-32.77
-34.04
-34.52
-35.02
-36.36
-39.02
-42.96
-47.36
-50.83
-51.63
-48.19
-39.70
-26.46
-10.00
7.37
23.18
35.61
43.83
47.97
48.84
47.42
44.55
40.84
36.71
32.56
28.79
25.71
23.44
21.85
20.58
19.26
17.63
15.66
13.53
11.55
10.02
9.01
8.46
8.01
7.25
5.74
3.23
-0.34
-4.74
-9.55
-14.31
-18.62
-22.32
-25.42
-28.13
-30.82
-33.88
-37.64
-42.22
-47.43
-52.61
-56.63
-58.05
-55.54
-48.35
-36.67
-21.77
-5.66
9.48
21.91
30.70
35.80
37.80
37.54
35.77
33.11
30.00
26.85
24.07
22.00
20.85
20.58
20.91
21.43
21.72
21.50
20.75
19.66
18.45
17.22
15.82
13.86
10.88
6.62
1.19
-4.86
-10.80
-15.93
-19.80
-22.46
-24.29
-25.94
-28.07
-31.19
-35.46
-40.58
-45.75
-49.62
-50.65
-47.52
-39.65
-27.55
-12.80
2.39
15.85
26.00
32.22
34.81
34.56
32.43
29.18
25.31
21.20
17.22
13.77
11.19
9.67
9.11
9.15
9.33
9.26
8.82
8.10
7.24
6.35
5.27
3.68
1.29
-1.98
-5.99
-10.30
-14.46
-18.15
-21.24
-23.89
-26.48
-29.43
-33.08
-37.49
-42.14
-46.01
-47.65
-45.69
-39.38
-28.98
-15.83
-2.01
10.38
19.72
25.32
27.33
26.47
23.60
19.54
15.03
10.69
7.14
4.85
4.04
4.55
5.94
7.57
8.97
9.93
10.57
11.13
11.77
12.41
12.69
12.13
10.30
7.05
2.55
-2.76
-8.30
-13.54
-18.13
-21.98
-25.32
-28.63
-32.38
-36.78
-41.54
-45.65
-47.65
-46.02
-39.80
-28.97
-14.68
1.09
16.09
28.42
37.03
41.78
43.23
42.22
39.56
35.85
31.54
27.04
22.82
19.28
16.68
14.97
13.88
12.93
11.76
10.24
8.54
7.02
6.00
5.58
5.45
5.11
3.96
1.62
-1.95
-6.38
-11.11
-15.52
-19.23
-22.16
-24.51
-26.68
-29.10
-32.17
-36.05
-40.51
-44.77
-47.59
-47.56
-43.52
-35.10
-22.94
-8.63
5.77
18.35
27.92
34.14
37.35
38.24
37.46
35.47
32.63
29.30
25.92
23.00
21.00
20.11
20.21
20.91
21.68
22.09
21.94
21.34
20.50
19.67
18.88
17.88
16.23
13.58
9.84
5.28
0.54
-3.73
-7.04
-9.36
-10.97
-12.41
-14.23
-16.82
-20.34
-24.65
-29.21
-33.02
-34.76
-33.03
-26.86
-16.18
-1.99
13.86
29.15
42.03
51.43
57.17
59.85
60.41
59.74
58.45
56.89
55.18
53.26
50.94
47.88
43.59
37.48
29.05
18.20
5.32
-8.71
-22.89
-36.38
-48.88
-60.60
-72.08
-83.76
-95.57
-106.89
-116.74
-124.14
-128.46
-129.73
-128.44
-125.44
-121.56
-117.48
-113.61
-109.94
-106.02
-100.92
-93.55
-83.00
-69.03
-52.36
-34.52
-17.37
-2.48
9.39
18.39
25.15
30.49
34.98
38.91
42.42
45.73
49.20
53.25
58.21
64.12
70.62
76.98
82.27
85.62
86.50
84.89
81.29
76.57
71.65
67.17
63.38
60.11
57.09
54.08
51.07
48.26
45.81
43.64
41.29
38.00
33.05
26.13
17.80
9.49
3.27
1.28
4.95
14.43
28.45
44.56
59.89
72.00
79.58
82.65
82.26
79.90
76.83
73.69
70.47
66.74
62.01
56.08
49.09
41.63
34.49
28.45
24.02
21.23
19.70
18.78
17.81
16.33
14.12
11.04
6.86
1.18
-6.42
-16.08
-27.38
-39.25
-50.35
-59.38
-65.56
-68.82
-69.69
-69.06
-67.81
-66.55
-65.51
-64.56
-63.30
-61.19
-57.71
-52.39
-45.04
-35.76
-25.03
-13.66
-2.66
7.02
14.68
19.88
22.54
22.83
21.11
17.94
13.93
9.78
6.10
3.32
1.59
0.79
0.54
0.45
0.17
-0.38
-1.12
-1.80
-2.28
-2.57
-2.88
-3.57
-4.91
-6.93
-9.42
-11.92
-13.92
-14.98
-14.75
-13.03
-9.75
-5.08
0.61
6.83
13.17
19.48
25.91
32.72
40.00
47.45
54.33
59.69
62.78
63.24
61.12
56.74
50.35
42.18
32.51
21.87
11.19
1.58
-5.93
-10.72
-12.75
-12.53
-10.84
-8.41
-5.79
-3.22
-0.68
1.97
4.91
8.21
11.71
14.93
17.20
17.83
16.40
13.00
8.12
2.61
-2.74
-7.45
-11.47
-15.16
-19.07
-23.64
-28.96
-34.75
-40.26
-44.50
-46.43
-45.33
-41.11
-34.42
-26.51
-18.84
-12.75
-8.95
-7.49
-7.83
-9.21
-10.87
-12.34
-13.33
-13.77
-13.62
-12.97
-11.96
-10.94
-10.34
-10.62
-11.97
-14.34
-17.33
-20.32
-22.75
-24.33
-25.18
-25.79
-26.89
-29.13
-32.83
-37.91
-43.85
-49.87
-55.16
-59.21
-61.83
-63.26
-64.03
-64.70
-65.70
-67.03
-68.25
-68.44
-66.54
-61.64
-53.35
-42.06
-28.80
-15.12
-2.55
7.68
14.94
19.18
20.85
20.58
19.00
16.60
13.75
10.84
8.32
6.58
5.88
6.16
7.06
8.00
8.53
8.47
7.99
7.45
7.11
6.90
6.41
5.14
2.65
-1.05
-5.66
-10.56
-15.15
-18.98
-21.86
-23.90
-25.44
-26.96
-29.00
-31.96
-35.84
-40.10
-43.68
-45.21
-43.45
-37.73
-28.27
-16.14
-2.98
9.42
19.64
26.93
31.18
32.83
32.59
31.15
29.10
26.88
24.81
23.16
22.09
21.63
21.60
21.66
21.44
20.70
19.43
17.81
16.15
14.66
13.31
11.83
9.82
6.96
3.19
-1.25
-5.85
-10.11
-13.68
-16.50
-18.81
-21.01
-23.59
-26.87
-30.91
-35.40
-39.62
-42.50
-42.83
-39.70
-32.77
-22.56
-10.33
2.28
13.65
22.71
29.03
32.79
34.49
34.70
33.92
32.53
30.88
29.28
28.07
27.44
27.44
27.90
28.52
28.91
28.83
28.20
27.11
25.84
24.59
23.47
22.35
20.98
19.03
16.27
12.68
8.50
4.17
0.12
-3.31
-6.05
-8.30
-10.47
-13.07
-16.47
-20.77
-25.62
-30.22
-33.44
-34.10
-31.30
-24.79
-15.08
-3.41
8.56
19.26
27.57
33.07
36.02
37.04
36.81
35.82
34.36
32.57
30.68
28.96
27.70
26.96
26.55
26.03
24.97
23.22
20.95
18.65
16.80
15.61
14.91
14.18
12.86
10.56
7.26
3.26
-0.96
-4.95
-8.46
-11.52
-14.35
-17.26
-20.52
-24.28
-28.51
-32.89
-36.87
-39.60
-40.09
-37.46
-31.25
-21.67
-9.66
3.27
15.52
25.71
33.10
37.53
39.35
39.08
37.29
34.41
30.85
27.05
23.44
20.39
18.13
16.65
15.70
14.96
14.11
13.00
11.76
10.58
9.61
8.80
7.86
6.34
3.88
0.39
-3.86
-8.29
-12.25
-15.33
-17.47
-19.05
-20.74
-23.20
-26.73
-31.10
-35.43
-38.44
-38.83
-35.71
-28.94
-19.15
-7.56
4.42
15.54
24.87
31.85
36.29
38.27
38.07
36.21
33.34
30.14
27.13
24.63
22.70
21.27
20.16
19.18
18.17
17.03
15.71
14.27
12.77
11.28
9.76
8.08
6.01
3.34
-0.05
-4.12
-8.61
-13.18
-17.45
-21.15
-24.22
-26.82
-29.32
-32.14
-35.54
-39.41
-43.13
-45.67
-45.85
-42.71
-35.87
-25.70
-13.33
-0.29
11.86
21.97
29.44
34.30
36.93
37.85
37.47
36.07
33.80
30.94
27.85
24.96
22.67
21.18
20.41
20.04
19.63
18.85
17.54
15.79
13.77
11.69
9.59
7.37
4.79
1.63
-2.23
-6.68
-11.43
-16.05
-20.13
-23.40
-25.81
-27.57
-29.08
-30.83
-33.25
-36.49
-40.36
-44.20
-47.04
-47.76
-45.42
-39.55
-30.37
-18.77
-6.10
6.21
16.91
25.22
30.83
33.86
34.65
33.69
31.47
28.49
25.18
21.92
19.01
16.65
14.91
13.71
12.91
12.28
11.69
11.09
10.54
10.13
9.88
9.67
9.21
8.13
6.12
3.14
-0.62
-4.71
-8.62
-11.96
-14.57
-16.54
-18.18
-19.87
-21.94
-24.54
-27.54
-30.38
-32.20
-32.00
-28.87
-22.46
-13.04
-1.57
10.58
21.97
31.46
38.42
42.70
44.49
44.17
42.20
39.06
35.28
31.41
27.94
25.22
23.38
22.28
21.59
20.95
20.10
18.95
17.64
16.33
15.06
13.74
12.10
9.78
6.58
2.50
-2.27
-7.39
-12.47
-17.19
-21.32
-24.79
-27.71
-30.38
-33.21
-36.50
-40.30
-44.17
-47.24
-48.39
-46.57
-41.29
-32.74
-21.91
-10.19
0.96
10.41
17.57
22.39
25.13
26.21
25.95
24.63
22.51
19.96
17.41
15.28
13.81
12.95
12.40
11.73
10.58
8.80
6.50
3.92
1.31
-1.21
-3.66
-6.14
-8.82
-11.81
-15.12
-18.66
-22.24
-25.59
-28.48
-30.74
-32.39
-33.62
-34.81
-36.34
-38.56
-41.49
-44.79
-47.66
-48.95
-47.49
-42.45
-33.72
-21.98
-8.63
4.66
16.28
25.14
30.79
33.38
33.46
31.79
29.11
26.04
23.01
20.30
18.01
16.28
15.11
14.46
14.18
14.09
14.03
13.93
13.74
13.47
13.10
12.51
11.54
10.04
7.87
5.04
1.65
-2.12
-6.00
-9.71
-12.99
-15.73
-17.95
-19.89
-21.86
-24.20
-27.10
-30.52
-34.15
-37.35
-39.27
-38.93
-35.62
-29.06
-19.63
-8.36
3.36
14.05
22.60
28.40
31.40
31.95
30.57
27.80
24.16
20.19
16.40
13.20
10.89
9.39
8.43
7.59
6.54
5.18
3.65
2.25
1.11
0.17
-0.98
-2.80
-5.67
-9.74
-14.81
-20.46
-26.22
-31.75
-36.92
-41.80
-46.56
-51.45
-56.72
-62.59
-69.08
-76.00
-82.78
-88.69
-93.01
-95.32
-95.82
-95.37
-95.15
-96.17
-98.74
-102.21
-105.08
-105.41
-101.37
-91.72
-76.07
-54.89
-29.35
-1.14
27.85
55.66
80.45
100.81
115.79
125.14
129.27
129.13
125.95
120.92
114.91
108.31
101.17
93.35
84.79
75.71
66.51
57.73
49.73
42.66
36.33
30.35
24.26
17.67
10.47
2.88
-4.47
-10.60
-14.38
-14.82
-11.42
-4.40
5.24
15.95
26.01
34.02
39.21
41.52
41.42
39.63
36.86
33.71
30.57
27.65
25.13
23.13
21.68
20.74
20.06
19.40
18.49
17.24
15.65
13.86
11.98
10.01
7.81
5.11
1.66
-2.58
-7.44
-12.51
-17.27
-21.28
-24.35
-26.57
-28.35
-30.20
-32.60
-35.84
-39.79
-43.96
-47.42
-49.08
-47.91
-43.25
-35.10
-24.20
-11.88
0.30
10.96
19.19
24.72
27.80
28.97
28.77
27.64
25.85
23.63
21.22
18.92
17.08
15.85
15.22
14.93
14.65
14.13
13.33
12.41
11.59
11.02
10.62
10.02
8.75
6.45
3.00
-1.35
-6.08
-10.61
-14.52
-17.61
-20.05
-22.20
-24.46
-27.13
-30.29
-33.70
-36.81
-38.81
-38.74
-35.82
-29.71
-20.73
-9.89
1.42
11.77
20.06
25.75
28.88
29.83
29.18
27.45
25.12
22.61
20.28
18.42
17.16
16.50
16.32
16.38
16.49
16.47
16.24
15.76
14.97
13.81
12.12
9.79
6.71
2.95
-1.31
-5.78
-10.13
-14.15
-17.75
-21.03
-24.26
-27.71
-31.57
-35.76
-39.86
-43.08
-44.47
-43.05
-38.26
-30.13
-19.49
-7.65
3.86
13.73
21.25
26.29
29.21
30.50
30.67
30.07
29.00
27.79
26.70
25.97
25.62
25.51
25.33
24.78
23.72
22.13
20.12
17.88
15.54
13.10
10.41
7.24
3.34
-1.35
-6.67
-12.15
-17.18
-21.25
-24.12
-25.99
-27.33
-28.81
-30.95
-34.00
-37.78
-41.72
-44.91
-46.29
-44.89
-40.10
-31.99
-21.26
-9.21
2.68
13.20
21.59
27.69
31.70
34.01
34.95
34.75
33.59
31.68
29.37
27.07
25.19
23.89
23.14
22.64
22.01
20.92
19.22
17.04
14.66
12.41
10.46
8.72
6.94
4.79
2.03
-1.33
-5.02
-8.73
-12.10
-14.90
-17.13
-18.86
-20.27
-21.59
-23.13
-25.17
-27.92
-31.29
-34.79
-37.51
-38.38
-36.44
-31.23
-23.03
-12.75
-1.70
8.78
17.67
24.36
28.75
31.00
31.46
30.52
28.61
26.14
23.56
21.30
19.60
18.59
18.17
18.10
18.14
18.09
17.85
17.41
16.82
16.11
15.28
14.26
12.99
11.32
9.09
6.17
2.52
-1.70
-6.18
-10.52
-14.35
-17.49
-19.99
-22.11
-24.26
-26.84
-30.06
-33.83
-37.68
-40.81
-42.23
-41.05
-36.77
-29.48
-19.91
-9.28
1.03
9.81
16.28
20.18
21.74
21.49
20.04
17.98
15.75
13.70
12.05
10.90
10.28
10.06
10.02
9.93
9.61
9.04
8.30
7.58
6.98
6.47
5.83
4.67
2.64
-0.47
-4.57
-9.31
-14.17
-18.62
-22.32
-25.24
-27.56
-29.70
-32.06
-34.88
-38.06
-41.06
-43.02
-42.91
-39.91
-33.69
-24.57
-13.53
-1.94
8.85
17.73
24.13
27.98
29.65
29.72
28.76
27.25
25.51
23.72
21.99
20.44
19.17
18.25
17.65
17.24
16.81
16.16
15.25
14.15
13.03
12.02
11.11
10.06
8.52
6.13
2.76
-1.41
-5.95
-10.31
-14.03
-16.91
-19.03
-20.76
-22.54
-24.79
-27.72
-31.21
-34.79
-37.64
-38.78
-37.28
-32.59
-24.77
-14.54
-3.09
8.21
18.16
25.98
31.37
34.40
35.42
34.83
33.06
30.51
27.59
24.69
22.12
20.05
18.48
17.28
16.21
15.04
13.59
11.86
9.94
8.02
6.27
4.81
3.57
2.36
0.92
-1.00
-3.48
-6.45
-9.66
-12.85
-15.81
-18.44
-20.81
-23.06
-25.38
-27.96
-30.94
-34.35
-37.97
-41.22
-43.22
-42.93
-39.57
-32.86
-23.30
-11.99
-0.37
10.20
18.74
24.77
28.29
29.53
28.92
26.89
23.90
20.46
17.01
13.95
11.51
9.78
8.73
8.18
7.98
7.91
7.84
7.72
7.52
7.28
6.98
6.55
5.85
4.70
2.95
0.52
-2.48
-5.83
-9.23
-12.42
-15.19
-17.53
-19.57
-21.63
-24.06
-27.11
-30.76
-34.58
-37.73
-39.18
-37.94
-33.48
-25.92
-16.04
-5.13
5.42
14.47
21.33
25.77
27.97
28.30
27.20
25.12
22.48
19.70
17.17
15.20
13.91
13.25
12.96
12.73
12.27
11.49
10.45
9.37
8.38
7.49
6.49
5.04
2.86
-0.17
-3.95
-8.17
-12.45
-16.42
-19.85
-22.59
-24.69
-26.37
-27.96
-29.86
-32.27
-35.00
-37.35
-38.22
-36.45
-31.32
-22.81
-11.74
0.48
12.25
22.25
29.65
34.24
36.26
36.18
34.55
31.90
28.70
25.42
22.47
20.18
18.69
17.89
17.47
16.99
16.14
14.83
13.28
11.82
10.71
10.02
9.48
8.67
7.11
4.54
0.92
-3.45
-8.10
-12.49
-16.18
-18.99
-20.98
-22.51
-24.11
-26.38
-29.67
-33.90
-38.45
-42.23
-43.91
-42.35
-36.97
-28.04
-16.59
-4.14
7.71
17.71
25.14
29.87
32.19
32.62
31.70
29.95
27.74
25.36
23.02
20.88
19.08
17.73
16.87
16.42
16.22
16.01
15.55
14.65
13.31
11.66
9.85
8.00
6.05
3.83
1.16
-2.09
-5.81
-9.78
-13.63
-17.11
-20.09
-22.65
-24.99
-27.37
-30.04
-33.19
-36.88
-40.96
-45.02
-48.31
-49.85
-48.70
-44.18
-36.16
-25.27
-12.74
-0.15
10.99
19.64
25.43
28.65
30.02
30.28
30.00
29.45
28.66
27.62
26.37
25.04
23.78
22.66
21.71
20.85
20.05
19.28
18.56
17.90
17.23
16.50
15.56
14.27
12.44
9.91
6.63
2.64
-1.79
-6.38
-10.79
-14.83
-18.47
-21.82
-25.00
-28.11
-31.27
-34.56
-38.11
-41.91
-45.72
-48.89
-50.43
-49.21
-44.43
-35.93
-24.34
-11.08
2.13
13.75
22.68
28.52
31.41
31.83
30.38
27.74
24.55
21.43
18.91
17.31
16.69
16.82
17.28
17.61
17.54
16.96
15.95
14.71
13.40
12.05
10.59
8.82
6.51
3.56
0.01
-3.90
-7.78
-11.25
-14.06
-16.19
-17.87
-19.52
-21.61
-24.49
-28.32
-32.82
-37.32
-40.72
-41.83
-39.68
-33.87
-24.78
-13.54
-1.68
9.28
18.23
24.69
28.73
30.81
31.49
31.27
30.44
29.18
27.62
25.94
24.33
23.00
22.06
21.43
20.88
20.18
19.25
18.17
17.17
16.42
15.87
15.20
13.92
11.53
7.81
2.86
-2.82
-8.56
-13.74
-17.95
-21.12
-23.49
-25.55
-27.84
-30.81
-34.55
-38.70
-42.48
-44.77
-44.49
-40.87
-33.79
-23.86
-12.26
-0.45
10.26
18.99
25.39
29.59
31.98
33.05
33.21
32.78
31.99
31.00
29.89
28.67
27.32
25.82
24.19
22.45
20.71
19.06
17.56
16.25
15.06
13.90
12.64
11.16
9.26
6.79
3.60
-0.32
-4.86
-9.78
-14.73
-19.35
-23.37
-26.72
-29.58
-32.30
-35.32
-38.84
-42.74
-46.41
-48.90
-49.11
-46.20
-39.86
-30.46
-18.99
-6.77
4.84
14.81
22.46
27.65
30.52
31.46
30.94
29.44
27.41
25.26
23.36
21.95
21.11
20.73
20.52
20.13
19.31
17.97
16.23
14.27
12.29
10.34
8.39
6.31
3.98
1.33
-1.63
-4.84
-8.23
-11.68
-15.03
-18.09
-20.72
-22.94
-24.96
-27.15
-29.86
-33.29
-37.26
-41.18
-44.09
-44.91
-42.73
-37.15
-28.42
-17.45
-5.57
5.80
15.52
22.91
27.86
30.62
31.59
31.18
29.74
27.61
25.20
22.88
20.94
19.51
18.52
17.74
16.97
16.06
15.08
14.19
13.52
13.12
12.77
12.15
10.82
8.44
4.89
0.36
-4.67
-9.61
-13.86
-17.20
-19.70
-21.80
-24.11
-27.20
-31.27
-36.07
-40.91
-44.70
-46.35
-44.92
-39.97
-31.70
-20.93
-8.95
2.82
13.14
21.26
26.91
30.27
31.77
31.87
30.99
29.46
27.57
25.62
23.88
22.51
21.55
20.89
20.33
19.68
18.82
17.72
16.43
15.07
13.67
12.21
10.55
8.44
5.67
2.05
-2.30
-7.09
-11.84
-16.07
-19.49
-22.11
-24.27
-26.45
-29.15
-32.68
-36.98
-41.62
-45.74
-48.19
-47.84
-43.92
-36.27
-25.55
-13.04
-0.39
10.89
19.80
25.98
29.64
31.33
31.64
31.08
29.95
28.44
26.71
24.95
23.34
22.04
21.10
20.41
19.74
18.88
17.71
16.29
14.76
13.25
11.84
10.39
8.68
6.43
3.46
-0.25
-4.57
-9.25
-14.01
-18.53
-22.56
-25.94
-28.62
-30.75
-32.61
-34.63
-37.14
-40.24
-43.62
-46.49
-47.79
-46.43
-41.71
-33.59
-22.76
-10.48
1.71
12.40
20.62
25.99
28.66
29.14
28.05
26.00
23.47
20.81
18.37
16.41
15.12
14.56
14.56
14.80
15.00
14.97
14.75
14.50
14.37
14.29
14.02
13.18
11.46
8.74
5.23
1.35
-2.46
-5.87
-8.78
-11.27
-13.57
-15.93
-18.63
-21.85
-25.68
-29.94
-34.10
-37.26
-38.27
-36.15
-30.37
-21.25
-9.84
2.25
13.43
22.47
28.78
32.36
33.62
33.07
31.23
28.52
25.35
22.12
19.22
16.86
15.11
13.84
12.81
11.84
10.88
10.02
9.36
8.99
8.78
8.50
7.84
6.50
4.36
1.45
-1.96
-5.51
-8.82
-11.66
-14.02
-16.16
-18.54
-21.55
-25.39
-29.82
-34.10
-37.12
-37.71
-34.96
-28.60
-19.12
-7.66
4.25
15.16
24.01
30.33
34.24
36.19
36.79
36.54
35.77
34.64
33.22
31.58
29.85
28.14
26.47
24.76
22.84
20.55
17.84
14.86
11.87
9.17
6.91
4.95
2.96
0.48
-2.77
-6.78
-11.22
-15.58
-19.40
-22.46
-24.84
-26.88
-29.05
-31.69
-34.97
-38.74
-42.53
-45.59
-46.97
-45.73
-41.25
-33.45
-22.95
-10.95
1.06
11.76
20.22
26.07
29.41
30.63
30.24
28.69
26.41
23.76
21.12
18.78
16.98
15.82
15.23
15.02
14.82
14.28
13.16
11.41
9.24
7.00
4.95
3.17
1.46
-0.52
-3.07
-6.33
-10.12
-14.07
-17.71
-20.76
-23.15
-25.07
-26.84
-28.80
-31.22
-34.19
-37.51
-40.68
-42.90
-43.21
-40.75
-35.04
-26.25
-15.22
-3.35
7.91
17.36
24.38
28.95
31.40
32.19
31.73
30.32
28.23
25.80
23.37
21.27
19.66
18.42
17.30
16.02
14.46
12.68
10.92
9.39
8.27
7.52
6.94
6.22
4.97
2.90
-0.13
-3.99
-8.33
-12.67
-16.52
-19.67
-22.14
-24.25
-26.44
-29.01
-31.93
-34.73
-36.58
-36.43
-33.39
-27.07
-17.73
-6.29
5.89
17.36
26.92
33.79
37.80
39.14
38.30
35.91
32.60
28.97
25.52
22.56
20.25
18.58
17.32
16.19
14.93
13.38
11.60
9.79
8.18
6.90
5.84
4.63
2.84
0.14
-3.52
-7.87
-12.35
-16.44
-19.80
-22.41
-24.55
-26.66
-29.12
-32.15
-35.66
-39.22
-42.09
-43.36
-42.13
-37.79
-30.27
-20.13
-8.47
3.31
13.89
22.30
28.08
31.30
32.38
31.94
30.56
28.68
26.59
24.48
22.45
20.58
18.92
17.43
15.97
14.39
12.56
10.53
8.52
6.82
5.65
4.97
4.43
3.54
1.78
-1.10
-5.03
-9.59
-14.21
-18.43
-22.01
-24.98
-27.62
-30.29
-33.28
-36.77
-40.59
-44.27
-46.97
-47.67
-45.44
-39.69
-30.54
-18.77
-5.81
6.74
17.47
25.52
30.66
33.26
33.92
33.32
32.01
30.30
28.41
26.45
24.57
22.84
21.25
19.73
18.12
16.31
14.23
11.99
9.79
7.85
6.35
5.23
4.21
2.83
0.69
-2.42
-6.35
-10.63
-14.68
-18.02
-20.47
-22.19
-23.63
-25.27
-27.48
-30.42
-33.95
-37.68
-40.91
-42.74
-42.24
-38.65
-31.71
-21.83
-10.07
2.09
13.16
22.06
28.27
31.81
33.08
32.58
30.79
28.13
25.03
21.88
19.07
16.82
15.13
13.80
12.52
11.11
9.54
7.96
6.57
5.44
4.46
3.38
1.91
-0.12
-2.70
-5.65
-8.70
-11.63
-14.30
-16.77
-19.20
-21.86
-25.01
-28.80
-33.13
-37.51
-41.08
-42.75
-41.44
-36.56
-28.17
-17.12
-4.78
7.30
17.80
25.91
31.37
34.35
35.25
34.53
32.65
30.05
27.13
24.26
21.67
19.46
17.55
15.80
14.15
12.61
11.29
10.33
9.75
9.39
8.93
8.02
6.30
3.57
-0.14
-4.62
-9.45
-14.13
-18.25
-21.69
-24.62
-27.52
-30.93
-35.11
-39.84
-44.28
-47.19
-47.30
-43.74
-36.39
-25.97
-13.82
-1.57
9.35
17.95
23.87
27.22
28.43
27.99
26.39
24.04
21.30
18.58
16.29
14.75
14.05
14.05
14.35
14.51
14.28
13.64
12.87
12.34
12.33
12.83
13.49
13.77
13.16
11.40
8.56
5.03
1.28
-2.35
-5.69
-8.85
-12.12
-15.74
-19.88
-24.46
-29.06
-32.99
-35.28
-34.92
-31.20
-23.98
-13.83
-1.99
9.97
20.63
28.99
34.64
37.69
38.54
37.64
35.44
32.36
28.84
25.33
22.26
19.84
18.09
16.80
15.67
14.46
13.01
11.43
9.88
8.52
7.34
6.18
4.70
2.59
-0.31
-3.92
-7.93
-11.95
-15.62
-18.78
-21.51
-24.02
-26.66
-29.69
-33.26
-37.23
-41.15
-44.22
-45.40
-43.76
-38.76
-30.54
-19.90
-8.14
3.37
13.45
21.38
26.86
29.92
30.85
30.08
28.10
25.43
22.59
19.95
17.76
16.04
14.68
13.54
12.48
11.44
10.39
9.40
8.45
7.47
6.32
4.83
2.85
0.31
-2.75
-6.16
-9.65
-12.96
-15.86
-18.32
-20.49
-22.71
-25.38
-28.73
-32.59
-36.31
-38.87
-39.06
-35.93
-29.21
-19.39
-7.67
4.42
15.46
24.46
31.02
35.22
37.38
37.89
37.07
35.18
32.49
29.36
26.19
23.29
20.84
18.81
17.03
15.33
13.59
11.85
10.28
8.98
7.96
7.00
5.73
3.78
0.98
-2.58
-6.57
-10.52
-14.02
-16.86
-19.07
-20.88
-22.69
-24.89
-27.73
-31.21
-34.97
-38.28
-40.12
-39.46
-35.53
-28.20
-18.02
-6.21
5.72
16.31
24.61
30.26
33.48
34.80
34.81
33.93
32.38
30.31
27.86
25.33
23.01
21.11
19.74
18.74
17.91
17.01
15.87
14.45
12.81
11.08
9.38
7.84
6.40
4.88
2.98
0.37
-3.12
-7.38
-12.02
-16.56
-20.59
-23.94
-26.70
-29.15
-31.61
-34.32
-37.31
-40.37
-43.07
-44.75
-44.65
-42.07
-36.57
-28.22
-17.66
-6.06
5.21
14.96
22.47
27.57
30.58
32.01
32.25
31.58
30.11
28.00
25.55
23.23
21.47
20.44
20.04
19.87
19.47
18.48
16.82
14.63
12.17
9.70
7.34
5.09
2.80
0.34
-2.41
-5.45
-8.70
-11.98
-15.11
-17.92
-20.30
-22.28
-23.95
-25.53
-27.30
-29.54
-32.44
-35.89
-39.34
-41.92
-42.59
-40.44
-35.05
-26.68
-16.17
-4.79
6.19
15.72
23.17
28.34
31.35
32.51
32.17
30.65
28.28
25.38
22.32
19.48
17.14
15.43
14.23
13.33
12.48
11.57
10.62
9.75
9.06
8.45
7.67
6.33
4.12
0.95
-3.06
-7.54
-12.07
-16.25
-19.77
-22.51
-24.49
-25.93
-27.16
-28.58
-30.49
-32.92
-35.52
-37.48
-37.76
-35.44
-30.02
-21.69
-11.32
-0.21
10.27
19.04
25.54
29.72
31.89
32.50
31.93
30.50
28.51
26.19
23.85
21.73
19.94
18.41
16.98
15.43
13.65
11.71
9.80
8.17
6.95
6.04
5.23
4.11
2.33
-0.35
-3.89
-8.02
-12.29
-16.21
-19.49
-22.03
-24.07
-26.02
-28.38
-31.44
-35.20
-39.18
-42.45
-43.89
-42.41
-37.45
-29.09
-18.15
-5.98
5.90
16.19
24.08
29.34
32.16
33.00
32.37
30.72
28.40
25.73
22.98
20.47
18.43
16.97
16.04
15.38
14.66
13.65
12.30
10.76
9.30
8.14
7.26
6.37
5.03
2.84
-0.35
-4.36
-8.80
-13.18
-17.12
-20.46
-23.29
-25.82
-28.35
-31.12
-34.27
-37.77
-41.34
-44.42
-46.22
-45.76
-42.27
-35.45
-25.70
-14.14
-2.29
8.41
16.93
22.93
26.62
28.55
29.25
29.10
28.29
26.92
25.14
23.17
21.29
19.76
18.66
17.90
17.29
16.62
15.71
14.50
13.03
11.38
9.56
7.46
4.90
1.72
-2.14
-6.58
-11.43
-16.41
-21.32
-26.05
-30.65
-35.20
-39.84
-44.72
-50.02
-55.93
-62.55
-69.84
-77.55
-85.23
-92.25
-97.95
-101.90
-104.03
-104.74
-104.64
-104.24
-103.62
-102.30
-99.21
-93.08
-82.82
-67.91
-48.54
-25.62
-0.56
25.08
49.74
72.07
90.92
105.49
115.32
120.41
121.18
118.51
113.52
107.35
100.89
94.61
88.51
82.35
75.82
68.70
60.99
53.02
45.24
38.09
31.78
26.17
20.93
15.59
9.70
3.03
-4.30
-11.85
-18.85
-24.29
-27.20
-26.87
-23.03
-16.04
-6.82
3.33
13.03
21.12
26.93
30.26
31.34
30.62
28.62
25.84
22.71
19.57
16.72
14.36
12.59
11.33
10.43
9.66
8.90
8.08
7.25
6.45
5.66
4.71
3.35
1.34
-1.43
-4.90
-8.81
-12.73
-16.32
-19.33
-21.79
-23.89
-25.99
-28.45
-31.46
-34.84
-38.04
-40.14
-40.08
-36.97
-30.46
-20.89
-9.30
2.86
14.11
23.29
29.81
33.64
35.11
34.72
33.00
30.42
27.42
24.43
21.78
19.65
18.01
16.66
15.29
13.74
12.00
10.25
8.75
7.65
6.90
6.22
5.20
3.47
0.84
-2.62
-6.62
-10.78
-14.71
-18.18
-21.15
-23.80
-26.47
-29.56
-33.28
-37.54
-41.70
-44.74
-45.49
-42.90
-36.57
-26.84
-14.85
-2.17
9.62
19.32
26.32
30.60
32.53
32.61
31.32
29.07
26.22
23.12
20.15
17.62
15.73
14.50
13.71
13.08
12.33
11.34
10.15
8.91
7.79
6.79
5.77
4.40
2.36
-0.49
-4.11
-8.17
-12.28
-16.05
-19.27
-21.95
-24.34
-26.84
-29.85
-33.60
-38.03
-42.65
-46.55
-48.62
-47.76
-43.23
-35.02
-23.83
-11.01
1.91
13.51
22.92
29.82
34.34
36.80
37.51
36.70
34.56
31.44
27.81
24.31
21.46
19.59
18.68
18.41
18.37
18.14
17.49
16.42
15.07
13.58
12.06
10.43
8.49
5.99
2.69
-1.46
-6.26
-11.34
-16.22
-20.48
-23.86
-26.37
-28.26
-29.92
-31.80
-34.16
-36.98
-39.78
-41.76
-41.92
-39.39
-33.71
-25.01
-14.08
-2.10
9.55
19.63
27.18
31.76
33.40
32.62
30.18
26.97
23.76
21.06
19.07
17.69
16.72
15.90
15.05
14.05
12.83
11.41
9.86
8.29
6.84
5.54
4.32
2.95
1.17
-1.25
-4.40
-8.10
-12.02
-15.72
-18.90
-21.49
-23.69
-25.87
-28.48
-31.71
-35.36
-38.76
-40.84
-40.44
-36.72
-29.51
-19.36
-7.53
4.47
15.23
23.82
29.88
33.57
35.28
35.50
34.60
32.85
30.56
28.05
25.65
23.64
22.17
21.15
20.34
19.49
18.43
17.12
15.69
14.26
12.96
11.71
10.29
8.36
5.67
2.12
-2.11
-6.63
-10.97
-14.76
-17.88
-20.55
-23.22
-26.36
-30.25
-34.76
-39.31
-42.86
-44.26
-42.46
-36.94
-27.87
-16.14
-3.22
9.31
20.12
28.36
33.84
36.84
37.86
37.47
36.12
34.17
31.97
29.87
28.09
26.75
25.74
24.84
23.78
22.43
20.74
18.86
16.90
14.98
13.15
11.41
9.70
7.85
5.64
2.81
-0.79
-5.11
-9.87
-14.58
-18.79
-22.23
-24.96
-27.33
-29.84
-32.92
-36.77
-41.19
-45.45
-48.50
-49.11
-46.27
-39.51
-29.15
-16.29
-2.55
10.34
21.03
28.82
33.68
36.08
36.63
35.87
34.16
31.80
29.07
26.31
23.91
22.15
21.10
20.61
20.37
20.06
19.49
18.59
17.39
15.95
14.30
12.44
10.30
7.85
5.02
1.77
-1.87
-5.83
-9.93
-13.95
-17.66
-20.90
-23.65
-25.97
-28.05
-30.17
-32.64
-35.66
-39.20
-42.83
-45.72
-46.74
-44.86
-39.42
-30.54
-19.08
-6.42
5.90
16.57
24.77
30.22
33.05
33.69
32.67
30.55
27.90
25.22
22.87
21.05
19.83
19.07
18.61
18.25
17.84
17.27
16.51
15.55
14.49
13.35
12.13
10.72
8.90
6.35
2.85
-1.60
-6.71
-11.90
-16.53
-20.12
-22.52
-24.00
-25.15
-26.63
-28.96
-32.28
-36.26
-40.12
-42.82
-43.21
-40.40
-34.05
-24.53
-12.90
-0.69
10.57
19.67
25.98
29.53
30.78
30.39
29.02
27.16
25.11
23.10
21.32
19.95
19.10
18.73
18.69
18.70
18.49
17.87
16.86
15.58
14.20
12.84
11.45
9.84
7.77
5.00
1.38
-2.98
-7.82
-12.70
-17.16
-20.88
-23.74
-25.93
-27.86
-30.00
-32.69
-36.04
-39.74
-43.08
-45.12
-44.81
-41.36
-34.48
-24.54
-12.52
0.15
12.03
21.95
29.21
33.66
35.58
35.51
34.06
31.78
29.14
26.48
24.07
22.04
20.45
19.29
18.49
18.01
17.77
17.66
17.61
17.50
17.23
16.70
15.76
14.29
12.20
9.44
6.03
2.08
-2.21
-6.59
-10.84
-14.78
-18.34
-21.48
-24.19
-26.53
-28.63
-30.72
-33.09
-35.94
-39.22
-42.51
-44.95
-45.46
-43.06
-37.22
-28.10
-16.50
-3.77
8.58
19.20
27.16
32.10
34.24
34.15
32.58
30.26
27.67
25.12
22.74
20.60
18.78
17.38
16.43
15.85
15.50
15.16
14.67
13.94
12.96
11.78
10.47
9.05
7.52
5.87
3.98
1.77
-0.89
-4.02
-7.51
-11.16
-14.69
-17.91
-20.73
-23.26
-25.65
-28.15
-30.96
-34.19
-37.76
-41.38
-44.42
-46.01
-45.21
-41.21
-33.76
-23.32
-11.04
1.54
12.89
21.88
27.96
31.10
31.72
30.34
27.55
23.94
20.08
16.55
13.79
12.05
11.31
11.31
11.59
11.73
11.45
10.71
9.64
8.44
7.33
6.35
5.39
4.20
2.51
0.11
-3.03
-6.72
-10.59
-14.17
-17.12
-19.33
-20.96
-22.46
-24.32
-26.93
-30.38
-34.35
-38.07
-40.55
-40.69
-37.64
-31.07
-21.39
-9.72
2.45
13.58
22.59
28.96
32.70
34.20
33.97
32.45
30.03
27.07
23.92
20.99
18.58
16.85
15.74
15.02
14.39
13.62
12.59
11.34
10.01
8.75
7.65
6.62
5.49
3.96
1.81
-1.05
-4.54
-8.44
-12.44
-16.21
-19.56
-22.42
-24.94
-27.37
-30.05
-33.25
-36.94
-40.74
-43.91
-45.50
-44.54
-40.44
-33.11
-23.07
-11.43
0.50
11.44
20.40
26.91
30.98
32.90
33.17
32.31
30.72
28.83
26.93
25.23
23.86
22.79
21.91
21.09
20.27
19.38
18.42
17.39
16.24
14.94
13.46
11.76
9.83
7.62
5.00
1.88
-1.75
-5.82
-10.05
-14.12
-17.68
-20.56
-22.74
-24.47
-26.08
-27.99
-30.54
-33.79
-37.49
-40.99
-43.33
-43.41
-40.36
-33.77
-23.98
-12.03
0.58
12.23
21.65
28.15
31.74
32.91
32.41
30.95
29.03
26.94
24.82
22.73
20.78
19.10
17.79
16.90
16.35
15.99
15.66
15.22
14.56
13.69
12.60
11.33
9.89
8.26
6.36
4.09
1.36
-1.85
-5.46
-9.27
-12.99
-16.33
-19.12
-21.34
-23.17
-24.91
-26.92
-29.54
-32.85
-36.60
-40.16
-42.54
-42.71
-39.85
-33.66
-24.51
-13.42
-1.75
9.07
17.96
24.28
27.98
29.42
29.18
27.88
25.98
23.80
21.50
19.32
17.45
16.11
15.37
15.12
15.08
14.93
14.49
13.75
12.85
11.95
11.02
9.90
8.32
6.02
2.92
-0.91
-5.21
-9.59
-13.67
-17.12
-19.78
-21.66
-23.07
-24.43
-26.23
-28.80
-32.17
-35.91
-39.23
-41.09
-40.45
-36.62
-29.47
-19.58
-8.12
3.45
13.75
21.86
27.43
30.64
31.95
31.85
30.76
29.01
26.90
24.75
22.89
21.53
20.69
20.23
19.91
19.52
18.94
18.20
17.33
16.36
15.27
13.97
12.35
10.30
7.75
4.71
1.21
-2.65
-6.73
-10.85
-14.78
-18.34
-21.41
-23.99
-26.27
-28.56
-31.24
-34.52
-38.34
-42.19
-45.14
-46.08
-43.98
-38.32
-29.23
-17.63
-4.88
7.44
18.00
25.99
31.16
33.79
34.40
33.65
32.15
30.30
28.36
26.42
24.49
22.59
20.80
19.15
17.76
16.65
15.83
15.20
14.64
14.02
13.24
12.28
11.10
9.73
8.11
6.14
3.69
0.66
-2.90
-6.80
-10.71
-14.31
-17.42
-20.06
-22.45
-24.85
-27.54
-30.70
-34.33
-38.24
-41.95
-44.70
-45.64
-43.93
-39.05
-31.02
-20.44
-8.43
3.66
14.50
23.11
28.99
32.16
33.03
32.24
30.41
28.09
25.61
23.21
21.05
19.24
17.85
16.85
16.09
15.42
14.68
13.76
12.67
11.43
10.10
8.71
7.26
5.67
3.79
1.45
-1.48
-5.01
-8.96
-12.97
-16.64
-19.66
-22.00
-23.83
-25.52
-27.46
-29.97
-33.14
-36.74
-40.14
-42.41
-42.51
-39.57
-33.21
-23.78
-12.29
-0.22
10.92
19.97
26.38
30.17
31.73
31.59
30.21
27.97
25.22
22.28
19.49
17.17
15.48
14.40
13.71
13.10
12.36
11.43
10.39
9.41
8.58
7.80
6.82
5.25
2.88
-0.31
-4.06
-7.98
-11.68
-14.89
-17.55
-19.77
-21.74
-23.73
-26.06
-29.02
-32.70
-36.80
-40.55
-42.79
-42.31
-38.26
-30.58
-20.02
-7.99
3.92
14.32
22.40
27.96
31.25
32.72
32.83
31.94
30.32
28.23
25.90
23.62
21.63
20.08
18.98
18.15
17.33
16.27
14.87
13.14
11.26
9.46
7.85
6.40
4.89
3.07
0.73
-2.19
-5.58
-9.25
-12.93
-16.41
-19.53
-22.23
-24.56
-26.70
-28.95
-31.62
-34.88
-38.53
-41.96
-44.16
-43.99
-40.49
-33.32
-22.90
-10.40
2.55
14.35
23.80
30.37
34.18
35.74
35.74
34.72
33.01
30.89
28.56
26.29
24.35
22.86
21.83
21.07
20.33
19.39
18.19
16.78
15.33
13.97
12.72
11.49
10.12
8.47
6.39
3.88
0.92
-2.40
-5.94
-9.53
-12.95
-16.05
-18.75
-21.17
-23.60
-26.43
-29.95
-34.14
-38.62
-42.58
-45.00
-44.84
-41.38
-34.47
-24.60
-12.84
-0.61
10.65
19.82
26.24
29.82
30.90
30.09
28.08
25.46
22.70
20.07
17.75
15.80
14.23
13.01
12.03
11.18
10.36
9.54
8.72
7.99
7.42
7.00
6.68
6.25
5.52
4.30
2.49
0.12
-2.70
-5.76
-8.85
-11.81
-14.58
-17.20
-19.81
-22.58
-25.67
-29.16
-33.05
-37.01
-40.46
-42.49
-42.16
-38.67
-31.81
-22.07
-10.57
1.19
11.89
20.61
27.00
31.15
33.32
33.78
32.73
30.44
27.32
23.94
20.87
18.52
17.00
16.11
15.49
14.84
14.02
13.06
12.16
11.50
11.10
10.80
10.29
9.18
7.15
4.12
0.26
-4.04
-8.28
-12.07
-15.20
-17.71
-19.90
-22.14
-24.80
-28.12
-32.12
-36.45
-40.39
-42.95
-43.04
-39.84
-33.06
-23.19
-11.40
0.76
11.77
20.56
26.70
30.30
31.85
31.91
30.96
29.31
27.24
24.98
22.85
21.13
19.99
19.39
19.11
18.78
18.04
16.75
15.00
13.07
11.31
9.85
8.61
7.21
5.26
2.46
-1.26
-5.69
-10.43
-15.07
-19.22
-22.68
-25.45
-27.67
-29.66
-31.82
-34.47
-37.73
-41.34
-44.59
-46.42
-45.76
-41.81
-34.37
-23.97
-11.75
0.76
12.12
21.25
27.70
31.58
33.43
33.94
33.65
32.88
31.71
30.13
28.22
26.19
24.31
22.78
21.60
20.60
19.56
18.33
16.99
15.73
14.73
14.03
13.48
12.73
11.49
9.59
7.03
3.94
0.53
-3.09
-6.84
-10.68
-14.54
-18.28
-21.78
-24.99
-27.97
-30.91
-34.11
-37.71
-41.64
-45.41
-48.09
-48.58
-45.82
-39.29
-29.22
-16.63
-3.10
9.71
20.46
28.41
33.46
36.00
36.60
35.86
34.30
32.30
30.13
27.95
25.85
23.83
21.87
19.97
18.18
16.64
15.48
14.75
14.38
14.10
13.65
12.77
11.33
9.37
7.03
4.44
1.66
-1.32
-4.51
-7.93
-11.48
-14.95
-18.10
-20.76
-22.86
-24.57
-26.16
-27.97
-30.26
-33.12
-36.30
-39.26
-41.22
-41.28
-38.65
-32.94
-24.29
-13.50
-1.84
9.20
18.33
24.73
28.25
29.30
28.63
27.00
24.98
22.84
20.69
18.57
16.63
15.07
14.05
13.59
13.48
13.41
13.04
12.28
11.22
10.16
9.34
8.81
8.32
7.43
5.71
2.91
-0.86
-5.25
-9.70
-13.72
-17.05
-19.68
-21.83
-23.77
-25.81
-28.19
-30.99
-34.17
-37.40
-40.10
-41.41
-40.46
-36.55
-29.45
-19.59
-7.99
3.91
14.68
23.22
29.02
32.14
33.12
32.65
31.32
29.59
27.67
25.69
23.76
22.04
20.65
19.67
19.04
18.62
18.24
17.75
17.06
16.15
14.98
13.51
11.65
9.33
6.51
3.23
-0.42
-4.26
-8.11
-11.80
-15.21
-18.31
-21.09
-23.61
-25.91
-28.14
-30.49
-33.18
-36.36
-39.90
-43.25
-45.49
-45.51
-42.38
-35.73
-25.89
-13.95
-1.40
10.24
19.81
26.67
30.75
32.43
32.35
31.21
29.57
27.79
26.11
24.57
23.21
22.07
21.15
20.42
19.80
19.13
18.24
17.07
15.68
14.22
12.87
11.68
10.54
9.24
7.51
5.13
2.03
-1.74
-5.94
-10.25
-14.29
-17.75
-20.49
-22.55
-24.19
-25.76
-27.67
-30.19
-33.42
-37.17
-40.91
-43.79
-44.79
-42.89
-37.45
-28.54
-16.98
-4.22
8.05
18.36
25.81
30.26
32.14
32.16
31.02
29.26
27.17
24.94
22.71
20.62
18.82
17.36
16.23
15.33
14.54
13.84
13.20
12.68
12.24
11.77
11.10
10.00
8.31
5.95
2.91
-0.69
-4.67
-8.78
-12.71
-16.24
-19.20
-21.59
-23.55
-25.40
-27.46
-30.03
-33.23
-36.88
-40.44
-43.04
-43.64
-41.37
-35.77
-27.06
-16.12
-4.30
6.95
16.44
23.49
27.98
30.21
30.69
29.91
28.27
26.08
23.61
21.17
19.04
17.41
16.35
15.78
15.46
15.14
14.67
13.99
13.14
12.17
11.11
9.86
8.28
6.16
3.37
-0.08
-4.04
-8.23
-12.30
-15.96
-19.03
-21.50
-23.61
-25.74
-28.34
-31.69
-35.69
-39.71
-42.70
-43.42
-40.85
-34.58
-25.02
-13.32
-1.03
10.35
19.73
26.57
30.89
33.03
33.50
32.77
31.27
29.38
27.44
25.74
24.43
23.53
22.87
22.25
21.42
20.23
18.62
16.65
14.48
12.31
10.32
8.58
7.04
5.51
3.73
1.43
-1.52
-5.03
-8.85
-12.60
-15.92
-18.55
-20.45
-21.88
-23.26
-25.10
-27.78
-31.39
-35.61
-39.67
-42.45
-42.78
-39.75
-33.01
-22.94
-10.63
2.40
14.62
24.77
32.22
36.97
39.44
40.28
40.06
39.17
37.79
36.06
34.10
32.13
30.45
29.30
28.77
28.72
28.86
28.87
28.57
28.02
27.53
27.39
27.82
28.71
29.63
30.01
29.39
27.54
24.61
21.03
17.34
14.04
11.38
9.32
7.54
5.46
2.40
-2.31
-9.00
-17.39
-26.41
-34.27
-38.99
-39.11
-34.27
-25.40
-14.40
-3.43
5.88
12.91
18.09
22.43
26.96
32.23
38.07
43.75
48.22
50.51
49.96
46.39
40.02
31.47
21.52
10.97
0.52
-9.21
-17.70
-24.51
-29.27
-31.78
-32.07
-30.43
-27.42
-23.71
-19.93
-16.51
-13.65
-11.29
-9.27
-7.36
-5.41
-3.40
-1.43
0.17
1.03
0.76
-0.93
-4.12
-8.60
-13.94
-19.47
-24.31
-27.60
-28.58
-26.75
-22.04
-14.77
-5.63
4.35
14.04
22.37
28.51
32.04
33.03
31.96
29.54
26.51
23.41
20.51
17.81
15.24
12.72
10.29
8.09
6.30
5.03
4.17
3.44
2.51
1.11
-0.79
-3.02
-5.32
-7.52
-9.66
-11.96
-14.64
-17.90
-21.72
-25.95
-30.35
-34.71
-38.86
-42.52
-45.32
-46.81
-46.72
-45.24
-43.00
-41.00
-40.20
-41.20
-43.97
-47.98
-52.55
-57.31
-62.39
-68.12
-74.69
-81.90
-89.23
-96.08
-102.05
-106.83
-110.00
-110.76
-107.84
-100.09
-86.88
-68.72
-47.16
-24.46
-2.80
16.30
32.11
44.57
53.87
60.26
63.94
65.07
63.97
61.19
57.61
54.26
52.07
51.45
52.11
53.01
52.70
49.97
44.46
37.03
29.55
24.20
22.55
25.01
30.88
38.82
47.52
55.99
63.67
70.21
75.41
79.24
82.06
84.48
87.20
90.67
94.87
99.41
103.89
108.16
112.46
117.19
122.40
127.60
131.95
134.68
135.54
134.99
133.88
132.87
131.76
129.16
122.79
110.40
90.75
64.33
33.26
0.68
-30.26
-57.23
-79.16
-96.28
-109.64
-120.69
-130.64
-140.24
-149.58
-158.24
-165.50
-170.66
-173.27
-173.22
-170.70
-166.01
-159.45
-151.37
-142.18
-132.44
-122.79
-113.86
-106.04
-99.41
-93.69
-88.36
-82.89
-76.99
-70.69
-64.31
-58.35
-53.11
-48.64
-44.73
-41.00
-37.20
-33.40
-30.06
-27.78
-27.10
-28.19
-30.75
-34.13
-37.57
-40.48
-42.61
-44.10
-45.43
-47.15
-49.82
-53.64
-58.43
-63.41
-67.39
-68.95
-66.92
-60.79
-50.87
-38.30
-24.57
-11.18
0.81
10.82
18.73
24.68
28.84
31.38
32.48
32.38
31.35
29.76
27.96
26.25
24.79
23.64
22.74
22.01
21.44
21.04
20.83
20.73
20.46
19.59
17.69
14.44
9.91
4.46
-1.32
-6.90
-11.87
-16.20
-20.05
-23.81
-27.94
-32.77
-38.33
-44.18
-49.35
-52.51
-52.35
-48.03
-39.52
-27.78
-14.37
-1.00
10.94
20.76
28.35
33.98
38.05
40.87
42.59
43.32
43.21
42.46
41.37
40.18
38.98
37.73
36.32
34.66
32.78
30.87
29.17
27.90
27.10
26.47
25.49
23.59
20.32
15.63
9.86
3.60
-2.44
-7.71
-12.07
-15.67
-19.04
-22.80
-27.46
-33.27
-39.96
-46.69
-52.14
-54.80
-53.41
-47.42
-37.23
-24.12
-9.97
3.34
14.42
22.68
28.37
32.20
34.96
37.20
39.07
40.48
41.29
41.45
41.14
40.64
40.25
40.05
39.97
39.81
39.41
38.72
37.84
36.89
36.04
35.28
34.41
33.07
30.79
27.26
22.46
16.70
10.56
4.68
-0.50
-4.88
-8.65
-12.25
-16.12
-20.58
-25.72
-31.33
-36.80
-41.16
-43.14
-41.57
-35.69
-25.61
-12.30
2.57
17.14
29.86
39.84
46.94
51.56
54.24
55.49
55.58
54.67
52.86
50.36
47.47
44.58
42.01
39.93
38.28
36.83
35.27
33.43
31.30
29.01
26.75
24.61
22.49
20.14
17.24
13.57
9.10
4.06
-1.17
-6.16
-10.60
-14.38
-17.62
-20.60
-23.71
-27.30
-31.63
-36.63
-41.86
-46.43
-49.09
-48.56
-43.86
-34.83
-22.18
-7.46
7.41
20.69
31.25
38.67
43.14
45.17
45.26
43.85
41.30
38.04
34.56
31.38
28.95
27.47
26.87
26.79
26.79
26.48
25.69
24.46
22.98
21.46
19.89
18.06
15.62
12.25
7.86
2.69
-2.78
-7.98
-12.43
-15.92
-18.56
-20.73
-22.95
-25.73
-29.38
-33.87
-38.66
-42.76
-44.82
-43.52
-38.00
-28.23
-15.14
-0.40
14.07
26.64
36.31
42.85
46.57
47.98
47.60
45.81
43.00
39.55
35.94
32.62
29.91
27.90
26.49
25.42
24.44
23.38
22.17
20.84
19.40
17.82
16.03
13.88
11.23
7.99
4.18
-0.13
-4.77
-9.51
-14.12
-18.34
-22.02
-25.09
-27.68
-30.08
-32.68
-35.88
-39.85
-44.44
-49.02
-52.53
-53.64
-51.17
-44.45
-33.66
-19.89
-4.84
9.57
21.80
30.97
36.99
40.27
41.50
41.28
40.06
38.14
35.71
33.00
30.26
27.71
25.51
23.71
22.24
20.96
19.73
18.43
17.05
15.64
14.25
12.89
11.44
9.68
7.30
4.09
0.00
-4.75
-9.72
-14.44
-18.53
-21.85
-24.53
-26.87
-29.25
-31.97
-35.20
-38.99
-43.14
-47.15
-50.18
-51.09
-48.77
-42.50
-32.32
-19.13
-4.55
9.51
21.45
30.31
35.89
38.62
39.21
38.34
36.56
34.17
31.34
28.25
25.15
22.31
19.98
18.27
17.14
16.39
15.78
15.07
14.15
12.99
11.65
10.22
8.67
6.93
4.86
2.29
-0.87
-4.56
-8.57
-12.63
-16.44
-19.80
-22.61
-24.86
-26.64
-28.11
-29.55
-31.31
-33.66
-36.49
-39.21
-40.71
-39.63
-34.84
-25.90
-13.31
1.59
16.97
31.05
42.56
50.93
56.36
59.39
60.69
60.73
59.76
57.92
55.46
52.87
50.81
49.86
50.19
51.59
53.48
55.21
56.28
56.43
55.54
53.54
50.45
46.43
41.95
37.65
34.07
31.45
29.45
27.44
24.68
20.80
15.80
10.02
3.85
-2.61
-9.43
-16.83
-24.78
-32.93
-40.60
-47.01
-51.51
-53.84
-54.23
-53.34
-52.01
-50.97
-50.49
-50.32
-49.74
-47.95
-44.46
-39.30
-33.01
-26.29
-19.66
-13.23
-6.80
-0.14
6.64
13.06
18.44
22.24
24.32
24.98
24.78
24.27
23.76
23.24
22.47
21.09
18.86
15.77
12.11
8.48
5.55
3.81
3.40
3.92
4.64
4.68
3.36
0.37
-4.09
-9.40
-14.62
-18.65
-20.53
-19.61
-15.88
-9.95
-2.90
4.06
10.03
14.71
18.41
21.75
25.32
29.25
33.16
36.28
37.85
37.48
35.37
32.27
29.11
26.67
25.20
24.44
23.80
22.72
20.82
17.96
14.07
9.04
2.72
-4.89
-13.44
-22.12
-30.00
-36.32
-40.92
-44.23
-47.02
-49.83
-52.81
-55.74
-58.14
-59.55
-59.71
-58.50
-55.89
-51.89
-46.44
-39.68
-32.02
-23.93
-15.77
-7.73
0.18
7.78
14.61
20.27
24.39
26.76
27.70
27.82
27.67
27.41
26.43
23.81
19.39
13.54
6.98
0.86
-3.75
-6.33
-7.14
-7.76
-10.15
-14.88
-21.90
-30.99
-41.28
-51.78
-61.84
-71.37
-81.73
-94.49
-109.18
-125.03
-141.82
-158.94
-175.54
-190.47
-202.30
-210.80
-216.33
-218.16
-217.49
-218.25
-224.43
-238.03
-257.31
-269.24
-259.74
-231.16
-186.58
-126.50
-57.18
13.29
77.72
131.66
173.61
202.92
219.62
226.16
224.86
217.13
205.02
191.04
177.55
165.97
155.49
144.12
131.24
116.47
99.51
81.24
63.45
48.00
36.08
27.25
20.07
13.80
7.77
1.19
-6.00
-13.27
-19.65
-23.94
-25.23
-22.85
-16.03
-4.73
10.05
26.67
43.16
57.66
68.80
75.74
78.30
77.12
73.23
67.80
62.04
57.00
53.33
51.17
50.25
49.98
49.85
49.55
49.11
48.86
49.28
50.76
53.45
57.05
60.81
63.73
64.83
63.55
59.83
54.06
46.83
38.58
29.42
19.14
7.42
-6.01
-21.18
-37.78
-55.14
-72.18
-87.55
-99.87
-108.06
-111.78
-111.58
-108.76
-104.94
-101.52
-99.28
-98.35
-98.26
-98.35
-97.95
-96.61
-94.03
-90.13
-84.97
-78.76
-71.84
-64.60
-57.40
-50.53
-44.10
-37.91
-31.71
-25.19
-18.27
-11.26
-4.85
0.08
2.82
3.07
1.22
-1.88
-5.18
-7.90
-9.79
-11.20
-12.92
-15.84
-20.61
-27.39
-35.69
-44.42
-52.01
-56.82
-57.49
-53.36
-44.71
-32.68
-18.94
-5.26
6.95
16.87
24.30
29.47
32.81
34.78
35.81
36.23
36.26
36.09
35.82
35.46
34.98
34.33
33.44
32.31
31.02
29.69
28.42
27.19
25.85
24.06
21.42
17.63
12.68
6.84
0.69
-5.18
-10.35
-14.71
-18.49
-22.15
-26.16
-30.90
-36.45
-42.50
-48.30
-52.71
-54.41
-52.30
-45.83
-35.29
-21.77
-6.85
7.87
21.13
32.13
40.52
46.24
49.39
50.26
49.25
46.90
43.84
40.63
37.68
35.22
33.26
31.66
30.23
28.77
27.18
25.49
23.79
22.12
20.36
18.21
15.31
11.39
6.43
0.75
-5.15
-10.73
-15.61
-19.79
-23.57
-27.47
-31.99
-37.42
-43.60
-49.85
-54.97
-57.52
-56.17
-50.20
-39.72
-25.72
-9.84
6.10
20.47
32.23
40.94
46.69
49.87
51.01
50.64
49.24
47.26
45.08
42.98
41.07
39.32
37.60
35.76
33.77
31.70
29.81
28.32
27.32
26.65
25.87
24.45
21.98
18.30
13.59
8.32
3.03
-1.86
-6.18
-10.06
-13.84
-17.98
-22.81
-28.35
-34.11
-39.09
-42.00
-41.57
-37.01
-28.37
-16.48
-2.85
10.86
23.19
33.27
40.81
46.02
49.26
50.82
50.85
49.38
46.59
42.84
38.79
35.09
32.24
30.29
28.95
27.73
26.29
24.58
22.91
21.63
20.88
20.43
19.67
17.96
14.88
10.50
5.23
-0.23
-5.31
-9.68
-13.34
-16.54
-19.63
-22.97
-26.81
-31.19
-35.85
-40.09
-42.88
-43.09
-39.78
-32.70
-22.36
-9.98
2.89
14.80
24.71
32.17
37.17
40.00
40.97
40.44
38.76
36.32
33.60
30.97
28.70
26.79
25.08
23.34
21.44
19.44
17.53
16.01
15.00
14.47
14.15
13.66
12.60
10.68
7.82
4.17
0.11
-3.91
-7.49
-10.42
-12.79
-14.99
-17.52
-20.84
-25.12
-30.11
-35.10
-39.05
-40.80
-39.41
-34.36
-25.86
-14.74
-2.35
9.86
20.64
29.20
35.27
38.98
40.66
40.68
39.37
37.02
33.99
30.67
27.43
24.54
22.09
19.97
17.94
15.84
13.65
11.50
9.61
8.08
6.81
5.50
3.75
1.26
-1.98
-5.71
-9.49
-12.92
-15.77
-18.07
-20.14
-22.39
-25.25
-29.00
-33.59
-38.53
-42.92
-45.53
-45.21
-41.21
-33.51
-22.89
-10.73
1.45
12.33
21.10
27.45
31.49
33.50
33.86
32.93
31.09
28.72
26.19
23.84
21.82
20.17
18.72
17.34
15.91
14.43
12.98
11.70
10.65
9.79
8.96
7.81
6.06
3.47
-0.01
-4.15
-8.59
-12.85
-16.57
-19.59
-22.01
-24.19
-26.59
-29.57
-33.25
-37.29
-40.94
-43.13
-42.79
-39.18
-32.18
-22.37
-10.85
1.00
11.86
20.80
27.32
31.41
33.37
33.68
32.80
31.13
29.00
26.66
24.32
22.17
20.40
19.02
17.96
17.00
15.88
14.51
12.95
11.42
10.10
9.01
7.96
6.60
4.54
1.63
-2.04
-6.12
-10.16
-13.80
-16.87
-19.51
-21.94
-24.53
-27.53
-31.10
-35.13
-39.29
-42.91
-45.13
-45.01
-41.78
-35.13
-25.37
-13.51
-0.92
10.89
20.75
27.99
32.50
34.58
34.73
33.43
31.12
28.11
24.75
21.39
18.41
16.06
14.42
13.37
12.63
11.94
11.14
10.25
9.41
8.78
8.36
8.00
7.39
6.22
4.27
1.50
-1.98
-5.92
-9.98
-13.86
-17.29
-20.22
-22.66
-24.84
-27.08
-29.69
-32.79
-36.20
-39.32
-41.25
-40.99
-37.76
-31.24
-21.85
-10.58
1.16
11.92
20.66
26.88
30.61
32.26
32.33
31.25
29.29
26.62
23.48
20.21
17.20
14.80
13.16
12.19
11.58
11.07
10.42
9.58
8.59
7.55
6.47
5.28
3.79
1.77
-0.91
-4.24
-8.00
-11.84
-15.33
-18.18
-20.26
-21.74
-22.92
-24.24
-26.05
-28.56
-31.65
-34.85
-37.34
-38.10
-36.22
-31.20
-23.23
-13.13
-2.22
8.15
16.93
23.53
27.89
30.21
30.78
29.91
27.89
25.03
21.76
18.52
15.67
13.38
11.61
10.17
8.88
7.67
6.61
5.78
5.26
4.92
4.51
3.67
2.13
-0.23
-3.34
-6.95
-10.73
-14.28
-17.35
-19.74
-21.52
-22.94
-24.44
-26.50
-29.38
-32.91
-36.42
-38.85
-39.04
-36.15
-29.95
-20.93
-10.14
1.11
11.61
20.42
27.05
31.38
33.56
33.94
32.92
30.95
28.46
25.76
23.16
20.82
18.78
17.01
15.37
13.70
11.98
10.29
8.79
7.61
6.76
6.01
5.03
3.44
1.00
-2.33
-6.32
-10.61
-14.73
-18.33
-21.24
-23.52
-25.49
-27.56
-30.12
-33.33
-36.90
-40.12
-41.96
-41.39
-37.65
-30.57
-20.70
-9.19
2.52
13.04
21.41
27.23
30.57
31.88
31.65
30.34
28.30
25.79
23.02
20.21
17.60
15.31
13.45
12.00
10.81
9.80
8.89
8.12
7.54
7.16
6.84
6.32
5.29
3.46
0.77
-2.67
-6.55
-10.51
-14.19
-17.40
-20.09
-22.42
-24.69
-27.25
-30.33
-33.89
-37.51
-40.37
-41.45
-39.79
-34.85
-26.75
-16.28
-4.74
6.45
16.12
23.57
28.63
31.46
32.42
31.86
30.11
27.52
24.52
21.57
19.08
17.25
16.04
15.22
14.49
13.57
12.37
10.99
9.62
8.49
7.69
7.02
6.15
4.62
2.14
-1.27
-5.32
-9.51
-13.35
-16.49
-18.86
-20.60
-22.07
-23.66
-25.72
-28.46
-31.73
-35.01
-37.38
-37.77
-35.34
-29.74
-21.28
-10.89
0.12
10.44
19.02
25.27
29.09
30.74
30.68
29.39
27.27
24.61
21.66
18.67
15.89
13.56
11.78
10.50
9.51
8.61
7.68
6.77
6.05
5.58
5.27
4.77
3.65
1.52
-1.71
-5.79
-10.20
-14.37
-17.91
-20.68
-22.83
-24.70
-26.62
-28.89
-31.63
-34.71
-37.67
-39.75
-40.00
-37.56
-32.00
-23.52
-13.03
-1.84
8.71
17.58
24.28
28.81
31.46
32.60
32.58
31.60
29.88
27.59
24.97
22.29
19.80
17.70
16.06
14.82
13.82
12.93
12.04
11.13
10.24
9.39
8.47
7.22
5.35
2.60
-1.05
-5.36
-9.85
-13.98
-17.36
-19.89
-21.76
-23.37
-25.17
-27.49
-30.34
-33.34
-35.83
-36.94
-35.85
-31.98
-25.22
-16.03
-5.37
5.52
15.41
23.38
28.97
32.21
33.52
33.45
32.53
31.12
29.42
27.51
25.45
23.36
21.37
19.63
18.18
16.98
15.91
14.82
13.67
12.45
11.24
10.05
8.86
7.53
5.92
3.88
1.33
-1.70
-5.11
-8.71
-12.31
-15.71
-18.78
-21.47
-23.79
-25.87
-27.86
-30.01
-32.49
-35.40
-38.56
-41.45
-43.18
-42.72
-39.20
-32.28
-22.38
-10.58
1.62
12.74
21.70
28.04
31.85
33.59
33.89
33.26
32.07
30.55
28.80
26.90
24.91
22.91
21.05
19.37
17.91
16.62
15.40
14.16
12.82
11.34
9.68
7.81
5.71
3.40
0.95
-1.53
-4.03
-6.55
-9.16
-11.88
-14.63
-17.22
-19.47
-21.24
-22.61
-23.83
-25.24
-27.15
-29.69
-32.75
-35.89
-38.37
-39.25
-37.69
-33.11
-25.54
-15.59
-4.42
6.60
16.22
23.61
28.41
30.72
30.97
29.70
27.48
24.81
22.09
19.57
17.39
15.63
14.27
13.23
12.37
11.53
10.65
9.68
8.71
7.82
7.07
6.34
5.42
3.99
1.80
-1.19
-4.86
-8.86
-12.77
-16.22
-18.98
-21.01
-22.50
-23.82
-25.38
-27.54
-30.43
-33.80
-37.02
-39.14
-39.15
-36.31
-30.38
-21.77
-11.40
-0.48
9.77
18.45
25.06
29.50
31.99
32.86
32.47
31.13
29.14
26.73
24.14
21.65
19.45
17.63
16.15
14.84
13.53
12.12
10.69
9.40
8.40
7.71
7.19
6.52
5.36
3.46
0.74
-2.66
-6.46
-10.31
-13.88
-16.95
-19.47
-21.56
-23.56
-25.82
-28.63
-32.00
-35.59
-38.71
-40.45
-39.85
-36.29
-29.64
-20.38
-9.49
1.73
12.06
20.51
26.53
30.08
31.48
31.27
30.02
28.23
26.23
24.25
22.42
20.79
19.42
18.33
17.48
16.79
16.08
15.21
14.10
12.73
11.19
9.60
8.08
6.61
5.07
3.21
0.82
-2.19
-5.70
-9.43
-13.05
-16.33
-19.18
-21.63
-23.85
-26.03
-28.38
-31.08
-34.15
-37.41
-40.37
-42.20
-41.91
-38.73
-32.34
-23.11
-12.06
-0.53
10.10
18.82
25.16
29.15
31.13
31.57
30.87
29.33
27.20
24.75
22.25
19.99
18.14
16.74
15.65
14.67
13.63
12.49
11.34
10.29
9.41
8.63
7.78
6.63
4.94
2.54
-0.51
-4.06
-7.82
-11.45
-14.66
-17.34
-19.49
-21.30
-22.99
-24.80
-26.91
-29.39
-32.11
-34.67
-36.38
-36.40
-33.92
-28.53
-20.36
-10.20
0.75
11.18
20.02
26.58
30.69
32.49
32.34
30.67
27.90
24.43
20.63
16.82
13.32
10.38
8.14
6.61
5.64
4.98
4.43
3.87
3.33
2.93
2.72
2.62
2.31
1.40
-0.40
-3.15
-6.57
-10.21
-13.54
-16.24
-18.27
-19.89
-21.51
-23.56
-26.29
-29.64
-33.21
-36.20
-37.64
-36.59
-32.45
-25.19
-15.52
-4.65
6.02
15.24
22.33
27.06
29.68
30.58
30.15
28.68
26.42
23.70
20.84
18.17
15.91
14.14
12.76
11.61
10.56
9.58
8.71
7.99
7.43
6.91
6.29
5.35
3.88
1.78
-0.94
-4.17
-7.67
-11.12
-14.24
-16.85
-18.95
-20.67
-22.29
-24.10
-26.36
-29.16
-32.29
-35.22
-37.11
-37.00
-34.10
-28.06
-19.23
-8.54
2.64
12.98
21.41
27.41
30.94
32.33
32.06
30.63
28.49
26.05
23.67
21.66
20.20
19.31
18.81
18.44
17.91
17.04
15.75
14.10
12.21
10.21
8.26
6.44
4.79
3.22
1.52
-0.53
-3.07
-6.05
-9.25
-12.35
-15.15
-17.53
-19.58
-21.49
-23.47
-25.75
-28.46
-31.61
-34.99
-38.08
-40.04
-39.96
-37.01
-30.87
-21.88
-10.98
0.48
11.12
19.87
26.15
29.92
31.52
31.47
30.28
28.40
26.19
23.95
21.95
20.38
19.35
18.79
18.49
18.21
17.65
16.65
15.16
13.26
11.08
8.80
6.53
4.27
1.95
-0.61
-3.56
-6.90
-10.46
-13.92
-16.93
-19.29
-21.04
-22.38
-23.65
-25.13
-26.93
-29.01
-31.23
-33.26
-34.65
-34.80
-33.02
-28.82
-22.10
-13.31
-3.48
6.13
14.34
20.41
24.12
25.68
25.51
24.08
21.76
18.89
15.84
13.02
10.81
9.42
8.83
8.75
8.84
8.79
8.46
7.90
7.22
6.48
5.67
4.66
3.30
1.43
-1.01
-3.99
-7.30
-10.67
-13.79
-16.42
-18.46
-20.06
-21.55
-23.33
-25.64
-28.41
-31.18
-33.13
-33.32
-30.98
-25.76
-17.93
-8.34
1.79
11.27
19.11
24.82
28.36
30.02
30.23
29.40
27.89
25.97
23.91
21.94
20.25
18.88
17.74
16.63
15.40
14.00
12.50
11.09
9.90
9.01
8.30
7.52
6.33
4.42
1.65
-1.92
-6.00
-10.13
-13.91
-17.01
-19.42
-21.37
-23.22
-25.35
-28.00
-31.17
-34.54
-37.46
-39.00
-38.26
-34.60
-27.92
-18.75
-8.24
2.26
11.53
18.80
23.83
26.83
28.23
28.47
27.85
26.60
24.92
22.99
21.05
19.25
17.63
16.09
14.51
12.76
10.81
8.80
6.96
5.49
4.53
4.02
3.66
3.09
1.91
-0.08
-2.82
-5.98
-9.12
-11.85
-14.00
-15.71
-17.31
-19.25
-21.88
-25.33
-29.49
-33.95
-38.03
-40.86
-41.49
-39.17
-33.56
-24.98
-14.32
-2.98
7.60
16.33
22.64
26.57
28.56
29.11
28.64
27.43
25.67
23.58
21.47
19.68
18.41
17.67
17.25
16.82
16.13
15.06
13.74
12.41
11.30
10.46
9.72
8.69
6.99
4.38
0.87
-3.26
-7.56
-11.64
-15.19
-18.08
-20.37
-22.22
-23.89
-25.68
-27.79
-30.24
-32.72
-34.58
-34.93
-32.93
-28.10
-20.52
-10.96
-0.59
9.24
17.44
23.33
26.77
28.03
27.59
25.97
23.65
20.98
18.25
15.69
13.43
11.55
10.01
8.74
7.65
6.70
5.92
5.39
5.16
5.23
5.49
5.66
5.41
4.40
2.49
-0.22
-3.40
-6.56
-9.25
-11.27
-12.74
-14.06
-15.76
-18.25
-21.64
-25.57
-29.26
-31.64
-31.67
-28.65
-22.45
-13.69
-3.51
6.69
15.60
22.39
26.77
28.93
29.35
28.52
26.88
24.72
22.29
19.80
17.47
15.45
13.77
12.28
10.82
9.29
7.71
6.30
5.22
4.57
4.13
3.51
2.17
-0.24
-3.73
-7.98
-12.39
-16.43
-19.86
-22.80
-25.72
-29.13
-33.42
-38.66
-44.63
-50.88
-56.87
-62.08
-66.06
-68.47
-69.16
-68.22
-65.97
-62.83
-59.26
-55.65
-52.34
-49.66
-47.99
-47.75
-49.35
-52.81
-57.43
-61.43
-62.02
-56.05
-41.11
-16.70
15.14
50.22
83.42
110.24
128.07
136.52
136.82
130.97
120.87
108.05
93.77
79.31
65.95
54.75
46.19
40.02
35.26
30.54
24.58
16.51
6.19
-5.79
-18.29
-29.98
-39.66
-46.41
-49.77
-49.55
-45.88
-39.13
-30.04
-19.65
-9.24
-0.07
6.96
11.49
13.76
14.41
14.18
13.68
13.25
13.00
12.84
12.67
12.40
12.03
11.51
10.89
10.18
9.48
8.94
8.70
8.80
9.14
9.55
9.77
9.61
9.03
8.06
6.82
5.40
3.76
1.85
-0.36
-2.82
-5.46
-8.22
-11.13
-14.25
-17.65
-21.19
-24.56
-27.20
-28.51
-28.10
-25.85
-22.01
-17.06
-11.59
-6.11
-1.01
3.50
7.36
10.63
13.40
15.74
17.65
19.05
19.83
19.93
19.38
18.34
17.08
15.82
14.74
13.92
13.39
13.11
13.03
13.04
13.02
12.81
12.30
11.39
10.04
8.22
5.82
2.74
-1.16
-5.93
-11.53
-17.83
-24.62
-31.61
-38.38
-44.35
-48.77
-50.89
-50.10
-46.19
-39.45
-30.62
-20.69
-10.68
-1.39
6.72
13.51
18.96
23.17
26.20
28.11
28.98
28.97
28.28
27.12
25.66
23.95
22.07
20.02
17.92
15.94
14.28
13.02
12.14
11.45
10.63
9.41
7.56
5.06
2.06
-1.15
-4.27
-7.08
-9.50
-11.64
-13.68
-15.89
-18.52
-21.60
-24.95
-28.12
-30.42
-31.14
-29.71
-25.86
-19.79
-12.04
-3.42
5.17
12.99
19.50
24.44
27.74
29.54
30.04
29.43
27.92
25.71
23.08
20.38
17.90
15.82
14.13
12.66
11.18
9.61
8.04
6.71
5.86
5.54
5.57
5.51
4.87
3.32
0.73
-2.73
-6.70
-10.76
-14.53
-17.80
-20.55
-22.99
-25.40
-27.97
-30.71
-33.38
-35.46
-36.29
-35.24
-31.89
-26.19
-18.53
-9.65
-0.46
8.16
15.51
21.28
25.42
28.09
29.54
29.94
29.43
28.11
26.17
23.84
21.41
19.12
17.11
15.40
13.88
12.41
10.93
9.46
8.11
7.00
6.18
5.52
4.79
3.65
1.85
-0.66
-3.72
-7.00
-10.11
-12.78
-14.96
-16.71
-18.33
-20.09
-22.22
-24.80
-27.69
-30.48
-32.53
-33.17
-31.75
-27.99
-21.96
-14.16
-5.42
3.33
11.27
17.76
22.48
25.36
26.53
26.29
25.03
23.15
20.99
18.78
16.57
14.29
11.84
9.16
6.33
3.61
1.30
-0.26
-0.91
-0.69
0.16
1.26
2.19
2.62
2.32
1.27
-0.41
-2.53
-4.89
-7.31
-9.71
-12.13
-14.71
-17.62
-20.95
-24.56
-28.04
-30.72
-31.85
-30.76
-27.09
-20.93
-12.87
-3.79
5.24
13.31
19.78
24.38
27.17
28.43
28.51
27.81
26.64
25.25
23.85
22.54
21.30
20.02
18.55
16.80
14.83
12.83
11.02
9.52
8.31
7.17
5.83
4.06
1.80
-0.88
-3.78
-6.69
-9.47
-12.05
-14.43
-16.62
-18.72
-20.85
-23.17
-25.76
-28.51
-31.00
-32.53
-32.33
-29.75
-24.59
-17.20
-8.42
0.66
9.05
16.08
21.49
25.37
27.86
29.11
29.17
28.06
25.97
23.21
20.25
17.50
15.25
13.49
12.09
10.78
9.44
8.03
6.65
5.43
4.38
3.42
2.35
0.94
-0.99
-3.45
-6.31
-9.31
-12.15
-14.62
-16.63
-18.25
-19.69
-21.18
-23.02
-25.30
-27.98
-30.69
-32.82
-33.63
-32.45
-28.89
-23.00
-15.33
-6.77
1.68
9.20
15.32
19.92
23.09
25.02
25.87
25.71
24.67
22.94
20.80
18.55
16.44
14.55
12.84
11.23
9.63
8.06
6.62
5.41
4.51
3.86
3.32
2.67
1.73
0.37
-1.45
-3.63
-6.05
-8.55
-11.02
-13.38
-15.60
-17.67
-19.59
-21.44
-23.37
-25.53
-27.90
-30.21
-31.84
-31.98
-29.95
-25.43
-18.71
-10.57
-2.10
5.75
12.35
17.44
21.09
23.49
24.80
25.14
24.65
23.55
22.13
20.66
19.28
17.95
16.51
14.79
12.78
10.67
8.73
7.21
6.25
5.77
5.53
5.23
4.53
3.22
1.20
-1.49
-4.65
-7.95
-11.07
-13.77
-15.95
-17.74
-19.37
-21.14
-23.24
-25.70
-28.29
-30.53
-31.77
-31.38
-28.92
-24.35
-18.00
-10.56
-2.82
4.44
10.71
15.75
19.51
22.11
23.68
24.32
24.13
23.18
21.61
19.60
17.42
15.27
13.31
11.64
10.21
8.95
7.80
6.75
5.84
5.10
4.44
3.70
2.65
1.09
-1.04
-3.64
-6.45
-9.15
-11.47
-13.34
-14.89
-16.41
-18.23
-20.53
-23.30
-26.28
-28.99
-30.85
-31.26
-29.72
-25.97
-20.05
-12.38
-3.65
5.26
13.49
20.38
25.59
29.07
30.93
31.39
30.66
28.93
26.47
23.62
20.80
18.40
16.66
15.50
14.67
13.81
12.69
11.26
9.72
8.35
7.33
6.64
6.01
5.11
3.64
1.47
-1.36
-4.66
-8.15
-11.58
-14.70
-17.31
-19.39
-21.04
-22.49
-24.04
-25.94
-28.17
-30.45
-32.22
-32.74
-31.35
-27.66
-21.68
-13.87
-5.01
3.93
12.04
18.62
23.32
26.09
27.19
27.02
26.01
24.51
22.77
20.95
19.14
17.45
15.93
14.59
13.39
12.21
10.99
9.73
8.53
7.48
6.61
5.89
5.19
4.34
3.21
1.75
-0.06
-2.19
-4.62
-7.25
-9.94
-12.51
-14.82
-16.82
-18.56
-20.25
-22.10
-24.29
-26.82
-29.44
-31.65
-32.76
-32.05
-29.00
-23.51
-15.97
-7.20
1.76
9.90
16.49
21.19
24.07
25.40
25.55
24.89
23.69
22.17
20.53
18.95
17.55
16.36
15.31
14.21
12.87
11.14
9.09
6.92
4.92
3.33
2.23
1.48
0.79
-0.14
-1.53
-3.46
-5.80
-8.32
-10.78
-12.98
-14.83
-16.41
-17.89
-19.51
-21.42
-23.65
-26.04
-28.21
-29.71
-29.99
-28.61
-25.32
-20.16
-13.48
-5.90
1.75
8.71
14.38
18.47
20.97
22.06
22.00
21.05
19.47
17.47
15.33
13.31
11.64
10.41
9.57
8.98
8.48
7.95
7.33
6.66
5.92
5.09
4.10
2.87
1.35
-0.51
-2.68
-5.05
-7.47
-9.76
-11.74
-13.37
-14.75
-16.12
-17.82
-20.07
-22.89
-25.97
-28.73
-30.35
-30.09
-27.43
-22.34
-15.22
-6.87
1.72
9.65
16.31
21.42
24.97
27.09
27.88
27.48
26.04
23.85
21.29
18.75
16.53
14.70
13.16
11.74
10.30
8.88
7.59
6.60
5.94
5.51
5.07
4.34
3.08
1.17
-1.29
-4.08
-6.91
-9.51
-11.73
-13.54
-15.05
-16.47
-18.01
-19.84
-22.04
-24.50
-26.96
-28.93
-29.80
-28.96
-26.04
-21.02
-14.34
-6.77
0.78
7.56
13.10
17.33
20.34
22.33
23.44
23.71
23.20
22.00
20.35
18.51
16.73
15.14
13.73
12.39
11.02
9.60
8.23
7.06
6.21
5.66
5.26
4.74
3.81
2.28
0.12
-2.48
-5.25
-7.90
-10.23
-12.17
-13.85
-15.48
-17.35
-19.65
-22.44
-25.53
-28.48
-30.60
-31.16
-29.53
-25.46
-19.16
-11.31
-2.84
5.27
12.26
17.69
21.43
23.54
24.22
23.68
22.21
20.13
17.79
15.48
13.40
11.61
10.02
8.56
7.19
5.96
4.97
4.37
4.17
4.27
4.40
4.18
3.29
1.56
-0.98
-4.07
-7.34
-10.43
-13.12
-15.38
-17.33
-19.22
-21.27
-23.61
-26.21
-28.80
-30.87
-31.78
-30.89
-27.81
-22.52
-15.47
-7.43
0.68
8.04
14.06
18.49
21.31
22.72
22.99
22.43
21.30
19.85
18.24
16.57
14.88
13.21
11.59
10.09
8.78
7.71
6.87
6.19
5.51
4.66
3.49
1.89
-0.18
-2.68
-5.46
-8.35
-11.12
-13.59
-15.68
-17.49
-19.26
-21.29
-23.77
-26.60
-29.37
-31.34
-31.67
-29.71
-25.21
-18.43
-10.10
-1.15
7.49
15.11
21.26
25.75
28.55
29.72
29.45
28.00
25.77
23.20
20.67
18.45
16.65
15.21
13.95
12.73
11.45
10.12
8.81
7.60
6.51
5.44
4.20
2.58
0.46
-2.15
-5.07
-8.02
-10.72
-13.00
-14.90
-16.60
-18.41
-20.62
-23.36
-26.45
-29.48
-31.75
-32.45
-30.88
-26.66
-19.93
-11.40
-2.11
6.79
14.37
20.07
23.76
25.67
26.20
25.74
24.66
23.24
21.68
20.12
18.63
17.20
15.80
14.37
12.86
11.28
9.67
8.13
6.77
5.73
5.06
4.67
4.32
3.62
2.20
-0.15
-3.31
-6.90
-10.36
-13.27
-15.50
-17.24
-18.90
-20.98
-23.77
-27.21
-30.88
-34.04
-35.79
-35.34
-32.21
-26.39
-18.40
-9.12
0.37
9.09
16.31
21.66
25.09
26.80
27.12
26.43
25.04
23.25
21.26
19.24
17.34
15.68
14.32
13.26
12.39
11.57
10.67
9.66
8.60
7.59
6.67
5.76
4.66
3.14
1.02
-1.70
-4.86
-8.17
-11.34
-14.11
-16.37
-18.18
-19.71
-21.25
-23.09
-25.37
-27.94
-30.36
-31.86
-31.70
-29.30
-24.54
-17.77
-9.74
-1.38
6.45
13.12
18.29
21.84
23.79
24.27
23.45
21.63
19.16
16.48
14.00
11.98
10.47
9.34
8.39
7.44
6.49
5.64
5.05
4.81
4.85
4.94
4.78
4.12
2.82
0.90
-1.50
-4.20
-7.01
-9.75
-12.34
-14.75
-17.07
-19.45
-22.04
-24.90
-27.81
-30.31
-31.64
-31.02
-27.92
-22.23
-14.41
-5.37
3.77
11.98
18.59
23.37
26.43
28.07
28.57
28.10
26.79
24.81
22.41
19.91
17.67
15.83
14.39
13.16
11.92
10.59
9.21
7.96
7.00
6.39
5.98
5.48
4.58
3.03
0.81
-1.95
-4.98
-8.00
-10.76
-13.15
-15.13
-16.83
-18.50
-20.32
-22.44
-24.85
-27.26
-29.16
-29.94
-28.96
-25.83
-20.53
-13.44
-5.31
2.96
10.48
16.64
21.11
23.93
25.32
25.57
24.99
23.81
22.21
20.39
18.48
16.59
14.82
13.21
11.79
10.64
9.79
9.26
9.02
8.95
8.90
8.73
8.27
7.34
5.85
3.71
0.97
-2.21
-5.56
-8.78
-11.60
-13.94
-15.90
-17.70
-19.71
-22.18
-25.22
-28.68
-32.08
-34.76
-35.97
-35.02
-31.55
-25.58
-17.65
-8.61
0.46
8.65
15.34
20.30
23.63
25.54
26.26
25.92
24.66
22.63
20.11
17.47
15.02
12.99
11.41
10.17
9.10
8.08
7.07
6.17
5.50
5.12
4.94
4.70
4.10
2.86
0.89
-1.69
-4.62
-7.59
-10.36
-12.75
-14.70
-16.23
-17.49
-18.71
-20.21
-22.19
-24.61
-27.14
-29.08
-29.63
-28.09
-24.16
-18.01
-10.35
-2.13
5.64
12.18
17.03
20.13
21.69
22.04
21.52
20.41
18.89
17.15
15.38
13.73
12.29
11.03
9.86
8.65
7.37
6.11
5.06
4.31
3.89
3.64
3.34
2.76
1.75
0.29
-1.60
-3.83
-6.30
-8.89
-11.47
-13.90
-16.14
-18.29
-20.49
-22.94
-25.65
-28.38
-30.62
-31.60
-30.60
-27.17
-21.35
-13.65
-4.94
3.78
11.69
18.25
23.19
26.44
28.07
28.15
26.93
24.76
22.11
19.45
17.12
15.31
13.95
12.88
11.88
10.80
9.57
8.27
7.06
6.07
5.42
5.02
4.65
3.96
2.67
0.63
-2.04
-5.05
-8.08
-10.86
-13.23
-15.25
-17.08
-19.03
-21.36
-24.20
-27.40
-30.47
-32.67
-33.16
-31.28
-26.79
-19.92
-11.36
-2.09
6.88
14.70
20.81
25.01
27.39
28.23
27.85
26.59
24.79
22.71
20.63
18.70
17.02
15.53
14.12
12.67
11.12
9.51
7.94
6.59
5.53
4.79
4.24
3.62
2.64
1.02
-1.32
-4.26
-7.44
-10.49
-13.07
-15.09
-16.74
-18.35
-20.32
-22.88
-26.01
-29.34
-32.26
-34.00
-33.86
-31.40
-26.54
-19.65
-11.43
-2.75
5.49
12.60
18.08
21.78
23.79
24.39
23.87
22.57
20.81
18.78
16.69
14.65
12.79
11.16
9.82
8.74
7.92
7.32
6.85
6.38
5.75
4.77
3.31
1.30
-1.21
-4.07
-7.08
-10.08
-12.90
-15.48
-17.76
-19.73
-21.42
-22.91
-24.34
-25.83
-27.42
-28.94
-29.93
-29.82
-27.94
-23.93
-17.76
-9.91
-1.22
7.31
14.79
20.65
24.65
26.91
27.67
27.23
25.83
23.66
20.93
17.92
14.93
12.24
10.02
8.25
6.83
5.64
4.61
3.77
3.20
2.90
2.67
2.20
1.12
-0.79
-3.49
-6.67
-9.85
-12.62
-14.84
-16.69
-18.54
-20.78
-23.61
-26.93
-30.24
-32.80
-33.80
-32.52
-28.64
-22.20
-13.79
-4.34
5.03
13.30
19.73
23.96
26.03
26.21
25.01
22.90
20.34
17.71
15.32
13.37
11.96
11.08
10.54
10.16
9.72
9.08
8.27
7.32
6.29
5.15
3.80
2.09
-0.05
-2.55
-5.19
-7.66
-9.79
-11.53
-13.08
-14.77
-16.93
-19.69
-22.89
-26.03
-28.37
-29.15
-27.74
-23.84
-17.58
-9.54
-0.59
8.22
15.93
21.86
25.70
27.56
27.82
26.95
25.39
23.48
21.43
19.41
17.56
15.97
14.65
13.53
12.48
11.42
10.33
9.26
8.29
7.43
6.56
5.47
3.90
1.67
-1.19
-4.48
-7.87
-11.00
-13.68
-15.93
-17.89
-19.83
-21.98
-24.38
-26.88
-29.10
-30.42
-30.20
-27.90
-23.30
-16.61
-8.52
0.00
7.99
14.71
19.79
23.16
24.97
25.46
24.87
23.50
21.67
19.72
17.94
16.49
15.39
14.48
13.59
12.56
11.31
9.88
8.36
6.91
5.62
4.52
3.50
2.37
0.90
-1.04
-3.42
-6.07
-8.77
-11.29
-13.51
-15.45
-17.26
-19.13
-21.25
-23.65
-26.20
-28.54
-30.07
-30.13
-28.14
-23.85
-17.42
-9.49
-1.03
6.97
13.70
18.73
22.02
23.77
24.33
23.95
22.81
21.07
18.92
16.69
14.72
13.26
12.35
11.86
11.50
10.97
10.20
9.25
8.31
7.57
7.04
6.55
5.80
4.52
2.55
0.00
-2.90
-5.84
-8.55
-10.88
-12.83
-14.55
-16.25
-18.17
-20.42
-23.06
-25.86
-28.41
-30.13
-30.41
-28.79
-25.04
-19.32
-12.10
-4.16
3.68
10.67
16.28
20.31
22.80
23.97
24.08
23.40
22.12
20.42
18.55
16.73
15.17
13.99
13.16
12.49
11.77
10.83
9.67
8.43
7.25
6.25
5.36
4.40
3.08
1.17
-1.37
-4.36
-7.44
-10.30
-12.71
-14.67
-16.36
-18.05
-19.96
-22.16
-24.59
-27.00
-29.00
-30.09
-29.73
-27.45
-23.05
-16.64
-8.81
-0.46
7.47
14.22
19.36
22.80
24.64
25.05
24.22
22.38
19.78
16.87
14.11
11.95
10.64
10.15
10.25
10.53
10.63
10.34
9.66
8.76
7.79
6.76
5.46
3.59
0.94
-2.39
-6.04
-9.45
-12.21
-14.17
-15.51
-16.65
-18.01
-19.95
-22.56
-25.66
-28.87
-31.54
-32.94
-32.29
-29.07
-23.18
-15.06
-5.57
4.23
13.34
21.04
26.99
31.20
33.86
35.16
35.24
34.22
32.20
29.45
26.31
23.13
20.21
17.63
15.30
13.01
10.64
8.23
6.02
4.32
3.29
2.81
2.54
1.99
0.76
-1.27
-4.02
-7.21
-10.55
-13.84
-16.96
-19.85
-22.51
-24.99
-27.38
-29.68
-31.77
-33.31
-33.77
-32.56
-29.31
-23.98
-16.97
-9.02
-0.98
6.33
12.40
16.95
20.00
21.72
22.31
22.01
20.99
19.42
17.52
15.56
13.80
12.38
11.34
10.58
9.96
9.39
8.83
8.29
7.78
7.18
6.34
5.06
3.20
0.77
-2.09
-5.15
-8.12
-10.79
-13.06
-14.98
-16.71
-18.53
-20.72
-23.44
-26.59
-29.78
-32.32
-33.42
-32.40
-28.91
-23.10
-15.56
-7.21
1.01
8.32
14.27
18.67
21.62
23.28
23.85
23.50
22.36
20.64
18.53
16.29
14.14
12.23
10.62
9.27
8.16
7.23
6.50
5.97
5.60
5.26
4.71
3.72
2.03
-0.39
-3.44
-6.84
-10.24
-13.26
-15.75
-17.74
-19.49
-21.30
-23.42
-25.82
-28.16
-29.80
-29.97
-28.08
-23.87
-17.58
-9.85
-1.57
6.38
13.26
18.64
22.30
24.31
24.85
24.21
22.76
20.80
18.67
16.58
14.73
13.20
11.95
10.92
9.99
9.11
8.28
7.55
6.96
6.44
5.83
4.87
3.32
1.08
-1.76
-4.91
-8.05
-10.87
-13.29
-15.37
-17.32
-19.40
-21.78
-24.46
-27.16
-29.40
-30.55
-29.98
-27.20
-22.11
-15.01
-6.63
2.00
9.90
16.25
20.65
23.14
24.12
24.08
23.47
22.57
21.42
19.97
18.15
15.97
13.57
11.13
8.80
6.68
4.79
3.16
1.81
0.78
0.10
-0.33
-0.69
-1.24
-2.22
-3.76
-5.81
-8.16
-10.49
-12.53
-14.16
-15.53
-16.95
-18.84
-21.47
-24.75
-28.11
-30.60
-31.23
-29.27
-24.56
-17.57
-9.26
-0.70
7.13
13.67
18.66
22.11
24.13
24.88
24.52
23.31
21.59
19.72
18.02
16.67
15.66
14.87
14.11
13.24
12.21
11.12
10.05
9.08
8.18
7.20
5.97
4.32
2.18
-0.42
-3.35
-6.46
-9.57
-12.54
-15.31
-17.91
-20.49
-23.17
-26.02
-28.85
-31.26
-32.58
-32.10
-29.26
-23.89
-16.37
-7.49
1.74
10.31
17.49
22.87
26.40
28.29
28.87
28.48
27.41
25.90
24.15
22.26
20.32
18.40
16.54
14.79
13.19
11.81
10.66
9.78
9.13
8.61
8.09
7.40
6.44
5.15
3.59
1.88
0.10
-1.68
-3.51
-5.50
-7.82
-10.56
-13.67
-16.89
-19.77
-21.69
-22.08
-20.62
-17.27
-12.47
-6.92
-1.44
3.29
6.83
9.10
10.25
10.63
10.64
10.62
10.76
11.11
11.52
11.80
11.79
11.42
10.78
9.98
9.13
8.27
7.40
6.42
5.28
3.94
2.38
0.66
-1.13
-2.83
-4.21
-4.99
-5.06
-4.51
-3.69
-3.18
-3.60
-5.32
-8.39
-12.36
-16.42
-19.59
-20.99
-20.08
-16.84
-11.69
-5.38
1.18
7.23
12.15
15.65
17.70
18.45
18.11
16.93
15.12
12.81
10.09
7.04
3.77
0.49
-2.50
-4.91
-6.50
-7.17
-7.01
-6.19
-5.00
-3.78
-2.82
-2.42
-2.81
-4.17
-6.52
-9.71
-13.44
-17.32
-21.08
-24.60
-28.05
-31.57
-35.22
-38.65
-41.21
-41.96
-40.20
-35.63
-28.60
-20.02
-11.04
-2.73
4.21
9.49
13.25
15.87
17.79
19.40
20.98
22.65
24.38
26.05
27.42
28.24
28.25
27.21
25.04
21.76
17.61
13.03
8.53
4.65
1.78
0.16
-0.22
0.46
1.88
3.74
5.73
7.57
8.94
9.41
8.53
5.87
1.25
-5.21
-12.92
-20.97
-28.26
-33.70
-36.48
-36.11
-32.54
-26.13
-17.75
-8.53
0.27
7.57
12.73
15.67
16.81
16.87
16.54
16.29
16.26
16.33
16.31
16.07
15.58
14.85
13.95
12.88
11.63
10.23
8.77
7.37
6.20
5.25
4.42
3.44
2.05
0.10
-2.33
-5.00
-7.60
-9.84
-11.62
-13.07
-14.43
-16.01
-18.08
-20.68
-23.64
-26.47
-28.48
-28.89
-27.10
-22.88
-16.53
-8.82
-0.75
6.74
12.97
17.64
20.77
22.58
23.31
23.19
22.45
21.34
20.10
18.94
17.94
17.09
16.34
15.62
14.92
14.29
13.77
13.38
13.03
12.59
11.87
10.67
8.85
6.40
3.45
0.27
-2.91
-5.90
-8.63
-11.19
-13.72
-16.37
-19.20
-22.20
-25.24
-28.07
-30.34
-31.52
-31.07
-28.60
-24.03
-17.73
-10.43
-3.07
3.57
8.95
12.93
15.59
17.15
17.80
17.70
16.98
15.81
14.44
13.11
11.98
11.09
10.35
9.60
8.66
7.50
6.17
4.84
3.66
2.75
2.04
1.34
0.43
-0.87
-2.59
-4.69
-7.00
-9.38
-11.72
-13.93
-16.00
-17.94
-19.83
-21.78
-23.83
-25.91
-27.66
-28.57
-28.09
-25.84
-21.76
-16.12
-9.42
-2.31
4.56
10.59
15.29
18.32
19.65
19.51
18.34
16.70
15.06
13.65
12.53
11.61
10.82
10.11
9.49
9.02
8.69
8.47
8.27
7.95
7.37
6.44
5.14
3.50
1.58
-0.53
-2.72
-4.88
-6.90
-8.66
-10.18
-11.54
-12.94
-14.61
-16.69
-19.06
-21.33
-22.85
-22.96
-21.20
-17.44
-11.99
-5.43
1.44
7.84
13.17
17.02
19.27
20.07
19.79
18.85
17.67
16.47
15.34
14.19
12.93
11.49
9.92
8.32
6.79
5.41
4.19
3.11
2.10
1.12
0.09
-1.12
-2.61
-4.49
-6.72
-9.19
-11.69
-14.08
-16.31
-18.51
-20.91
-23.67
-26.76
-29.85
-32.36
-33.66
-33.24
-30.80
-26.42
-20.45
-13.50
-6.28
0.57
6.51
11.25
14.73
17.08
18.53
19.32
19.63
19.59
19.27
18.69
17.90
16.86
15.55
13.94
12.06
10.03
8.05
6.34
5.03
4.08
3.29
2.35
1.01
-0.85
-3.13
-5.60
-7.96
-10.04
-11.78
-13.36
-15.06
-17.18
-19.86
-22.95
-26.02
-28.43
-29.46
-28.62
-25.67
-20.79
-14.45
-7.35
-0.26
6.19
11.53
15.57
18.33
19.97
20.70
20.74
20.27
19.47
18.51
17.57
16.75
16.06
15.41
14.64
13.61
12.29
10.73
9.14
7.67
6.45
5.49
4.64
3.75
2.61
1.14
-0.65
-2.64
-4.70
-6.68
-8.51
-10.25
-12.02
-14.05
-16.50
-19.42
-22.64
-25.72
-28.03
-28.88
-27.76
-24.48
-19.25
-12.61
-5.30
1.97
8.58
14.14
18.43
21.39
23.11
23.78
23.72
23.24
22.61
22.02
21.53
21.11
20.72
20.32
19.89
19.39
18.84
18.20
17.54
16.91
16.39
16.00
15.65
15.20
14.43
13.26
11.71
10.02
8.48
7.39
6.88
6.92
7.24
7.50
7.38
6.79
5.97
5.42
5.89
8.06
12.25
18.36
25.84
34.03
42.40
50.79
59.25
67.90
76.54
84.56
91.09
95.30
96.74
95.52
92.25
87.89
83.60
80.62
79.94
81.99
86.09
90.35
91.97
88.15
77.14
59.14
36.28
11.80
-11.22
-31.11
-48.12
-64.05
-81.35
-101.76
-125.59
-151.29
-176.07
-196.70
-210.69
-216.94
-215.99
-209.55
-199.61
-187.71
-174.54
-160.08
-144.02
-126.19
-106.66
-85.76
-63.94
-41.84
-20.37
-0.85
15.28
26.95
33.96
37.07
37.89
38.05
38.67
39.95
41.34
42.01
41.35
39.10
35.32
30.22
24.03
17.10
9.97
3.44
-1.64
-4.75
-5.98
-6.03
-5.98
-6.82
-9.05
-12.52
-16.62
-20.60
-23.89
-26.32
-28.08
-29.60
-31.34
-33.54
-36.11
-38.55
-40.06
-39.79
-37.20
-32.34
-25.74
-18.25
-10.63
-3.31
3.63
10.31
16.78
22.94
28.53
33.36
37.39
40.75
43.61
46.01
47.90
49.12
49.64
49.53
48.95
48.08
47.01
45.73
44.33
42.94
41.74
40.84
40.19
39.49
38.30
36.16
32.87
28.50
23.37
17.85
12.28
6.81
1.44
-3.91
-9.35
-14.98
-20.73
-26.36
-31.43
-35.33
-37.39
-37.04
-34.10
-28.81
-21.89
-14.37
-7.29
-1.54
2.39
4.34
4.49
3.18
0.93
-1.82
-4.63
-7.27
-9.64
-11.76
-13.70
-15.47
-16.98
-18.09
-18.76
-19.09
-19.32
-19.74
-20.52
-21.70
-23.05
-24.25
-24.91
-24.70
-23.38
-20.79
-16.89
-11.80
-5.88
0.28
5.97
10.63
14.09
16.68
19.17
22.54
27.66
35.04
44.79
56.58
69.84
83.86
97.78
110.78
122.09
131.12
137.50
141.08
141.78
139.51
134.18
125.66
114.03
99.75
83.61
66.68
50.08
34.73
21.22
9.91
0.80
-6.30
-11.77
-16.08
-19.71
-23.05
-26.44
-30.10
-34.15
-38.74
-43.91
-49.71
-56.14
-63.09
-70.39
-77.85
-85.25
-92.28
-98.53
-103.35
-105.99
-105.81
-102.51
-96.38
-88.37
-79.79
-71.90
-65.54
-60.78
-57.03
-53.57
-49.83
-45.82
-41.97
-38.96
-37.51
-38.28
-41.78
-48.35
-58.11
-70.72
-85.37
-100.67
-114.89
-126.30
-133.49
-135.55
-132.09
-123.20
-109.33
-91.35
-70.43
-48.02
-25.65
-4.75
13.51
28.36
39.35
46.40
49.74
49.77
47.25
43.13
38.58
34.70
32.41
32.19
34.04
37.52
41.81
46.06
49.55
51.86
52.86
52.63
51.38
49.37
46.86
44.05
41.11
38.16
35.25
32.44
29.74
27.21
24.87
22.79
20.97
19.45
18.18
17.07
15.97
14.65
12.95
10.72
7.98
4.87
1.65
-1.42
-4.13
-6.42
-8.38
-10.15
-11.95
-14.00
-16.49
-19.45
-22.67
-25.63
-27.55
-27.66
-25.44
-20.90
-14.57
-7.38
-0.23
6.20
11.64
16.07
19.60
22.30
24.16
25.18
25.48
25.25
24.74
24.08
23.32
22.46
21.48
20.42
19.36
18.41
17.63
16.93
16.20
15.19
13.75
11.78
9.27
6.36
3.27
0.25
-2.53
-5.01
-7.32
-9.75
-12.56
-15.95
-19.88
-24.06
-27.90
-30.68
-31.68
-30.37
-26.60
-20.62
-13.06
-4.77
3.34
10.58
16.56
21.18
24.58
26.95
28.46
29.22
29.34
28.91
28.07
26.97
25.72
24.34
22.77
20.95
18.92
16.84
14.93
13.37
12.17
11.19
10.10
8.59
6.46
3.70
0.50
-2.88
-6.16
-9.17
-11.89
-14.49
-17.22
-20.31
-23.79
-27.37
-30.43
-32.10
-31.57
-28.37
-22.54
-14.65
-5.65
3.47
11.90
19.13
24.94
29.30
32.25
33.84
34.20
33.52
32.08
30.23
28.27
26.42
24.77
23.26
21.81
20.30
18.74
17.22
15.85
14.72
13.80
12.88
11.68
9.90
7.39
4.17
0.49
-3.36
-7.08
-10.54
-13.74
-16.79
-19.89
-23.18
-26.77
-30.60
-34.40
-37.65
-39.63
-39.61
-37.02
-31.75
-24.13
-14.96
-5.23
4.09
12.32
19.07
24.29
28.05
30.46
31.65
31.68
30.72
29.01
26.90
24.71
22.73
21.04
19.59
18.24
16.83
15.28
13.64
12.04
10.57
9.25
8.03
6.74
5.28
3.58
1.70
-0.20
-2.01
-3.72
-5.45
-7.37
-9.68
-12.51
-15.96
-20.06
-24.71
-29.69
-34.44
-38.18
-39.99
-39.17
-35.43
-29.07
-20.82
-11.64
-2.50
5.93
13.16
18.91
23.06
25.61
26.67
26.51
25.51
24.01
22.31
20.55
18.72
16.81
14.83
12.83
10.93
9.26
7.94
7.04
6.57
6.38
6.27
5.98
5.24
3.85
1.78
-0.88
-3.86
-6.89
-9.80
-12.51
-15.12
-17.84
-20.89
-24.35
-28.12
-31.74
-34.48
-35.54
-34.18
-30.09
-23.39
-14.70
-4.94
4.87
13.83
21.31
27.00
30.89
33.13
33.97
33.68
32.49
30.60
28.21
25.54
22.76
20.05
17.49
15.11
12.93
11.01
9.41
8.22
7.45
6.98
6.57
5.94
4.79
2.94
0.33
-2.93
-6.62
-10.39
-13.95
-17.14
-19.99
-22.74
-25.65
-28.87
-32.34
-35.67
-38.19
-39.16
-37.92
-34.10
-27.80
-19.51
-10.09
-0.53
8.26
15.66
21.40
25.50
28.12
29.44
29.62
28.82
27.31
25.42
23.43
21.53
19.67
17.67
15.34
12.68
9.91
7.42
5.62
4.68
4.53
4.79
5.04
4.87
4.06
2.55
0.43
-2.18
-5.09
-8.19
-11.35
-14.51
-17.65
-20.85
-24.21
-27.80
-31.55
-35.13
-37.95
-39.26
-38.38
-34.93
-29.00
-21.15
-12.32
-3.54
4.32
10.79
15.69
19.12
21.29
22.35
22.44
21.68
20.27
18.47
16.58
14.81
13.23
11.81
10.43
9.05
7.68
6.50
5.66
5.26
5.25
5.39
5.41
5.08
4.33
3.24
2.01
0.82
-0.26
-1.22
-2.20
-3.32
-4.76
-6.66
-9.13
-12.17
-15.60
-18.93
-21.42
-22.27
-20.81
-16.78
-10.40
-2.31
6.61
15.51
23.66
30.54
35.78
39.15
40.64
40.49
39.18
37.29
35.28
33.36
31.46
29.34
26.72
23.53
19.83
15.84
11.78
7.87
4.24
0.96
-1.97
-4.63
-7.15
-9.68
-12.25
-14.80
-17.23
-19.48
-21.63
-23.90
-26.61
-29.97
-34.08
-38.80
-43.79
-48.56
-52.51
-55.00
-55.35
-53.07
-47.97
-40.31
-30.76
-20.17
-9.41
0.89
10.29
18.58
25.62
31.26
35.39
37.95
39.07
39.00
38.03
36.36
34.06
31.10
27.45
23.24
18.79
14.54
10.99
8.44
6.91
6.15
5.72
5.18
4.33
3.22
2.08
1.18
0.57
0.06
-0.87
-2.85
-6.41
-11.76
-18.65
-26.38
-33.90
-40.05
-43.80
-44.57
-42.28
-37.40
-30.71
-23.14
-15.55
-8.60
-2.68
2.05
5.55
7.81
8.90
8.94
8.13
6.76
5.17
3.67
2.44
1.51
0.80
0.18
-0.40
-0.92
-1.25
-1.28
-0.99
-0.57
-0.32
-0.57
-1.56
-3.32
-5.64
-8.14
-10.41
-12.13
-13.22
-13.83
-14.28
-14.93
-16.09
-17.82
-19.94
-22.07
-23.61
-23.99
-22.76
-19.70
-14.91
-8.74
-1.75
5.40
12.10
17.85
22.40
25.67
27.81
29.01
29.43
29.16
28.26
26.77
24.86
22.78
20.77
19.05
17.60
16.28
14.88
13.21
11.24
9.07
6.89
4.83
2.94
1.07
-0.98
-3.43
-6.41
-9.91
-13.78
-17.74
-21.51
-24.82
-27.54
-29.68
-31.42
-33.07
-34.96
-37.36
-40.25
-43.29
-45.85
-47.17
-46.55
-43.59
-38.28
-31.01
-22.47
-13.39
-4.46
3.84
11.26
17.67
23.02
27.21
30.23
32.03
32.75
32.61
31.87
30.79
29.48
27.96
26.15
24.09
21.84
19.66
17.76
16.28
15.26
14.53
13.82
12.85
11.42
9.48
7.17
4.70
2.30
0.11
-1.90
-3.89
-6.08
-8.71
-11.91
-15.67
-19.76
-23.77
-27.10
-29.13
-29.30
-27.30
-23.16
-17.24
-10.09
-2.43
5.07
11.84
17.43
21.60
24.22
25.39
25.35
24.47
23.14
21.68
20.31
19.06
17.86
16.57
15.11
13.46
11.72
10.03
8.55
7.38
6.48
5.73
4.91
3.81
2.25
0.21
-2.23
-4.89
-7.52
-9.96
-12.14
-14.14
-16.13
-18.35
-20.96
-23.88
-26.80
-29.06
-29.92
-28.73
-25.15
-19.33
-11.85
-3.62
4.42
11.52
17.27
21.53
24.40
26.00
26.50
26.10
24.98
23.43
21.77
20.25
18.95
17.82
16.63
15.16
13.30
11.13
8.87
6.79
5.10
3.83
2.80
1.73
0.36
-1.44
-3.64
-6.04
-8.41
-10.57
-12.49
-14.31
-16.28
-18.70
-21.81
-25.57
-29.65
-33.38
-35.87
-36.28
-34.07
-29.16
-22.02
-13.52
-4.68
3.54
10.39
15.53
18.97
21.00
22.08
22.67
23.08
23.45
23.70
23.69
23.28
22.41
21.09
19.41
17.45
15.39
13.42
11.76
10.58
9.91
9.57
9.24
8.51
7.01
4.64
1.48
-2.17
-5.95
-9.56
-12.87
-15.85
-18.58
-21.21
-23.92
-26.91
-30.26
-33.87
-37.36
-40.07
-41.20
-40.09
-36.47
-30.56
-23.05
-14.82
-6.76
0.46
6.42
11.00
14.21
16.22
17.23
17.49
17.26
16.79
16.21
15.63
15.04
14.38
13.58
12.59
11.49
10.44
9.67
9.34
9.43
9.76
9.97
9.72
8.76
7.03
4.69
1.96
-0.88
-3.67
-6.30
-8.84
-11.38
-14.03
-16.88
-19.86
-22.76
-25.21
-26.68
-26.64
-24.64
-20.50
-14.36
-6.75
1.60
9.90
17.42
23.67
28.36
31.37
32.74
32.62
31.27
29.06
26.38
23.57
20.85
18.31
15.91
13.62
11.46
9.48
7.80
6.52
5.67
5.23
5.06
4.94
4.61
3.81
2.35
0.19
-2.53
-5.59
-8.69
-11.57
-14.12
-16.34
-18.41
-20.61
-23.21
-26.30
-29.64
-32.68
-34.61
-34.63
-32.20
-27.22
-20.08
-11.56
-2.60
5.90
13.28
19.18
23.49
26.33
27.85
28.24
27.64
26.19
24.10
21.65
19.11
16.74
14.64
12.82
11.21
9.81
8.63
7.75
7.19
6.90
6.74
6.52
6.05
5.15
3.70
1.61
-1.10
-4.29
-7.76
-11.23
-14.43
-17.22
-19.64
-21.87
-24.20
-26.87
-29.95
-33.25
-36.30
-38.38
-38.75
-36.82
-32.31
-25.46
-16.89
-7.56
1.49
9.40
15.60
19.93
22.51
23.64
23.65
22.85
21.48
19.74
17.82
15.90
14.13
12.62
11.42
10.50
9.80
9.22
8.72
8.28
7.91
7.56
7.09
6.31
4.97
2.89
0.10
-3.18
-6.63
-9.92
-12.85
-15.31
-17.34
-18.99
-20.40
-21.78
-23.36
-25.37
-27.82
-30.44
-32.57
-33.40
-32.20
-28.59
-22.75
-15.26
-6.95
1.33
8.92
15.40
20.56
24.35
26.81
28.07
28.28
27.64
26.39
24.81
23.17
21.72
20.59
19.74
19.03
18.22
17.12
15.74
14.21
12.78
11.60
10.67
9.74
8.42
6.38
3.50
-0.05
-3.86
-7.47
-10.51
-12.91
-14.79
-16.49
-18.37
-20.65
-23.44
-26.62
-29.83
-32.46
-33.80
-33.18
-30.14
-24.66
-17.17
-8.49
0.40
8.59
15.46
20.67
24.22
26.28
27.15
27.15
26.52
25.43
23.99
22.24
20.26
18.20
16.22
14.51
13.16
12.15
11.36
10.69
10.02
9.35
8.65
7.85
6.78
5.24
3.09
0.35
-2.81
-6.11
-9.25
-11.98
-14.22
-16.04
-17.60
-19.19
-21.10
-23.53
-26.52
-29.80
-32.84
-34.93
-35.35
-33.60
-29.51
-23.27
-15.45
-6.89
1.55
9.08
15.18
19.67
22.69
24.50
25.42
25.65
25.22
24.17
22.54
20.53
18.43
16.54
14.95
13.62
12.36
11.02
9.56
8.07
6.77
5.79
5.11
4.53
3.78
2.60
0.85
-1.40
-4.01
-6.76
-9.49
-12.10
-14.59
-16.95
-19.26
-21.56
-23.93
-26.45
-29.17
-31.99
-34.63
-36.58
-37.15
-35.72
-31.92
-25.78
-17.82
-8.89
0.04
8.11
14.73
19.63
22.79
24.39
24.69
24.04
22.78
21.22
19.60
18.03
16.57
15.23
13.98
12.82
11.71
10.68
9.76
9.00
8.46
8.17
8.07
7.95
7.54
6.57
4.95
2.81
0.45
-1.76
-3.55
-4.81
-5.66
-6.32
-7.10
-8.20
-9.73
-11.64
-13.75
-15.66
-16.85
-16.68
-14.52
-10.00
-3.11
5.74
15.72
25.86
35.21
43.05
49.05
53.14
55.48
56.28
55.83
54.44
52.43
50.10
47.57
44.82
41.76
38.28
34.41
30.36
26.41
22.82
19.64
16.67
13.55
9.92
5.47
0.12
-6.02
-12.74
-19.77
-26.98
-34.31
-41.81
-49.55
-57.60
-65.91
-74.34
-82.51
-89.82
-95.38
-98.22
-97.49
-92.77
-84.26
-72.79
-59.62
-46.20
-33.74
-23.10
-14.64
-8.37
-4.12
-1.55
-0.27
0.20
0.35
0.67
1.52
3.05
5.18
7.66
10.13
12.34
14.15
15.55
16.67
17.60
18.45
19.25
19.94
20.40
20.47
20.03
19.01
17.53
15.84
14.26
13.12
12.61
12.70
13.24
13.90
14.26
13.89
12.38
9.56
5.53
0.87
-3.55
-6.73
-7.84
-6.54
-3.05
1.92
7.45
12.68
17.00
20.14
22.08
22.91
22.72
21.60
19.61
16.92
13.90
10.97
8.53
6.81
5.72
5.00
4.31
3.46
2.50
1.68
1.25
1.31
1.62
1.70
0.89
-1.30
-5.03
-10.07
-15.82
-21.53
-26.51
-30.35
-32.92
-34.41
-35.13
-35.42
-35.59
-35.80
-36.09
-36.30
-36.10
-35.03
-32.61
-28.53
-22.74
-15.57
-7.62
0.37
7.65
13.67
18.09
20.87
22.15
22.23
21.41
20.03
18.37
16.68
15.16
13.91
12.95
12.20
11.51
10.79
10.09
9.58
9.41
9.62
9.99
10.13
9.59
8.16
5.87
3.09
0.25
-2.34
-4.59
-6.60
-8.56
-10.62
-12.84
-15.18
-17.57
-19.78
-21.48
-22.13
-21.19
-18.25
-13.25
-6.58
0.99
8.57
15.38
20.87
24.79
27.09
27.84
27.23
25.48
22.93
19.94
16.91
14.15
11.84
10.00
8.52
7.26
6.11
5.03
4.11
3.38
2.88
2.49
2.00
1.14
-0.25
-2.24
-4.72
-7.47
-10.24
-12.88
-15.30
-17.60
-19.94
-22.53
-25.52
-28.79
-31.93
-34.22
-34.87
-33.19
-28.93
-22.40
-14.46
-6.19
1.40
7.62
12.22
15.30
17.11
17.96
18.06
17.58
16.68
15.54
14.37
13.35
12.65
12.28
12.18
12.19
12.14
11.91
11.53
11.09
10.69
10.36
9.92
9.06
7.49
5.06
1.87
-1.77
-5.47
-8.89
-11.83
-14.31
-16.49
-18.59
-20.81
-23.26
-25.84
-28.19
-29.69
-29.63
-27.38
-22.72
-15.89
-7.60
1.14
9.35
16.29
21.60
25.27
27.48
28.46
28.41
27.46
25.75
23.50
20.99
18.49
16.20
14.16
12.36
10.70
9.17
7.80
6.70
5.90
5.28
4.65
3.70
2.27
0.23
-2.37
-5.42
-8.68
-11.92
-14.91
-17.49
-19.62
-21.44
-23.24
-25.33
-27.89
-30.87
-34.01
-36.80
-38.66
-39.00
-37.41
-33.64
-27.82
-20.35
-11.99
-3.62
3.89
9.93
14.23
16.84
18.03
18.18
17.64
16.70
15.58
14.44
13.41
12.59
12.01
11.61
11.31
11.02
10.68
10.29
9.91
9.62
9.42
9.22
8.82
7.97
6.51
4.44
1.97
-0.60
-2.95
-4.89
-6.39
-7.64
-8.88
-10.41
-12.43
-14.89
-17.48
-19.66
-20.74
-20.09
-17.35
-12.54
-6.08
1.35
8.98
16.12
22.17
26.75
29.66
30.90
30.65
29.22
26.99
24.33
21.57
18.93
16.56
14.62
13.21
12.36
12.00
11.96
12.02
11.97
11.65
10.97
9.90
8.37
6.31
3.73
0.69
-2.58
-5.75
-8.54
-10.79
-12.56
-14.10
-15.81
-18.01
-20.89
-24.30
-27.79
-30.66
-32.10
-31.50
-28.52
-23.28
-16.31
-8.41
-0.45
6.81
12.83
17.36
20.36
21.95
22.32
21.72
20.38
18.54
16.48
14.48
12.79
11.55
10.74
10.18
9.67
9.05
8.31
7.57
6.94
6.40
5.76
4.69
2.90
0.31
-2.87
-6.27
-9.41
-11.98
-13.91
-15.32
-16.56
-18.00
-19.95
-22.57
-25.79
-29.22
-32.23
-34.02
-33.84
-31.24
-26.24
-19.33
-11.38
-3.35
3.87
9.74
14.01
16.77
18.23
18.66
18.30
17.36
16.08
14.65
13.31
12.20
11.38
10.78
10.24
9.59
8.74
7.73
6.70
5.84
5.24
4.89
4.61
4.15
3.25
1.85
-0.00
-2.07
-4.07
-5.75
-7.00
-7.85
-8.49
-9.25
-10.41
-12.24
-14.84
-17.91
-20.91
-23.01
-23.35
-21.38
-17.02
-10.76
-3.49
3.80
10.33
15.68
19.75
22.64
24.43
25.14
24.81
23.54
21.59
19.33
17.09
15.11
13.49
12.19
11.12
10.18
9.33
8.49
7.62
6.64
5.55
4.39
3.20
1.97
0.62
-1.00
-3.00
-5.43
-8.25
-11.32
-14.40
-17.36
-20.04
-22.37
-24.32
-25.97
-27.48
-29.09
-30.92
-32.90
-34.72
-35.78
-35.48
-33.34
-29.24
-23.43
-16.51
-9.27
-2.42
3.48
8.13
11.43
13.45
14.36
14.43
13.97
13.30
12.69
12.33
12.27
12.46
12.80
13.17
13.49
13.72
13.81
13.76
13.61
13.39
13.18
12.92
12.54
11.80
10.52
8.55
5.93
2.84
-0.39
-3.44
-6.08
-8.21
-9.96
-11.49
-13.08
-14.96
-17.24
-19.86
-22.46
-24.51
-25.33
-24.35
-21.26
-16.17
-9.56
-2.22
5.04
11.48
16.63
20.31
22.59
23.70
23.89
23.45
22.57
21.38
20.02
18.63
17.39
16.47
15.93
15.67
15.46
15.03
14.20
12.97
11.52
10.07
8.73
7.45
6.00
4.10
1.60
-1.39
-4.59
-7.60
-10.14
-12.14
-13.76
-15.30
-17.07
-19.24
-21.78
-24.46
-26.91
-28.70
-29.31
-28.30
-25.41
-20.66
-14.44
-7.46
-0.52
5.68
10.72
14.50
17.15
18.89
19.89
20.26
20.05
19.41
18.52
17.59
16.77
16.10
15.46
14.75
13.83
12.71
11.48
10.26
9.15
8.17
7.27
6.35
5.30
3.98
2.30
0.21
-2.23
-4.90
-7.58
-10.07
-12.21
-14.00
-15.61
-17.31
-19.42
-22.16
-25.52
-29.25
-32.76
-35.36
-36.30
-35.02
-31.27
-25.24
-17.51
-8.99
-0.64
6.69
12.45
16.49
18.97
20.18
20.47
20.11
19.31
18.20
16.97
15.75
14.65
13.70
12.89
12.22
11.77
11.62
11.84
12.34
12.91
13.21
12.99
12.11
10.65
8.80
6.78
4.73
2.58
0.23
-2.48
-5.53
-8.78
-11.99
-14.95
-17.51
-19.65
-21.48
-23.14
-24.83
-26.68
-28.79
-31.05
-33.19
-34.69
-34.95
-33.44
-29.88
-24.42
-17.56
-10.05
-2.65
3.95
9.29
13.11
15.41
16.41
16.45
15.94
15.17
14.31
13.46
12.62
11.84
11.18
10.69
10.34
10.07
9.76
9.37
8.89
8.36
7.81
7.17
6.40
5.45
4.36
3.14
1.80
0.26
-1.55
-3.70
-6.16
-8.81
-11.48
-13.95
-16.08
-17.79
-19.10
-20.13
-21.11
-22.29
-23.82
-25.65
-27.33
-28.19
-27.46
-24.61
-19.55
-12.72
-5.03
2.57
9.25
14.61
18.62
21.53
23.63
25.09
25.94
26.12
25.61
24.52
23.12
21.71
20.51
19.63
18.98
18.43
17.84
17.12
16.31
15.45
14.58
13.69
12.70
11.47
9.90
7.97
5.68
3.15
0.52
-2.10
-4.61
-6.97
-9.16
-11.18
-13.05
-14.92
-16.96
-19.38
-22.27
-25.39
-28.26
-30.10
-30.14
-27.86
-23.24
-16.76
-9.28
-1.81
4.91
10.41
14.55
17.45
19.25
20.09
20.08
19.35
18.10
16.66
15.29
14.22
13.49
13.01
12.61
12.12
11.44
10.60
9.74
8.99
8.46
8.15
7.93
7.52
6.63
5.01
2.57
-0.54
-4.07
-7.71
-11.18
-14.33
-17.18
-19.78
-22.27
-24.78
-27.38
-30.11
-32.88
-35.39
-37.17
-37.55
-35.94
-31.97
-25.67
-17.52
-8.37
0.87
9.36
16.57
22.26
26.45
29.24
30.76
31.13
30.47
28.99
26.95
24.67
22.44
20.49
18.95
17.89
17.27
16.98
16.85
16.65
16.19
15.33
14.05
12.36
10.33
8.03
5.53
2.88
0.11
-2.74
-5.65
-8.59
-11.49
-14.29
-16.93
-19.37
-21.60
-23.65
-25.66
-27.76
-30.06
-32.51
-34.80
-36.33
-36.34
-34.14
-29.40
-22.35
-13.80
-4.80
3.56
10.55
15.77
19.21
21.03
21.50
20.94
19.66
18.03
16.37
14.86
13.60
12.54
11.59
10.70
9.89
9.21
8.68
8.24
7.80
7.27
6.59
5.70
4.60
3.29
1.72
-0.16
-2.36
-4.85
-7.53
-10.21
-12.76
-15.03
-17.01
-18.75
-20.38
-22.01
-23.78
-25.76
-27.95
-30.30
-32.56
-34.25
-34.73
-33.35
-29.65
-23.67
-15.93
-7.29
1.22
8.78
14.85
19.24
22.05
23.55
24.04
23.82
23.11
22.04
20.71
19.26
17.88
16.78
16.14
15.97
16.08
16.17
15.97
15.35
14.36
13.18
12.02
10.94
9.82
8.46
6.64
4.24
1.39
-1.66
-4.54
-6.99
-8.88
-10.33
-11.64
-13.18
-15.25
-17.92
-20.99
-23.92
-26.03
-26.56
-24.95
-21.01
-14.98
-7.55
0.39
7.91
14.27
19.10
22.30
24.04
24.61
24.31
23.39
22.07
20.52
18.86
17.23
15.69
14.24
12.86
11.55
10.29
9.10
8.04
7.17
6.53
6.06
5.65
5.07
4.08
2.46
0.13
-2.80
-6.00
-9.08
-11.72
-13.79
-15.45
-17.03
-18.95
-21.52
-24.75
-28.33
-31.58
-33.70
-33.88
-31.59
-26.75
-19.78
-11.47
-2.80
5.29
12.14
17.39
21.02
23.19
24.18
24.31
23.84
23.01
21.93
20.67
19.32
17.91
16.54
15.26
14.11
13.06
12.07
11.09
10.15
9.28
8.51
7.80
6.98
5.82
4.12
1.82
-0.95
-3.87
-6.61
-8.90
-10.70
-12.16
-13.57
-15.30
-17.72
-21.03
-25.25
-30.11
-34.95
-38.90
-40.97
-40.37
-36.75
-30.34
-21.85
-12.37
-3.04
5.21
11.82
16.73
20.23
22.83
25.03
27.17
29.34
31.48
33.54
35.67
38.21
41.62
46.23
52.11
58.91
65.90
72.16
76.81
79.31
79.60
78.27
76.34
75.03
75.30
77.58
81.55
86.23
90.19
92.03
90.79
86.12
78.41
68.58
57.94
47.81
39.16
32.30
26.78
21.54
15.36
7.46
-2.13
-12.47
-22.16
-29.88
-34.92
-37.32
-37.76
-37.08
-35.92
-34.55
-33.01
-31.32
-29.56
-27.75
-25.76
-23.30
-20.07
-16.02
-11.62
-7.84
-5.85
-6.53
-10.05
-15.73
-22.31
-28.30
-32.54
-34.48
-34.29
-32.80
-31.12
-30.30
-30.86
-32.49
-34.02
-33.73
-29.99
-21.87
-9.57
5.61
21.73
36.78
49.29
58.62
65.05
69.48
73.18
77.42
83.13
90.68
99.76
109.39
118.15
124.53
127.34
126.10
121.12
113.36
104.09
94.37
84.85
75.66
66.57
57.33
47.77
37.81
27.28
15.80
2.94
-11.49
-27.21
-43.42
-59.14
-73.69
-87.05
-99.84
-112.95
-126.96
-141.72
-156.22
-168.94
-178.33
-183.22
-183.05
-177.98
-168.80
-156.81
-143.60
-130.77
-119.52
-110.24
-102.35
-94.43
-84.72
-71.99
-56.02
-37.86
-19.48
-3.03
9.89
18.62
23.50
25.41
25.34
23.99
21.75
18.89
15.74
12.79
10.55
9.29
8.90
8.96
8.91
8.40
7.55
6.85
6.99
8.33
10.72
13.46
15.53
16.05
14.56
11.25
6.77
1.96
-2.56
-6.55
-10.32
-14.50
-19.91
-27.32
-37.24
-49.78
-64.40
-80.05
-95.24
-108.43
-118.47
-124.85
-127.69
-127.56
-125.08
-120.44
-113.44
-103.50
-90.09
-73.13
-53.16
-31.53
-10.25
8.42
22.56
31.09
34.02
32.24
26.99
19.38
10.17
-0.23
-11.43
-22.81
-33.56
-42.93
-50.51
-56.53
-61.57
-66.33
-71.09
-75.46
-78.53
-79.27
-77.10
-72.31
-65.85
-58.77
-51.54
-43.57
-33.62
-20.67
-4.65
13.19
30.92
46.89
60.35
71.52
80.96
88.78
94.37
96.72
95.17
89.91
81.92
72.55
62.80
53.02
43.09
32.82
22.47
13.04
6.01
2.66
3.41
7.42
12.91
17.83
20.80
21.56
21.00
20.58
21.49
24.12
27.92
31.43
32.51
28.61
17.55
-1.64
-27.74
-57.24
-85.11
-106.56
-118.69
-121.43
-117.10
-109.16
-100.61
-93.04
-86.67
-80.80
-74.43
-66.64
-56.50
-43.23
-26.41
-6.38
15.54
37.31
56.72
72.05
82.43
88.16
90.33
90.44
89.84
89.46
89.51
89.75
89.58
88.28
85.24
80.18
73.21
64.87
55.91
47.09
38.93
31.55
24.66
17.83
10.61
2.75
-5.70
-14.42
-23.02
-31.04
-38.18
-44.36
-49.77
-54.85
-60.19
-66.18
-72.79
-79.30
-84.32
-86.08
-83.06
-74.45
-60.59
-42.92
-23.47
-4.37
12.68
26.69
37.26
44.46
48.59
50.11
49.57
47.60
44.87
42.00
39.40
37.31
35.68
34.35
33.15
32.02
30.98
30.14
29.51
28.97
28.17
26.64
23.90
19.71
14.15
7.61
0.70
-5.97
-11.98
-17.19
-21.83
-26.42
-31.61
-37.93
-45.49
-53.66
-61.11
-66.01
-66.55
-61.48
-50.61
-34.90
-16.22
3.15
21.19
36.50
48.42
56.93
62.31
64.99
65.40
63.97
61.23
57.78
54.24
51.04
48.41
46.25
44.30
42.31
40.15
37.90
35.75
33.87
32.29
30.84
29.17
26.81
23.38
18.67
12.77
6.04
-0.89
-7.43
-13.08
-17.77
-21.83
-25.86
-30.55
-36.35
-43.20
-50.39
-56.58
-60.10
-59.42
-53.62
-42.76
-27.95
-11.06
5.82
20.92
33.14
42.05
47.76
50.61
51.05
49.57
46.74
43.24
39.78
36.98
35.09
34.07
33.55
33.01
32.09
30.67
28.90
27.07
25.42
23.94
22.37
20.25
17.13
12.78
7.32
1.22
-4.92
-10.57
-15.42
-19.46
-22.99
-26.53
-30.62
-35.64
-41.61
-47.95
-53.55
-56.87
-56.31
-50.81
-40.28
-25.69
-8.89
7.87
22.68
34.27
42.21
46.74
48.40
47.85
45.71
42.57
39.04
35.70
32.96
30.98
29.61
28.50
27.31
25.84
24.16
22.49
21.05
19.90
18.78
17.23
14.71
10.87
5.72
-0.35
-6.69
-12.61
-17.64
-21.72
-25.21
-28.79
-33.18
-38.78
-45.42
-52.10
-57.15
-58.71
-55.28
-46.32
-32.58
-15.87
1.46
17.27
30.09
39.38
45.23
48.11
48.56
47.09
44.23
40.57
36.79
33.45
30.85
28.91
27.26
25.47
23.28
20.74
18.15
15.91
14.27
13.19
12.32
11.09
8.96
5.61
1.06
-4.35
-10.09
-15.58
-20.40
-24.43
-27.89
-31.34
-35.41
-40.60
-46.91
-53.68
-59.47
-62.44
-60.84
-53.71
-41.29
-25.11
-7.58
8.83
22.21
31.74
37.60
40.58
41.61
41.36
40.23
38.40
36.09
33.61
31.34
29.60
28.48
27.87
27.44
26.81
25.67
23.93
21.72
19.28
16.85
14.53
12.21
9.62
6.47
2.54
-2.17
-7.45
-12.97
-18.39
-23.43
-27.92
-31.86
-35.38
-38.68
-42.05
-45.82
-50.32
-55.70
-61.69
-67.44
-71.59
-72.62
-69.33
-61.35
-49.42
-35.20
-20.76
-7.94
2.11
9.10
13.34
15.38
15.83
15.20
13.93
12.41
10.93
9.55
8.21
6.77
5.20
3.61
2.31
1.54
1.43
1.86
2.56
3.30
4.10
5.11
6.58
8.54
10.73
12.62
13.55
13.01
10.82
7.25
2.83
-1.73
-5.89
-9.38
-12.28
-15.04
-18.32
-22.84
-29.17
-37.50
-47.38
-57.75
-67.01
-73.45
-75.68
-73.12
-66.12
-55.95
-44.23
-32.43
-21.47
-11.68
-2.90
5.06
12.29
18.66
23.98
28.22
31.65
34.77
38.03
41.65
45.34
48.43
50.07
49.57
46.71
41.84
35.74
29.36
23.49
18.37
13.80
9.21
4.04
-1.89
-8.31
-14.52
-19.70
-23.22
-24.92
-25.00
-24.00
-22.58
-21.32
-20.55
-20.21
-19.75
-18.19
-14.36
-7.29
3.38
17.10
32.44
47.44
60.17
69.21
73.92
74.48
71.64
66.46
59.98
53.18
46.76
41.18
36.70
33.28
30.75
28.75
26.88
24.80
22.37
19.61
16.73
13.94
11.39
9.07
6.76
4.09
0.76
-3.42
-8.33
-13.66
-18.97
-23.85
-28.13
-31.91
-35.52
-39.35
-43.63
-48.13
-52.06
-54.25
-53.45
-48.80
-40.18
-28.29
-14.45
-0.29
12.76
23.71
32.07
37.83
41.25
42.73
42.66
41.44
39.41
36.83
33.92
30.84
27.76
24.85
22.25
20.14
18.61
17.69
17.29
17.21
17.22
17.07
16.51
15.32
13.38
10.66
7.29
3.56
-0.20
-3.69
-6.77
-9.54
-12.35
-15.60
-19.64
-24.49
-29.69
-34.31
-37.13
-37.03
-33.43
-26.56
-17.36
-7.20
2.64
11.34
18.62
24.61
29.52
33.40
36.06
37.31
37.06
35.50
33.05
30.15
27.08
23.88
20.43
16.61
12.56
8.66
5.51
3.62
3.18
3.87
4.95
5.51
4.79
2.43
-1.43
-6.24
-11.32
-16.07
-20.13
-23.49
-26.30
-28.91
-31.74
-35.19
-39.44
-44.23
-48.84
-52.03
-52.46
-49.09
-41.62
-30.65
-17.49
-3.69
9.33
20.64
29.70
36.26
40.22
41.58
40.62
37.88
34.12
30.12
26.38
23.02
19.87
16.61
12.98
8.90
4.46
-0.10
-4.54
-8.60
-12.17
-15.27
-18.13
-21.08
-24.47
-28.42
-32.78
-37.14
-41.02
-44.08
-46.31
-48.06
-49.82
-51.97
-54.51
-56.91
-58.23
-57.36
-53.42
-46.08
-35.81
-23.67
-11.07
0.74
10.92
19.17
25.52
30.15
33.16
34.55
34.37
32.85
30.42
27.64
24.91
22.39
20.00
17.55
14.89
12.08
9.33
6.84
4.70
2.83
1.03
-0.92
-3.07
-5.38
-7.70
-9.94
-12.17
-14.55
-17.31
-20.62
-24.54
-29.11
-34.33
-40.11
-46.14
-51.73
-55.85
-57.30
-55.15
-49.18
-39.98
-28.89
-17.54
-7.30
1.02
7.35
12.03
15.49
17.93
19.30
19.36
17.96
15.28
11.77
8.16
5.14
3.11
2.06
1.57
1.04
-0.03
-1.85
-4.20
-6.60
-8.66
-10.35
-12.17
-14.93
-19.45
-26.19
-35.18
-46.02
-58.02
-70.28
-81.65
-90.94
-97.08
-99.55
-98.64
-95.36
-90.77
-85.22
-77.84
-66.80
-50.21
-27.22
1.36
33.27
65.65
95.93
122.37
144.02
160.41
171.36
176.89
177.32
173.31
165.54
154.50
140.44
123.87
105.89
88.23
72.76
60.70
52.04
45.75
40.55
35.65
31.23
28.10
26.82
27.13
27.89
27.65
25.38
21.09
15.58
9.92
4.89
0.42
-4.26
-10.38
-19.04
-30.90
-45.73
-62.42
-79.18
-93.85
-104.50
-109.90
-109.88
-105.42
-98.29
-90.57
-84.01
-79.64
-77.60
-77.36
-77.96
-78.53
-78.39
-77.11
-74.52
-70.61
-65.56
-59.68
-53.47
-47.46
-42.13
-37.76
-34.29
-31.43
-28.71
-25.69
-22.20
-18.35
-14.55
-11.37
-9.32
-8.66
-9.40
-11.17
-13.49
-15.88
-17.98
-19.75
-21.38
-23.30
-26.04
-30.02
-35.22
-41.09
-46.47
-49.74
-49.41
-44.52
-35.02
-21.80
-6.51
9.08
23.37
35.31
44.48
50.89
54.78
56.52
56.51
55.16
53.00
50.55
48.26
46.40
44.93
43.59
42.11
40.34
38.41
36.62
35.21
34.14
33.04
31.25
28.26
23.87
18.36
12.34
6.48
1.25
-3.25
-7.22
-11.20
-15.71
-21.22
-27.92
-35.53
-43.13
-49.30
-52.35
-50.85
-44.20
-32.82
-18.12
-2.08
13.35
26.78
37.49
45.44
50.93
54.38
56.13
56.50
55.77
54.29
52.36
50.24
48.05
45.80
43.39
40.75
37.98
35.25
32.83
30.88
29.28
27.71
25.69
22.72
18.53
13.16
6.89
0.24
-6.31
-12.36
-17.78
-22.71
-27.56
-32.88
-39.11
-46.32
-53.99
-60.89
-65.27
-65.44
-60.30
-49.84
-35.25
-18.53
-1.83
13.09
25.25
34.46
40.95
45.12
47.30
47.72
46.68
44.60
42.04
39.55
37.52
36.07
35.00
34.02
32.83
31.34
29.70
28.18
27.08
26.43
25.98
25.18
23.46
20.39
15.87
10.16
3.77
-2.73
-8.89
-14.51
-19.63
-24.39
-29.13
-34.24
-40.02
-46.60
-53.62
-60.18
-64.79
-65.75
-61.74
-52.32
-38.22
-21.12
-3.24
13.37
27.28
37.87
45.26
49.90
52.30
52.91
52.10
50.23
47.78
45.25
43.06
41.46
40.38
39.52
38.54
37.22
35.49
33.58
31.75
30.18
28.85
27.51
25.72
23.03
19.11
13.90
7.71
1.02
-5.59
-11.65
-16.98
-21.61
-25.87
-30.15
-34.86
-40.27
-46.42
-52.85
-58.61
-62.32
-62.44
-57.86
-48.29
-34.54
-18.27
-1.53
13.83
26.56
36.15
42.67
46.46
47.94
47.53
45.67
42.82
39.50
36.16
33.13
30.57
28.42
26.49
24.60
22.63
20.60
18.70
17.12
15.95
15.04
13.97
12.21
9.32
5.15
-0.02
-5.59
-10.94
-15.57
-19.32
-22.41
-25.26
-28.43
-32.44
-37.55
-43.55
-49.71
-54.74
-57.08
-55.37
-48.97
-38.21
-24.35
-9.21
5.40
18.10
28.09
35.19
39.62
41.81
42.25
41.44
39.83
37.76
35.50
33.20
30.97
28.87
26.92
25.11
23.38
21.72
20.15
18.72
17.44
16.22
14.81
12.87
10.09
6.31
1.61
-3.69
-9.09
-14.18
-18.70
-22.63
-26.24
-29.94
-34.20
-39.32
-45.23
-51.26
-56.25
-58.69
-57.24
-51.17
-40.73
-27.12
-12.14
2.33
14.89
24.78
31.90
36.49
38.98
39.75
39.15
37.53
35.28
32.75
30.31
28.23
26.65
25.60
24.99
24.62
24.27
23.70
22.77
21.48
19.95
18.32
16.64
14.79
12.47
9.34
5.22
0.19
-5.38
-10.95
-16.03
-20.38
-24.03
-27.30
-30.62
-34.41
-38.97
-44.36
-50.24
-55.81
-59.84
-60.91
-57.80
-50.03
-38.05
-23.20
-7.41
7.38
19.70
28.82
34.74
37.97
39.23
39.19
38.36
37.05
35.48
33.76
32.04
30.40
28.90
27.57
26.40
25.36
24.40
23.49
22.49
21.30
19.79
17.95
15.86
13.59
11.19
8.55
5.47
1.77
-2.58
-7.41
-12.44
-17.36
-21.97
-26.22
-30.17
-33.88
-37.49
-41.16
-45.14
-49.66
-54.70
-59.71
-63.55
-64.70
-61.74
-54.03
-41.97
-27.03
-11.25
3.37
15.46
24.47
30.49
34.07
35.83
36.33
36.05
35.35
34.49
33.58
32.61
31.47
30.07
28.40
26.53
24.64
22.92
21.48
20.29
19.22
18.04
16.56
14.63
12.22
9.41
6.30
2.97
-0.55
-4.24
-8.14
-12.13
-16.07
-19.75
-22.98
-25.72
-28.12
-30.46
-33.18
-36.70
-41.28
-46.78
-52.55
-57.40
-59.80
-58.38
-52.31
-41.79
-28.02
-12.91
1.49
13.59
22.55
28.37
31.57
32.88
32.95
32.23
30.97
29.33
27.43
25.45
23.57
21.91
20.50
19.24
18.00
16.69
15.30
14.01
13.04
12.51
12.36
12.27
11.72
10.23
7.48
3.48
-1.53
-7.03
-12.54
-17.67
-22.26
-26.35
-30.09
-33.67
-37.30
-41.16
-45.37
-49.82
-54.05
-57.15
-57.93
-55.26
-48.51
-37.95
-24.66
-10.36
3.22
14.79
23.70
29.95
33.89
35.93
36.39
35.47
33.45
30.67
27.64
24.91
22.85
21.58
20.92
20.51
20.00
19.20
18.13
16.97
15.90
14.97
14.07
12.92
11.14
8.43
4.65
-0.07
-5.42
-10.96
-16.25
-21.00
-25.13
-28.80
-32.21
-35.65
-39.36
-43.54
-48.18
-52.95
-57.05
-59.30
-58.37
-53.27
-43.80
-30.73
-15.72
-0.78
12.29
22.39
29.19
33.04
34.65
34.73
33.90
32.56
31.01
29.47
28.04
26.79
25.67
24.65
23.66
22.70
21.82
21.08
20.51
20.06
19.60
18.93
17.85
16.17
13.82
10.73
6.95
2.57
-2.25
-7.24
-12.17
-16.82
-21.10
-24.97
-28.55
-32.04
-35.64
-39.58
-44.00
-48.88
-53.84
-58.03
-60.21
-59.08
-53.76
-44.15
-31.16
-16.42
-1.87
10.80
20.59
27.25
31.07
32.56
32.30
30.73
28.33
25.61
23.08
21.16
20.04
19.63
19.57
19.44
18.86
17.73
16.17
14.50
13.00
11.82
10.81
9.59
7.64
4.51
0.11
-5.28
-11.07
-16.54
-21.15
-24.72
-27.48
-29.92
-32.66
-36.17
-40.70
-46.06
-51.57
-56.11
-58.24
-56.71
-50.73
-40.43
-26.83
-11.61
3.37
16.56
26.99
34.36
38.89
41.06
41.45
40.60
38.99
37.07
35.19
33.63
32.44
31.49
30.50
29.16
27.31
25.06
22.74
20.71
19.20
18.10
17.01
15.36
12.68
8.77
3.79
-1.81
-7.45
-12.67
-17.17
-20.97
-24.36
-27.85
-31.94
-37.04
-43.16
-49.68
-55.42
-58.75
-58.14
-52.61
-42.25
-28.21
-12.49
2.66
15.45
24.80
30.58
33.30
33.76
32.78
30.95
28.70
26.29
23.94
21.79
19.98
18.52
17.30
16.12
14.76
13.09
11.12
9.13
7.37
6.12
5.41
4.98
4.39
3.14
0.90
-2.42
-6.61
-11.25
-15.90
-20.18
-23.99
-27.42
-30.80
-34.53
-38.97
-44.25
-50.04
-55.45
-59.11
-59.51
-55.50
-46.77
-33.97
-18.72
-3.04
11.13
22.45
30.41
35.19
37.44
37.90
37.20
35.79
33.97
32.01
30.16
28.62
27.52
26.79
26.18
25.41
24.25
22.67
20.85
19.05
17.44
15.98
14.41
12.29
9.24
5.05
-0.13
-5.92
-11.78
-17.16
-21.68
-25.19
-27.81
-30.00
-32.37
-35.52
-39.80
-44.97
-50.12
-53.70
-54.01
-49.76
-40.61
-27.41
-11.97
3.47
16.94
27.15
33.79
37.27
38.46
38.27
37.43
36.33
35.10
33.74
32.25
30.68
29.19
27.94
26.94
26.12
25.25
24.16
22.79
21.18
19.43
17.59
15.62
13.41
10.84
7.83
4.36
0.47
-3.83
-8.48
-13.37
-18.27
-22.95
-27.17
-30.88
-34.26
-37.66
-41.49
-46.05
-51.31
-56.76
-61.37
-63.79
-62.65
-57.03
-46.79
-32.79
-16.67
-0.53
13.73
24.79
32.15
36.06
37.23
36.51
34.70
32.49
30.32
28.55
27.36
26.79
26.72
26.93
27.21
27.42
27.56
27.68
27.80
27.75
27.27
26.06
24.03
21.31
18.21
15.06
11.97
8.85
5.45
1.56
-2.88
-7.75
-12.78
-17.69
-22.28
-26.45
-30.17
-33.56
-36.89
-40.59
-45.10
-50.63
-56.81
-62.56
-66.20
-65.96
-60.60
-49.90
-34.85
-17.45
-0.10
15.06
26.65
34.19
38.05
39.05
38.21
36.41
34.29
32.29
30.61
29.34
28.48
27.95
27.64
27.41
27.17
26.83
26.37
25.77
25.00
23.98
22.63
20.81
18.51
15.75
12.64
9.33
5.91
2.39
-1.32
-5.39
-9.95
-15.02
-20.33
-25.50
-30.11
-33.90
-37.02
-39.91
-43.28
-47.71
-53.29
-59.42
-64.76
-67.63
-66.40
-60.21
-49.20
-34.59
-18.37
-2.67
10.72
20.80
27.37
30.92
32.19
31.98
30.87
29.28
27.47
25.64
23.98
22.69
21.89
21.55
21.50
21.45
21.13
20.39
19.25
17.84
16.37
14.93
13.43
11.65
9.30
6.11
2.02
-2.84
-8.15
-13.47
-18.38
-22.61
-26.09
-28.99
-31.72
-34.81
-38.77
-43.89
-49.97
-56.24
-61.29
-63.48
-61.37
-54.29
-42.58
-27.64
-11.44
4.02
17.20
27.34
34.40
38.76
40.92
41.39
40.54
38.77
36.54
34.27
32.34
30.94
30.05
29.46
28.89
28.09
26.91
25.35
23.52
21.62
19.82
18.19
16.61
14.82
12.42
9.05
4.56
-0.93
-6.98
-13.02
-18.52
-23.16
-26.94
-30.25
-33.66
-37.76
-42.91
-49.00
-55.25
-60.40
-62.83
-61.07
-54.32
-42.77
-27.64
-10.98
5.01
18.52
28.55
34.97
38.38
39.65
39.66
39.03
38.12
37.12
36.15
35.25
34.45
33.74
33.03
32.26
31.34
30.24
28.96
27.51
25.86
23.97
21.83
19.40
16.72
13.79
10.53
6.83
2.61
-2.15
-7.31
-12.61
-17.73
-22.47
-26.77
-30.75
-34.61
-38.60
-42.99
-47.99
-53.74
-60.04
-66.12
-70.72
-72.15
-68.93
-60.28
-46.63
-29.55
-11.39
5.50
19.38
29.45
35.73
38.81
39.53
38.73
37.16
35.44
34.02
33.17
32.89
32.99
33.17
33.18
32.91
32.40
31.80
31.22
30.69
30.10
29.29
28.06
26.20
23.64
20.38
16.55
12.27
7.77
3.16
-1.49
-6.19
-11.02
-16.00
-21.05
-25.98
-30.53
-34.48
-37.77
-40.60
-43.41
-46.79
-51.18
-56.55
-62.13
-66.42
-67.50
-63.74
-54.42
-40.15
-22.83
-4.96
11.02
23.48
31.84
36.46
38.23
38.08
36.82
34.96
32.84
30.67
28.66
26.96
25.71
24.94
24.59
24.51
24.48
24.32
23.91
23.21
22.23
20.98
19.45
17.54
15.15
12.12
8.37
3.90
-1.17
-6.59
-12.04
-17.21
-21.84
-25.80
-29.12
-32.00
-34.76
-37.83
-41.59
-46.24
-51.50
-56.52
-59.84
-59.82
-55.11
-45.34
-31.31
-14.90
1.53
15.91
27.01
34.64
39.34
41.99
43.25
43.50
42.89
41.47
39.49
37.31
35.38
33.97
33.19
32.86
32.68
32.31
31.50
30.18
28.41
26.34
24.13
21.86
19.45
16.70
13.37
9.24
4.33
-1.13
-6.74
-12.01
-16.63
-20.50
-23.81
-26.94
-30.39
-34.59
-39.85
-46.17
-53.11
-59.72
-64.51
-65.82
-62.26
-53.35
-39.73
-23.20
-6.09
9.37
21.64
30.19
35.36
37.96
38.89
38.90
38.49
38.00
37.66
37.52
37.52
37.47
37.17
36.47
35.40
34.11
32.87
31.89
31.25
30.78
30.15
28.91
26.76
23.62
19.67
15.29
10.90
6.77
2.92
-0.87
-4.94
-9.50
-14.48
-19.54
-24.22
-28.14
-31.21
-33.68
-36.06
-39.01
-43.05
-48.40
-54.75
-61.10
-65.88
-67.27
-63.74
-54.70
-40.81
-23.91
-6.47
9.23
21.65
30.28
35.45
37.95
38.66
38.33
37.49
36.55
35.76
35.27
35.08
35.03
34.87
34.37
33.43
32.12
30.67
29.42
28.57
28.12
27.74
26.93
25.16
22.12
17.92
13.04
8.16
3.83
0.31
-2.57
-5.34
-8.52
-12.50
-17.30
-22.57
-27.78
-32.43
-36.23
-39.26
-41.95
-44.96
-48.96
-54.32
-60.79
-67.39
-72.47
-74.12
-70.78
-61.85
-47.96
-30.96
-13.26
2.77
15.50
24.32
29.52
31.93
32.45
31.91
30.80
29.51
28.28
27.32
26.74
26.54
26.56
26.62
26.57
26.32
25.91
25.36
24.68
23.85
22.77
21.38
19.66
17.58
15.12
12.18
8.61
4.36
-0.53
-5.87
-11.34
-16.58
-21.26
-25.25
-28.54
-31.30
-33.89
-36.75
-40.33
-44.89
-50.22
-55.49
-59.33
-60.09
-56.42
-47.82
-34.90
-19.27
-3.10
11.51
23.15
31.23
36.08
38.45
39.20
39.01
38.25
37.08
35.58
33.92
32.31
30.99
30.08
29.49
28.96
28.17
26.96
25.37
23.65
22.07
20.74
19.51
17.93
15.48
11.78
6.80
0.85
-5.45
-11.44
-16.66
-20.98
-24.59
-27.84
-31.16
-34.91
-39.42
-44.86
-51.07
-57.42
-62.67
-65.15
-63.25
-56.05
-43.82
-28.06
-11.13
4.58
17.36
26.51
32.32
35.63
37.40
38.35
38.89
39.15
39.11
38.74
37.99
36.89
35.54
34.04
32.53
31.07
29.69
28.40
27.18
26.05
24.98
23.87
22.51
20.62
17.88
14.04
9.02
2.96
-3.76
-10.52
-16.77
-22.14
-26.54
-30.20
-33.51
-36.90
-40.72
-45.27
-50.61
-56.56
-62.44
-67.01
-68.67
-65.86
-57.73
-44.64
-28.16
-10.66
5.45
18.42
27.52
32.96
35.57
36.33
36.07
35.41
34.79
34.41
34.40
34.67
34.92
34.89
34.37
33.38
32.09
30.80
29.70
28.84
28.13
27.33
26.15
24.35
21.85
18.64
14.89
10.81
6.59
2.35
-1.94
-6.37
-11.10
-16.16
-21.42
-26.59
-31.34
-35.40
-38.74
-41.66
-44.71
-48.56
-53.64
-59.79
-66.03
-70.66
-71.73
-67.65
-57.95
-43.47
-26.22
-8.72
6.81
19.01
27.61
33.06
36.17
37.70
38.21
38.07
37.56
36.96
36.44
36.12
35.90
35.62
35.09
34.24
33.12
31.96
30.96
30.21
29.60
28.78
27.31
24.81
21.17
16.64
11.74
7.04
2.92
-0.61
-3.83
-7.22
-11.16
-15.76
-20.83
-25.94
-30.62
-34.55
-37.68
-40.23
-42.71
-45.76
