1530200233.00
64.000000
-0.00
-0.00
-0.00
-0.00
-0.00
-0.00
-0.00
-0.00
-0.00
-0.00
0.00
0.01
0.01
-0.00
-0.03
-0.05
-0.05
0.00
0.13
0.36
0.66
1.01
1.37
1.72
2.06
2.40
2.79
3.24
3.80
4.43
5.09
5.72
6.30
6.85
7.42
8.11
8.97
10.10
11.39
12.72
13.96
15.02
15.97
16.98
18.27
20.01
22.44
25.37
28.52
31.58
34.38
36.99
39.75
43.11
47.41
53.06
59.70
66.80
73.75
80.17
86.14
92.19
99.10
107.48
117.92
129.88
142.50
154.79
166.08
176.42
186.51
197.88
209.40
223.47
240.62
260.82
282.63
302.91
317.26
321.14
311.44
287.62
252.29
209.30
162.78
115.61
68.92
22.71
-23.18
-68.30
-111.55
-151.30
-186.92
-218.60
-247.32
-274.59
-301.88
-330.07
-358.86
-386.56
-410.05
-426.11
-432.19
-427.17
-411.93
-388.78
-360.46
-329.33
-297.11
-265.12
-234.81
-207.61
-184.49
-165.38
-149.06
-133.62
-117.55
-100.50
-83.35
-67.66
-54.56
-44.16
-35.52
-27.34
-18.70
-9.63
-1.00
6.08
10.99
14.03
16.30
19.04
22.93
27.64
31.99
34.62
34.89
33.34
31.52
31.08
32.83
36.14
39.25
40.30
38.44
34.46
30.35
28.19
28.88
31.65
34.44
35.12
32.73
28.03
23.01
19.79
19.45
21.44
23.97
25.03
23.55
19.93
15.86
13.24
13.22
15.46
18.35
19.97
19.18
16.31
12.91
10.87
11.26
13.64
16.36
17.54
16.15
12.74
9.08
7.18
8.11
11.32
14.92
16.67
15.30
11.20
6.24
2.77
2.31
4.69
8.15
10.44
10.06
7.24
3.69
1.59
2.20
5.05
8.24
9.56
7.88
3.86
-0.41
-2.62
-1.65
1.80
5.59
7.38
5.98
1.98
-2.57
-5.43
-5.38
-2.90
0.17
1.72
0.64
-2.60
-6.24
-8.33
-7.81
-5.24
-2.40
-1.26
-2.84
-6.61
-10.75
-13.24
-12.95
-10.28
-6.94
-4.88
-5.19
-7.46
-10.03
-11.06
-9.56
-6.10
-2.46
-0.63
-1.62
-4.84
-8.41
-10.27
-9.28
-5.93
-2.02
0.34
-0.02
-2.74
-6.09
-7.99
-7.18
-3.92
0.14
2.97
3.30
1.39
-1.12
-2.22
-0.70
3.08
7.37
10.03
9.77
6.88
3.14
0.76
1.16
4.23
8.41
11.61
12.42
10.86
8.33
6.73
7.42
10.35
14.13
16.83
17.03
14.73
11.29
8.75
8.60
11.00
14.64
17.54
18.19
16.46
13.63
11.64
11.90
14.44
17.85
20.10
19.72
16.69
12.43
9.00
7.92
9.31
11.89
13.73
13.40
10.82
7.24
4.49
3.89
5.49
7.96
9.49
8.79
5.96
2.40
0.04
0.18
2.70
6.09
8.33
7.97
5.05
1.02
-2.03
-2.60
-0.57
2.69
5.21
5.49
3.44
0.37
-1.75
-1.49
1.17
4.82
7.38
7.34
4.61
0.61
-2.55
-3.27
-1.36
1.85
4.33
4.54
2.29
-1.11
-3.61
-3.65
-1.03
2.92
6.10
6.76
4.54
0.62
-2.89
-4.20
-2.76
0.38
3.25
4.11
2.48
-0.58
-3.16
-3.60
-1.52
1.91
4.67
5.14
3.00
-0.47
-3.21
-3.57
-1.27
2.40
5.34
5.83
3.52
-0.42
-3.96
-5.38
-4.16
-1.28
1.46
2.47
1.38
-0.85
-2.46
-2.03
0.64
4.35
7.13
7.36
4.73
0.44
-3.37
-4.86
-3.41
-0.02
3.29
4.61
3.21
-0.08
-3.38
-4.81
-3.61
-0.56
2.52
3.85
2.76
0.06
-2.43
-3.06
-1.30
1.90
4.67
5.31
3.35
-0.23
-3.49
-4.67
-3.20
0.04
3.16
4.40
3.08
0.03
-2.92
-4.00
-2.46
0.90
4.25
5.71
4.49
1.33
-1.89
-3.29
-2.06
1.04
4.10
5.22
3.59
-0.02
-3.66
-5.35
-4.19
-0.88
2.66
4.47
3.62
0.69
-2.55
-4.24
-3.49
-0.89
1.89
3.10
1.98
-0.73
-3.28
-3.95
-2.13
1.28
4.32
5.16
3.21
-0.52
-3.95
-5.14
-3.37
0.40
4.10
5.67
4.29
0.74
-2.99
-4.87
-3.94
-0.82
2.66
4.54
3.80
0.98
-2.22
-3.86
-2.92
0.12
3.56
5.48
4.80
1.96
-1.37
-3.23
-2.56
0.20
3.39
5.05
4.11
1.00
-2.55
-4.54
-3.87
-0.95
2.48
4.41
3.69
0.70
-2.89
-5.11
-4.80
-2.29
0.86
2.79
2.43
0.14
-2.55
-3.88
-2.91
-0.09
2.99
4.53
3.63
0.75
-2.45
-4.10
-3.15
0.02
3.73
6.05
5.74
3.05
-0.52
-3.03
-3.22
-1.23
1.50
3.13
2.50
-0.11
-3.13
-4.64
-3.53
-0.22
3.53
5.65
4.96
1.87
-1.87
-4.21
-3.91
-1.28
2.04
4.05
3.57
0.89
-2.43
-4.45
-3.98
-1.28
2.10
4.22
3.89
1.34
-1.92
-3.91
-3.42
-0.67
2.74
4.78
4.18
1.14
-2.72
-5.33
-5.35
-2.94
0.40
2.65
2.53
0.21
-2.78
-4.48
-3.66
-0.57
3.17
5.54
5.25
2.50
-1.16
-3.72
-3.83
-1.56
1.69
3.99
4.01
1.79
-1.32
-3.42
-3.20
-0.78
2.39
4.38
3.91
1.17
-2.29
-4.44
-3.96
-1.11
2.48
4.71
4.27
1.38
-2.31
-4.72
-4.49
-1.79
1.85
4.38
4.42
1.97
-1.57
-4.25
-4.65
-2.66
0.50
2.98
3.38
1.59
-1.21
-3.25
-3.19
-0.97
2.15
4.32
4.20
1.76
-1.68
-4.19
-4.37
-2.16
1.11
3.45
3.43
0.99
-2.47
-4.95
-4.94
-2.36
1.40
4.24
4.59
2.27
-1.35
-4.16
-4.48
-2.03
1.91
5.27
6.28
4.54
1.11
-2.02
-3.17
-1.90
0.81
3.11
3.50
1.66
-1.27
-3.45
-3.42
-1.06
2.33
4.77
4.69
1.96
-2.09
-5.34
-6.10
-4.03
-0.27
3.15
4.47
3.17
0.19
-2.59
-3.46
-1.86
1.35
4.32
5.27
3.58
0.11
-3.18
-4.44
-2.92
0.46
3.67
4.77
3.03
-0.58
-3.96
-5.12
-3.41
0.09
3.21
3.99
1.90
-1.86
-5.06
-5.77
-3.53
0.38
3.72
4.61
2.62
-0.98
-4.01
-4.63
-2.42
1.40
4.70
5.63
3.71
0.01
-3.42
-4.77
-3.42
-0.27
2.82
4.11
2.94
0.05
-2.85
-4.14
-3.17
-0.70
1.67
2.42
1.00
-1.76
-4.27
-5.03
-3.58
-0.82
1.53
1.98
0.14
-3.00
-5.63
-6.20
-4.30
-1.02
1.72
2.19
-0.12
-4.16
-7.95
-9.65
-8.66
-5.98
-3.62
-3.44
-6.03
-10.35
-14.30
-16.00
-14.89
-12.19
-10.19
-10.93
-14.94
-20.90
-26.33
-29.07
-28.55
-26.18
-24.60
-26.17
-31.58
-39.38
-46.79
-51.20
-51.68
-49.51
-47.54
-48.51
-53.70
-62.18
-71.41
-78.61
-82.05
-81.47
-77.57
-70.87
-61.24
-48.26
-32.20
-14.88
0.52
10.68
13.91
11.06
5.37
0.98
1.21
7.34
18.61
33.05
48.67
64.07
78.48
91.38
102.21
110.25
114.95
116.15
114.18
109.84
104.06
97.60
90.91
84.05
76.87
69.18
60.99
52.57
44.37
36.89
30.43
25.05
20.54
16.54
12.76
9.03
5.39
2.05
-0.78
-2.98
-4.56
-5.68
-6.54
-7.31
-8.08
-8.83
-9.45
-9.87
-10.03
-9.94
-9.67
-9.29
-8.85
-8.39
-7.91
-7.40
-6.84
-6.25
-5.62
-4.95
-4.26
-3.53
-2.78
-2.00
-1.21
-0.42
0.40
1.19
1.97
2.75
3.56
4.39
5.23
6.04
6.76
7.30
7.48
7.16
6.17
4.34
1.53
-2.29
-7.07
-12.66
-18.80
-25.13
-31.17
-36.40
-40.36
-42.69
-43.16
-41.65
-38.25
-32.97
-26.36
-19.02
-11.58
-4.66
1.21
5.69
8.60
10.02
10.21
9.41
7.96
6.11
4.00
1.77
-0.46
-2.47
-3.99
-4.76
-4.60
-3.53
-1.78
0.17
1.77
2.64
2.67
2.18
1.70
1.76
2.56
3.83
4.86
4.83
3.23
0.22
-3.37
-6.30
-7.50
-6.61
-4.34
-2.11
-1.49
-3.41
-7.62
-12.73
-16.74
-18.16
-16.57
-12.97
-9.21
-7.13
-7.84
-11.37
-17.23
-24.55
-31.70
-36.02
-34.00
-21.92
2.19
36.33
73.95
105.78
123.89
125.43
113.71
95.95
78.94
65.39
53.39
39.10
20.44
-0.62
-19.02
-29.87
-31.51
-26.56
-20.05
-16.62
-17.74
-21.70
-25.22
-25.73
-22.87
-17.96
-13.23
-10.60
-10.72
-12.74
-15.17
-16.53
-15.96
-13.62
-10.44
-7.64
-6.12
-6.06
-6.95
-7.95
-8.28
-7.62
-6.13
-4.33
-2.78
-1.87
-1.57
-1.59
-1.60
-1.36
-0.82
-0.10
0.64
1.35
2.03
2.83
3.76
4.73
5.52
5.96
6.00
5.82
5.81
6.33
7.55
9.30
11.02
12.14
12.27
11.48
10.33
9.64
10.12
11.99
14.83
17.61
19.27
19.06
16.95
13.60
10.09
7.12
4.88
2.73
-0.54
-5.95
-14.21
-25.60
-40.06
-57.00
-74.63
-89.75
-97.76
-95.26
-80.94
-57.19
-29.50
-4.42
13.11
21.64
23.10
21.12
18.72
17.20
16.11
14.46
11.94
9.33
7.85
8.28
10.35
12.82
14.35
13.93
11.65
8.39
5.44
3.82
3.92
5.29
6.96
7.94
7.62
6.05
3.80
1.69
0.37
0.08
0.59
1.37
1.87
1.73
0.93
-0.28
-1.53
-2.52
-3.10
-3.35
-3.46
-3.66
-4.09
-4.81
-5.77
-6.87
-8.00
-9.08
-10.06
-10.93
-11.72
-12.49
-13.37
-14.46
-15.86
-17.58
-19.46
-21.27
-22.78
-23.84
-24.52
-25.06
-25.81
-27.04
-28.75
-30.57
-31.90
-32.08
-30.68
-27.67
-23.45
-18.64
-13.73
-8.73
-3.09
3.97
13.20
24.79
38.16
52.08
65.09
76.20
84.49
90.67
95.53
99.67
103.41
106.95
110.81
115.50
120.73
124.84
124.12
114.43
93.54
62.60
26.47
-8.12
-35.17
-51.89
-59.46
-61.47
-62.16
-64.21
-68.55
-75.14
-84.17
-96.42
-112.50
-131.33
-148.59
-158.83
-156.65
-139.70
-110.68
-76.59
-45.81
-24.70
-15.00
-13.66
-15.43
-15.54
-12.01
-5.74
1.05
7.02
12.48
19.13
29.00
42.73
59.36
76.52
91.30
101.25
106.36
107.89
107.76
107.77
108.85
111.17
114.41
118.45
121.49
121.27
114.69
98.94
73.38
40.53
5.81
-24.20
-44.42
-53.21
-52.27
-45.14
-35.97
-26.81
-17.89
-8.76
0.43
8.39
13.28
13.98
10.61
4.35
-2.72
-8.83
-13.36
-16.82
-20.49
-25.80
-33.47
-42.78
-52.84
-61.80
-68.00
-70.64
-70.06
-67.64
-65.27
-64.53
-66.16
-70.15
-74.82
-78.45
-80.04
-79.39
-77.43
-75.57
-75.13
-76.91
-81.35
-88.41
-97.66
-107.74
-115.81
-117.99
-110.59
-92.13
-64.72
-33.85
-6.23
12.92
21.79
22.32
18.53
14.33
11.87
11.28
11.91
13.55
17.04
23.47
33.44
46.19
60.04
72.90
82.96
89.49
92.25
92.57
91.56
90.41
88.37
84.61
78.33
69.20
57.62
44.67
31.86
20.38
10.95
3.59
-2.01
-6.43
-10.09
-13.09
-15.20
-15.91
-14.94
-12.25
-8.21
-3.37
1.51
5.69
8.84
10.83
11.85
12.16
12.05
11.47
10.17
7.73
3.73
-1.60
-7.70
-13.59
-18.07
-20.07
-19.19
-15.76
-10.77
-5.59
-0.74
3.70
8.28
14.10
22.34
33.32
46.42
60.32
73.34
84.82
94.66
103.27
112.27
124.20
141.45
166.23
200.41
239.32
277.79
308.39
322.37
313.84
282.13
230.63
166.20
96.77
28.41
-35.37
-94.18
-150.02
-203.16
-251.90
-296.53
-338.84
-381.14
-425.17
-469.90
-511.52
-545.30
-563.80
-559.15
-528.59
-473.79
-398.94
-309.74
-212.17
-103.59
6.34
100.63
181.08
252.76
318.72
381.17
440.31
493.52
535.11
556.67
552.82
523.35
470.03
396.41
309.07
216.51
127.88
51.47
-8.00
-48.29
-70.62
-81.96
-92.67
-110.29
-136.79
-169.08
-201.25
-228.47
-247.18
-255.53
-242.05
-200.90
-134.21
-52.45
30.05
100.93
151.35
177.30
180.67
165.99
137.47
101.02
62.56
25.48
-8.73
-40.73
-67.50
-87.97
-103.69
-118.87
-136.93
-159.44
-186.35
-213.63
-235.09
-245.41
-243.73
-234.47
-224.71
-219.58
-208.24
-183.96
-145.82
-99.67
-54.10
-16.38
9.07
18.56
16.53
6.06
-13.97
-44.35
-83.42
-126.42
-161.10
-176.77
-165.27
-124.30
-60.02
14.12
86.11
149.30
202.98
249.58
281.84
291.25
275.67
242.55
204.19
174.00
160.29
163.43
177.30
192.22
200.54
198.11
187.43
164.30
126.76
76.48
18.89
-37.14
-81.87
-107.46
-111.61
-98.78
-78.86
-60.60
-47.40
-39.63
-33.77
-23.73
-3.26
30.87
77.01
128.58
177.26
214.73
234.48
232.54
209.18
168.50
116.38
58.47
-1.27
-58.81
-105.56
-134.77
-147.96
-152.20
-155.23
-161.57
-170.43
-176.14
-170.78
-154.00
-123.84
-85.82
-49.77
-25.84
-21.36
-39.33
-78.22
-132.81
-196.22
-255.11
-297.96
-315.56
-304.48
-269.46
-222.34
-177.33
-144.77
-126.66
-116.27
-104.05
-81.65
-46.38
-2.41
41.85
77.98
101.04
111.20
113.51
114.85
122.34
140.35
168.80
203.49
238.34
268.28
290.93
306.14
313.74
313.14
303.83
287.30
268.57
254.64
250.48
254.57
257.40
246.31
213.57
161.74
103.69
56.40
31.64
29.66
39.28
43.39
29.96
-1.89
-43.98
-86.39
-124.54
-161.10
-201.86
-248.63
-295.83
-328.55
-329.94
-292.39
-224.72
-149.56
-93.09
-73.51
-94.74
-149.41
-220.73
-289.42
-340.27
-365.32
-362.40
-332.17
-276.32
-184.78
-65.55
57.39
159.41
230.61
275.11
301.50
316.01
320.40
312.81
288.40
246.49
192.69
136.74
87.87
51.88
29.84
19.13
15.33
12.86
9.74
7.86
10.13
17.12
26.36
34.15
37.79
36.74
31.44
23.96
17.23
13.30
11.72
10.77
8.46
3.69
-3.22
-11.25
-18.93
-24.95
-28.51
-29.89
-30.33
-31.26
-33.64
-37.52
-42.27
-47.39
-52.71
-57.89
-62.59
-66.75
-70.17
-72.63
-73.72
-72.85
-70.30
-67.20
-64.19
-61.38
-59.07
-57.20
-56.08
-56.76
-54.98
-43.64
-21.55
7.89
38.83
65.57
85.88
99.91
108.96
114.67
117.52
116.82
112.19
103.79
90.69
73.67
54.01
33.22
12.74
-7.17
-27.51
-49.50
-67.04
-80.52
-90.84
-98.47
-103.13
-104.27
-102.01
-97.47
-92.01
-86.89
-84.03
-84.03
-87.06
-92.87
-100.26
-106.72
-108.45
-101.17
-82.06
-52.48
-16.90
18.08
46.13
63.82
71.41
71.98
69.36
66.25
62.94
58.94
53.96
48.56
44.01
41.45
41.10
42.08
42.96
42.08
38.92
34.07
28.83
24.59
22.24
21.73
22.25
22.67
21.92
19.65
16.25
12.59
9.62
7.91
7.43
7.62
7.72
7.07
5.51
3.32
1.11
-0.57
-1.36
-1.40
-1.18
-1.27
-2.03
-3.43
-5.11
-6.50
-7.16
-7.01
-6.43
-6.00
-6.14
-6.86
-7.60
-7.39
-5.38
-1.42
3.84
9.30
13.94
17.75
21.90
27.82
35.65
43.48
47.82
45.65
36.35
22.22
6.87
-7.32
-20.53
-34.65
-50.90
-67.51
-79.70
-82.18
-72.66
-53.71
-31.77
-13.75
-3.40
-0.12
-0.46
-0.90
-0.20
0.64
-0.29
-4.27
-11.01
-18.65
-24.99
-28.39
-28.11
-24.41
-18.53
-12.00
-5.91
-0.15
7.05
17.66
31.85
46.51
55.78
53.88
39.01
15.64
-6.81
-18.22
-14.51
-0.45
13.05
15.46
2.83
-19.91
-41.84
-51.90
-43.57
-18.14
17.05
52.69
81.40
99.54
107.09
106.33
96.22
79.61
61.15
45.05
33.38
25.84
21.24
18.95
19.16
21.83
26.34
30.21
30.34
24.73
13.71
-0.18
-13.23
-22.47
-26.73
-26.62
-24.24
-22.53
-23.73
-28.47
-35.81
-44.09
-51.94
-58.37
-61.86
-60.79
-53.90
-40.85
-23.01
-3.20
15.07
28.63
34.73
34.14
30.42
27.24
26.24
26.40
26.02
24.26
21.86
20.80
23.02
28.94
37.03
44.93
50.53
53.11
53.66
53.79
54.88
57.43
60.48
61.79
58.96
49.93
34.60
14.67
-7.19
-28.49
-47.56
-64.19
-79.41
-92.24
-104.41
-117.00
-130.47
-144.66
-158.26
-168.30
-170.41
-160.34
-136.22
-100.56
-59.37
-20.59
8.97
26.25
32.60
32.15
29.35
26.89
24.92
22.63
19.40
15.53
12.04
9.89
9.32
9.76
10.28
9.79
7.93
4.78
0.74
-3.69
-8.08
-12.00
-15.02
-16.80
-17.30
-16.77
-15.89
-15.59
-16.42
-18.20
-19.79
-19.33
-15.28
-7.11
4.35
17.28
29.39
39.01
45.40
48.39
47.82
43.52
36.14
27.60
20.74
17.73
18.15
18.26
12.25
-4.33
-31.09
-61.45
-84.87
-91.60
-77.56
-46.26
-6.69
30.94
60.07
79.28
91.43
100.55
109.46
119.00
128.38
136.26
141.17
142.01
137.68
127.52
111.45
90.23
65.07
37.14
7.84
-20.91
-45.93
-63.23
-69.46
-63.78
-48.90
-30.33
-13.61
-1.51
7.03
15.81
28.68
46.97
68.49
88.17
100.11
100.17
87.93
66.65
42.05
20.01
4.63
-2.91
-2.09
5.89
19.90
40.15
67.76
102.95
143.15
182.32
212.15
225.29
218.10
192.34
154.15
110.97
68.64
29.82
-5.30
-37.95
-68.10
-94.25
-113.63
-123.61
-122.91
-112.00
-92.44
-66.36
-37.77
-11.51
6.68
12.06
3.03
-17.43
-42.35
-63.34
-74.06
-75.54
-73.86
-78.24
-96.36
-131.17
-180.59
-239.60
-302.09
-361.56
-413.89
-454.17
-479.11
-488.88
-489.29
-491.91
-510.40
-554.00
-603.41
-633.54
-618.94
-548.85
-433.39
-297.20
-166.43
-58.04
23.82
84.75
127.73
158.80
179.11
187.85
185.93
177.38
168.24
164.51
169.95
183.06
199.84
214.68
223.84
226.98
226.80
227.61
233.28
246.30
265.69
289.13
313.30
336.17
358.23
382.07
410.45
443.81
478.95
508.64
524.63
520.10
492.70
445.23
384.08
316.79
249.17
184.95
125.70
72.12
24.41
-17.46
-54.00
-86.48
-116.76
-147.58
-180.66
-215.65
-249.56
-277.15
-293.04
-294.21
-281.81
-261.16
-240.66
-227.47
-224.44
-229.22
-235.76
-237.57
-230.76
-214.68
-185.29
-141.66
-85.18
-19.79
48.74
114.65
173.13
220.61
255.34
277.60
288.52
290.33
286.72
279.40
269.26
256.62
241.25
223.43
204.10
183.84
163.02
141.29
117.22
88.63
56.20
20.28
-18.09
-57.32
-96.09
-133.52
-169.43
-204.47
-239.68
-276.50
-317.05
-362.80
-413.36
-465.69
-513.58
-548.99
-564.68
-557.01
-527.71
-483.77
-434.58
-388.56
-350.92
-322.99
-303.51
-290.40
-281.80
-276.08
-271.49
-265.30
-253.94
-234.01
-203.13
-160.32
-105.74
-40.09
35.87
121.12
213.98
311.27
407.81
496.77
570.64
622.68
648.40
646.60
619.78
573.91
517.60
460.39
410.72
373.99
351.50
340.58
336.02
331.78
322.73
305.35
277.87
240.13
193.04
138.52
79.45
19.23
-38.72
-91.57
-137.56
-176.21
-208.29
-235.91
-262.29
-290.95
-324.27
-362.25
-401.59
-436.21
-458.80
-463.01
-445.10
-404.83
-345.34
-272.67
-194.92
-121.04
-59.03
-13.66
15.33
33.42
49.46
72.12
106.63
153.29
208.18
265.59
320.37
369.09
409.76
440.82
460.35
466.64
459.32
440.36
413.77
384.31
356.01
330.71
307.91
285.19
259.85
230.23
196.24
159.12
120.53
81.99
44.70
9.74
-22.59
-51.78
-77.12
-98.21
-115.36
-129.58
-142.10
-153.43
-163.25
-172.28
-180.77
-188.31
-193.81
-196.20
-195.18
-191.65
-187.24
-183.94
-186.15
-196.75
-215.83
-240.87
-268.40
-296.01
-323.08
-350.00
-377.62
-409.67
-447.91
-490.66
-532.92
-568.60
-592.95
-603.74
-600.71
-561.13
-472.29
-335.73
-169.60
-0.07
150.87
271.51
359.06
415.78
444.69
446.55
421.30
371.56
304.71
231.47
162.82
106.57
72.45
62.74
68.86
77.61
78.40
68.12
50.43
31.81
17.27
8.46
3.30
-2.82
-12.84
-26.31
-40.05
-50.77
-56.69
-57.96
-55.85
-52.27
-49.21
-47.27
-46.74
-45.05
-40.36
-32.35
-22.12
-11.45
-2.35
3.49
5.49
4.14
0.74
-3.81
-9.10
-15.23
-22.51
-31.29
-41.59
-53.06
-64.87
-75.82
-84.93
-91.32
-94.29
-94.58
-92.75
-89.46
-85.21
-80.15
-73.89
-65.82
-55.24
-41.73
-25.53
-7.45
11.13
28.79
44.69
59.08
73.08
88.29
106.00
126.47
148.85
171.37
192.17
210.05
225.04
238.22
251.22
265.77
283.39
305.18
331.12
359.17
384.71
401.03
401.32
381.26
341.18
286.32
224.86
164.54
109.82
60.84
14.66
-32.24
-81.78
-133.31
-184.28
-231.62
-273.01
-307.33
-334.31
-354.04
-366.77
-373.08
-374.34
-373.08
-372.58
-375.90
-384.47
-397.00
-409.53
-416.33
-412.15
-394.02
-362.08
-319.28
-269.83
-217.58
-164.69
-111.14
-54.63
8.42
81.50
166.25
260.63
358.11
448.57
521.46
569.23
590.84
591.12
578.69
562.19
546.96
533.95
520.55
503.84
482.35
457.74
432.66
409.18
387.95
367.91
347.18
323.74
296.97
266.78
233.68
196.48
153.00
101.87
44.27
-15.26
-70.55
-115.08
-154.44
-193.99
-239.52
-293.82
-354.47
-414.87
-464.02
-499.75
-523.16
-536.73
-541.63
-538.49
-527.57
-509.21
-484.75
-456.73
-428.81
-403.54
-382.25
-363.90
-346.79
-329.01
-309.18
-287.05
-263.57
-240.82
-220.19
-202.39
-186.64
-171.69
-156.12
-138.83
-119.56
-98.98
-78.66
-59.81
-43.20
-28.64
-15.36
-2.29
11.58
26.73
42.92
59.25
74.77
88.85
101.54
113.52
125.91
139.90
156.22
174.83
194.99
215.68
236.01
255.50
274.30
293.03
312.77
334.94
361.22
392.87
429.76
469.34
506.34
533.83
545.35
537.30
510.28
468.69
418.91
367.01
317.10
271.11
229.56
192.55
160.41
133.46
111.68
94.29
79.85
66.65
53.08
38.01
21.07
2.91
-14.87
-30.15
-41.05
-46.95
-48.99
-49.76
-52.33
-59.17
-71.20
-87.90
-107.85
-129.47
-151.19
-170.95
-186.01
-193.66
-192.62
-184.37
-173.10
-163.83
-159.54
-159.11
-157.62
-149.08
-130.32
-103.55
-75.75
-55.44
-47.93
-52.24
-61.23
-64.52
-52.69
-20.38
32.63
101.89
179.75
257.12
324.87
375.33
403.57
408.38
392.48
361.66
323.00
283.08
246.69
216.33
192.53
174.27
159.45
145.19
128.51
107.21
80.73
50.48
19.09
-10.85
-37.89
-62.50
-86.64
-112.67
-142.03
-174.51
-208.30
-240.81
-269.93
-294.97
-316.97
-338.53
-363.19
-394.49
-434.82
-484.11
-538.84
-592.05
-634.88
-659.23
-660.65
-639.82
-602.09
-554.98
-505.23
-456.80
-410.77
-366.68
-324.29
-284.49
-248.73
-217.73
-190.56
-164.64
-137.05
-106.08
-72.14
-37.71
-6.06
20.34
41.07
57.83
73.64
91.68
114.18
142.33
176.12
214.13
252.92
286.89
309.41
315.07
301.88
272.28
231.99
187.36
142.75
99.48
56.88
14.54
-25.93
-60.84
-86.03
-98.94
-99.73
-90.94
-75.94
-57.39
-36.62
-13.86
11.29
39.26
70.15
103.25
136.76
167.97
193.65
210.88
217.91
214.83
203.68
187.79
171.01
156.77
147.54
144.63
148.33
157.94
171.75
187.11
200.70
209.11
209.60
201.13
184.98
164.67
144.77
129.16
118.94
111.89
103.42
88.69
64.46
29.88
-14.06
-65.34
-121.18
-177.62
-228.69
-266.80
-284.51
-277.07
-244.33
-190.71
-123.36
-50.17
21.27
83.67
129.95
154.35
154.72
134.75
104.26
76.34
62.42
67.35
87.41
112.43
130.58
133.95
121.49
98.43
72.78
51.16
36.34
27.60
23.24
23.09
29.38
44.86
69.76
99.48
125.09
136.77
127.94
98.41
54.32
4.68
-43.01
-85.68
-124.88
-164.12
-205.65
-248.46
-288.36
-319.87
-338.39
-341.62
-329.96
-305.97
-273.59
-237.12
-200.08
-164.09
-128.29
-89.79
-45.41
6.08
62.46
118.23
166.61
202.16
222.88
230.45
229.35
225.08
222.28
223.45
228.33
234.00
235.90
229.61
212.88
187.36
158.94
136.02
126.69
135.57
162.11
200.88
243.75
282.54
311.32
327.22
330.10
321.64
304.42
281.35
255.53
229.97
207.32
189.45
176.85
168.56
162.42
155.87
146.72
133.88
117.69
99.65
81.70
65.21
50.34
35.86
19.68
-0.41
-25.95
-57.24
-93.25
-131.51
-168.61
-200.79
-224.98
-239.62
-245.06
-243.19
-236.48
-226.94
-215.64
-202.89
-188.86
-174.17
-159.94
-147.40
-137.23
-129.06
-121.75
-113.83
-104.17
-92.45
-79.19
-65.67
-53.54
-44.47
-39.79
-40.24
-45.73
-55.32
-67.29
-79.41
-89.44
-95.63
-97.24
-94.64
-89.25
-82.82
-76.81
-71.90
-68.02
-64.77
-62.03
-60.19
-59.84
-61.08
-63.01
-63.81
-61.56
-55.28
-45.59
-34.45
-24.14
-15.99
-9.78
-4.08
2.58
10.64
19.16
26.40
30.96
32.69
32.66
32.43
32.92
33.80
33.68
31.09
25.37
17.30
8.82
2.26
-0.40
2.03
10.06
23.85
43.37
68.20
97.17
128.01
157.40
181.58
197.18
202.09
195.92
180.07
157.26
130.81
103.84
78.56
55.97
35.78
16.77
-2.87
-24.94
-50.86
-80.98
-113.99
-146.75
-174.86
-194.06
-202.01
-199.41
-189.89
-178.47
-169.19
-163.20
-158.43
-150.81
-136.64
-114.56
-86.51
-56.97
-31.35
-14.27
-8.32
-13.68
-27.88
-46.39
-63.73
-75.23
-79.31
-78.97
-81.66
-96.88
-131.92
-187.72
-257.08
-326.19
-379.12
-403.04
-392.25
-349.55
-284.91
-212.43
-147.19
-102.39
-87.15
-104.59
-150.75
-215.09
-283.10
-340.16
-376.01
-387.43
-378.20
-356.57
-331.45
-309.59
-294.05
-284.66
-279.43
-275.73
-271.11
-263.46
-250.94
-232.41
-207.99
-179.20
-148.73
-119.47
-93.69
-72.04
-53.60
-36.38
-18.39
1.37
22.46
43.21
61.48
75.63
85.29
91.50
96.17
101.26
107.87
115.82
123.86
130.30
133.99
134.95
134.41
134.36
136.53
141.74
149.63
159.09
168.86
178.32
187.90
199.04
213.95
235.18
265.37
306.52
358.78
419.31
481.75
537.31
577.35
596.45
594.18
575.30
547.58
518.62
493.38
473.42
457.84
445.21
434.83
426.19
419.11
412.94
406.44
398.07
386.56
371.28
352.38
330.74
305.89
277.53
245.35
209.50
170.53
129.13
85.92
41.58
-3.03
-49.11
-97.19
-147.27
-198.25
-248.41
-296.34
-341.67
-385.28
-429.45
-480.48
-543.62
-621.39
-710.83
-803.26
-886.99
-951.50
-991.12
-987.50
-934.21
-835.99
-708.67
-571.74
-440.52
-322.88
-220.94
-133.93
-60.00
-3.98
36.13
62.56
77.32
81.63
76.26
62.53
43.50
23.94
6.51
-6.16
-14.86
-21.79
-29.44
-39.35
-51.47
-64.29
-76.01
-86.93
-97.79
-110.22
-123.73
-136.36
-145.50
-149.15
-146.31
-137.42
-124.62
-110.11
-96.44
-82.67
-66.82
-46.42
-19.44
15.29
58.13
108.84
167.00
230.39
298.99
370.79
441.61
506.59
562.48
609.55
651.74
695.07
743.31
801.80
870.83
945.25
1016.01
1073.30
1109.81
1123.12
1116.12
1070.98
981.06
847.04
677.76
488.10
294.48
110.56
-54.85
-187.28
-289.16
-360.60
-401.90
-414.99
-404.94
-379.60
-347.76
-318.00
-295.36
-282.83
-276.20
-270.91
-264.80
-259.19
-257.65
-263.62
-278.09
-298.76
-321.89
-339.55
-344.51
-332.26
-302.59
-259.83
-212.37
-170.63
-143.56
-136.07
-144.55
-159.76
-171.10
-171.51
-160.27
-142.45
-125.18
-113.28
-107.66
-104.96
-101.35
-95.37
-88.52
-83.36
-80.89
-79.32
-74.70
-63.60
-45.23
-22.39
-0.43
14.86
19.96
15.03
3.78
-7.91
-14.45
-12.53
-2.26
13.44
30.38
45.10
56.16
64.15
70.98
78.42
87.25
97.29
107.93
118.78
129.84
140.95
151.04
158.12
160.15
156.49
149.04
141.89
139.69
145.32
158.35
175.05
190.14
199.06
199.66
192.37
179.15
161.84
141.42
118.13
92.31
65.20
39.16
16.90
0.55
-9.20
-13.15
-13.16
-11.37
-9.52
-8.65
-9.19
-11.26
-14.78
-19.56
-25.14
-30.77
-35.59
-38.90
-40.34
-40.03
-38.30
-35.54
-31.89
-27.35
-21.92
-15.92
-10.10
-5.47
-3.04
-3.31
-6.07
-10.41
-15.02
-18.65
-20.46
-20.23
-18.20
-14.82
-10.54
-5.69
-0.57
4.53
9.21
13.11
16.00
17.78
18.44
17.94
16.17
12.89
7.96
1.35
-6.81
-16.30
-26.81
-37.98
-49.25
-59.88
-69.08
-76.19
-80.92
-83.34
-83.88
-83.00
-81.12
-78.54
-75.51
-72.24
-68.95
-65.85
-63.03
-60.53
-58.27
-56.09
-53.80
-51.19
-48.14
-44.75
-41.40
-38.52
-36.34
-34.58
-32.54
-29.40
-24.77
-19.23
-14.30
-12.08
-14.48
-22.54
-35.98
-53.24
-71.87
-89.06
-102.26
-109.63
-110.44
-105.16
-95.28
-82.76
-69.32
-55.76
-41.79
-26.28
-8.09
13.14
36.37
59.26
78.80
92.10
97.23
93.52
81.54
62.81
39.50
14.12
-10.72
-32.59
-49.65
-61.01
-66.91
-68.77
-68.77
-69.13
-71.42
-76.12
-82.84
-90.82
-99.71
-110.05
-123.07
-139.94
-160.93
-184.86
-209.03
-229.65
-242.56
-243.98
-231.39
-204.74
-167.32
-126.05
-89.81
-66.39
-59.04
-64.58
-74.51
-78.79
-70.43
-48.50
-18.00
12.88
36.55
48.53
48.02
36.88
18.16
-4.90
-29.13
-51.44
-69.04
-79.97
-83.54
-80.36
-71.99
-60.52
-48.17
-37.00
-28.55
-23.25
-20.00
-16.40
-9.59
2.35
19.40
39.65
60.44
80.24
99.98
123.25
154.87
198.35
253.42
315.00
374.23
421.40
449.11
454.52
439.52
408.99
368.36
321.85
272.23
221.82
173.58
131.27
98.19
75.31
60.17
47.56
31.82
9.70
-18.02
-46.87
-70.83
-84.98
-87.49
-80.30
-68.48
-58.79
-57.94
-70.74
-98.41
-137.56
-180.30
-216.01
-234.29
-228.30
-197.28
-147.07
-88.42
-33.63
7.14
28.47
30.51
17.93
-2.39
-23.90
-42.19
-55.73
-65.39
-73.19
-80.89
-88.77
-94.85
-94.93
-83.60
-56.21
-11.15
48.33
114.61
178.25
230.36
265.09
281.07
280.77
268.74
249.71
227.15
203.53
181.09
161.43
145.16
131.82
119.68
106.07
88.25
63.63
31.18
-7.35
-49.21
-91.80
-132.54
-169.43
-201.55
-229.49
-257.24
-289.39
-326.73
-369.21
-416.09
-463.96
-507.76
-542.46
-564.55
-576.22
-580.46
-573.34
-552.61
-520.39
-479.88
-435.71
-393.61
-359.18
-342.38
-349.18
-370.72
-398.72
-430.56
-464.10
-497.75
-529.99
-558.68
-588.59
-622.56
-648.48
-658.72
-654.78
-637.98
-608.45
-565.46
-460.30
-266.90
-60.91
115.58
268.84
398.92
509.26
605.08
690.56
767.10
825.52
857.30
870.58
872.24
862.53
842.42
813.29
777.27
737.71
693.16
643.56
599.53
566.74
542.13
521.62
501.97
481.90
461.74
438.07
406.82
369.57
325.73
272.33
209.74
141.98
74.97
14.10
-39.73
-88.28
-131.78
-171.41
-209.17
-245.32
-278.71
-307.58
-329.98
-344.66
-350.32
-344.59
-325.93
-294.68
-252.69
-203.52
-152.01
-103.46
-62.23
-30.49
-7.33
11.04
30.15
55.35
90.04
134.65
186.53
240.84
291.91
334.58
365.24
382.38
386.52
379.69
364.33
342.25
314.00
279.23
237.71
190.59
140.73
92.18
48.74
12.60
-16.00
-38.12
-55.05
-67.60
-76.23
-81.90
-86.71
-93.83
-106.24
-125.15
-149.01
-173.86
-194.66
-207.03
-208.56
-199.46
-182.21
-160.59
-138.64
-119.72
-105.97
-98.30
-96.37
-98.73
-102.87
-105.55
-103.62
-95.04
-79.65
-59.16
-36.35
-13.66
7.77
27.90
46.74
62.68
71.78
68.80
49.47
12.98
-36.57
-90.97
-140.56
-177.34
-197.82
-203.81
-201.24
-197.64
-199.11
-208.12
-222.90
-238.73
-250.08
-252.98
-246.35
-231.99
-213.43
-194.45
-178.03
-166.12
-159.69
-158.95
-163.41
-171.74
-181.81
-191.13
-197.52
-199.47
-196.49
-188.94
-177.63
-163.54
-147.36
-129.11
-107.96
-82.26
-50.33
-11.58
32.90
80.12
125.87
165.47
194.64
210.09
210.21
195.87
170.78
141.05
113.48
93.42
83.04
81.11
84.28
89.11
93.64
97.41
100.50
102.56
102.65
100.15
95.77
91.74
90.95
95.45
105.47
119.35
134.43
148.39
159.94
168.85
175.20
178.54
177.54
170.37
155.72
133.78
106.76
78.30
52.35
31.79
17.44
8.11
1.30
-5.68
-14.63
-25.93
-38.42
-49.95
-58.00
-60.42
-56.07
-45.16
-29.29
-10.98
7.07
22.85
35.63
46.11
56.17
67.98
83.16
101.88
122.60
142.44
158.18
167.42
169.45
165.52
158.06
149.85
143.04
138.72
136.63
135.28
132.17
124.38
109.87
88.73
64.11
41.61
27.42
25.60
36.13
54.90
75.38
91.55
99.88
99.76
92.28
78.79
60.31
38.03
14.07
-8.64
-27.60
-42.47
-55.83
-72.07
-94.96
-125.22
-159.74
-192.92
-219.33
-236.11
-243.86
-245.64
-245.02
-244.36
-244.11
-243.20
-239.90
-232.69
-220.73
-204.05
-183.79
-162.22
-142.47
-127.79
-120.28
-119.61
-122.59
-123.78
-117.18
-98.17
-65.09
-19.79
32.98
87.20
137.42
180.30
215.45
245.21
273.60
304.71
340.89
381.36
421.78
455.39
475.28
477.24
461.46
432.53
397.54
363.14
333.10
307.53
283.98
259.47
232.36
202.86
172.17
141.26
110.28
78.83
46.67
14.12
-18.17
-49.65
-80.22
-110.14
-139.40
-167.30
-192.13
-211.46
-222.84
-224.91
-218.70
-208.02
-198.45
-195.00
-199.38
-209.00
-218.49
-223.34
-223.57
-225.24
-238.14
-270.95
-326.26
-398.71
-477.04
-548.62
-604.00
-639.06
-654.32
-652.60
-636.86
-609.46
-572.58
-529.12
-482.98
-438.58
-399.56
-367.66
-342.02
-319.72
-297.09
-271.26
-241.28
-208.29
-174.82
-143.73
-116.96
-95.03
-77.06
-61.50
-46.90
-32.56
-18.73
-6.23
4.05
11.74
17.17
21.30
25.25
29.89
35.54
41.90
48.27
53.86
58.12
60.88
62.29
62.70
62.45
61.77
60.73
59.37
57.76
56.14
54.95
54.75
56.13
59.59
65.48
73.93
84.93
98.34
113.88
131.13
149.58
168.61
187.70
206.64
225.50
244.39
263.05
280.48
295.01
304.82
308.60
306.17
298.51
287.41
274.82
262.19
250.22
238.85
227.65
216.21
204.49
193.10
183.15
176.03
172.89
174.20
179.48
187.32
195.65
201.97
203.79
199.15
187.35
169.56
148.77
129.23
115.20
109.41
112.15
121.29
133.19
144.35
152.76
158.52
163.30
169.22
177.52
187.85
198.39
206.79
211.36
211.95
209.82
206.83
204.31
202.20
199.18
193.54
184.08
170.87
155.09
138.44
122.37
107.55
93.82
80.62
67.38
53.70
39.32
23.84
6.56
-13.40
-36.80
-63.71
-93.18
-123.23
-151.32
-175.13
-193.34
-205.96
-214.10
-219.35
-223.00
-225.60
-227.09
-227.14
-225.76
-223.64
-221.99
-222.15
-225.11
-231.10
-239.40
-248.48
-256.22
-260.22
-258.23
-248.67
-230.97
-205.77
-174.60
-139.27
-101.16
-60.85
-18.77
23.79
63.70
95.98
115.12
117.21
101.87
72.78
36.49
0.15
-30.72
-53.42
-67.97
-76.13
-80.25
-82.49
-84.47
-86.97
-89.82
-91.80
-90.91
-85.12
-73.33
-55.79
-34.13
-10.66
12.61
34.69
55.87
77.57
101.86
130.85
165.82
206.14
248.55
287.02
313.96
322.55
309.40
276.39
230.46
181.32
137.92
105.53
84.43
71.10
60.60
49.13
35.29
19.89
4.67
-9.11
-21.26
-32.47
-43.44
-53.84
-62.26
-66.59
-65.13
-57.61
-45.56
-31.80
-19.32
-10.10
-4.55
-1.98
-1.40
-2.50
-5.77
-11.99
-21.33
-32.62
-43.43
-50.84
-52.47
-47.38
-36.28
-21.26
-5.04
9.74
21.19
28.48
32.07
33.58
35.46
40.20
49.43
63.14
79.43
95.00
106.15
110.04
105.55
93.49
76.08
56.00
35.59
16.25
-1.51
-17.72
-32.49
-45.58
-56.33
-63.79
-67.17
-66.17
-61.26
-53.66
-45.12
-37.57
-32.85
-32.31
-36.48
-44.44
-53.57
-59.62
-57.72
-44.02
-17.47
19.12
59.52
95.83
121.08
131.42
127.08
111.69
90.42
67.85
46.75
27.95
11.32
-3.18
-14.89
-22.78
-26.32
-26.11
-23.95
-21.94
-21.45
-22.30
-22.85
-20.98
-15.39
-6.50
3.53
11.72
15.62
14.44
9.38
2.95
-2.31
-4.98
-5.37
-5.07
-5.81
-8.40
-12.24
-15.84
-17.71
-17.26
-14.91
-11.61
-8.08
-4.38
-0.10
4.96
10.22
14.19
15.02
11.47
3.81
-5.97
-14.51
-18.03
-13.43
1.08
26.05
61.46
107.07
162.03
223.72
286.59
342.40
381.98
398.39
389.70
359.81
316.98
270.49
227.43
191.05
161.18
136.02
114.01
94.63
78.07
64.45
53.21
43.28
33.69
24.11
15.00
7.54
2.85
1.46
3.08
6.63
10.76
14.41
17.18
19.22
21.07
23.12
25.43
27.65
29.22
29.47
27.72
23.19
14.98
2.27
-15.37
-37.41
-62.10
-86.51
-107.14
-120.90
-125.94
-122.24
-111.38
-95.92
-78.54
-61.30
-45.57
-32.10
-21.45
-14.13
-10.59
-10.91
-14.75
-21.46
-30.33
-40.90
-52.89
-65.93
-79.18
-91.23
-100.30
-104.74
-103.50
-96.42
-84.11
-67.71
-48.60
-28.29
-8.30
9.88
25.09
36.76
45.04
50.74
54.97
58.68
62.41
66.25
70.09
73.87
77.70
81.68
85.57
88.60
89.59
87.43
81.69
72.96
62.69
52.55
43.69
36.12
28.73
19.88
8.26
-6.37
-22.99
-39.72
-54.66
-66.73
-75.94
-83.36
-90.57
-99.17
-110.56
-125.99
-146.37
-171.59
-199.43
-225.14
-242.40
-245.70
-233.05
-207.42
-175.72
-145.92
-123.74
-110.75
-104.97
-103.03
-102.51
-102.70
-103.77
-105.24
-105.15
-100.82
-90.26
-73.60
-53.05
-31.69
-11.91
5.55
21.53
37.68
55.44
75.51
97.73
121.50
146.01
170.32
193.13
212.81
227.50
235.51
235.74
228.01
213.05
192.33
167.89
142.07
117.38
96.08
79.77
68.93
62.84
59.91
58.26
56.35
53.33
49.00
43.60
37.47
30.88
23.96
16.59
8.54
-0.41
-10.25
-20.55
-30.58
-39.61
-47.35
-54.10
-60.61
-67.61
-75.25
-82.93
-89.55
-94.20
-96.73
-97.98
-99.43
-102.31
-106.87
-111.84
-114.88
-113.56
-106.64
-95.03
-81.89
-71.69
-68.89
-76.60
-96.09
-126.84
-166.41
-210.16
-251.05
-280.77
-292.48
-284.44
-262.37
-238.25
-225.60
-233.06
-260.10
-297.20
-330.57
-348.75
-347.19
-328.50
-299.01
-264.28
-226.48
-185.05
-139.45
-91.67
-46.72
-11.02
10.41
15.85
7.18
-11.34
-35.09
-60.44
-85.19
-108.25
-128.71
-145.43
-157.01
-162.25
-160.74
-153.13
-141.05
-126.75
-112.50
-99.99
-89.82
-81.20
-72.11
-59.89
-42.23
-18.14
11.61
44.73
78.14
109.12
136.14
159.20
179.81
200.51
224.28
253.51
288.80
328.10
366.53
397.68
415.87
418.32
406.29
384.47
359.23
336.53
320.38
312.46
312.43
318.68
328.95
340.76
351.81
360.41
365.74
367.91
367.58
365.61
362.74
359.61
356.56
353.33
348.53
339.55
322.96
295.62
255.97
204.63
144.01
77.52
8.18
-62.30
-133.63
-206.65
-282.74
-363.37
-449.48
-540.41
-632.92
-720.65
-794.88
-846.85
-870.73
-865.90
-837.28
-793.32
-742.74
-691.80
-643.24
-597.16
-552.92
-510.55
-470.92
-434.96
-402.65
-372.75
-343.45
-313.49
-282.83
-252.69
-224.88
-200.78
-180.59
-163.20
-146.80
-129.72
-111.27
-92.04
-73.56
-57.51
-44.86
-35.42
-28.00
-21.09
-13.71
-5.99
0.87
5.22
5.96
3.31
-1.01
-4.34
-4.22
0.57
9.44
20.42
31.02
39.52
45.80
51.53
59.51
72.85
93.92
123.56
160.14
199.22
234.13
257.63
264.67
254.89
233.53
209.98
194.57
194.63
211.59
240.34
271.18
293.61
300.38
289.99
267.00
239.89
217.89
208.07
213.59
233.38
263.03
296.18
325.67
344.74
348.02
332.71
299.40
252.17
197.62
143.26
95.60
58.95
35.04
23.07
20.17
22.33
25.46
26.54
24.35
19.32
12.65
5.37
-2.17
-10.26
-19.09
-28.29
-36.81
-43.09
-45.44
-42.39
-33.21
-18.41
-0.25
17.56
30.96
37.22
36.33
31.20
26.50
26.64
34.03
48.74
69.31
94.40
123.98
159.46
202.45
252.84
307.29
359.19
400.40
424.05
427.17
411.75
383.68
350.06
316.29
284.55
254.20
223.42
191.07
157.43
123.79
91.48
61.33
33.81
9.71
-9.46
-21.87
-26.17
-22.35
-12.13
1.37
14.36
23.19
25.14
19.01
5.43
-12.97
-32.00
-46.77
-53.14
-48.98
-34.97
-14.44
7.77
26.98
40.16
46.66
47.91
46.39
44.51
43.79
44.77
47.29
50.95
55.30
59.72
63.09
63.70
59.58
49.15
31.90
8.76
-18.00
-45.50
-71.10
-93.21
-111.61
-127.25
-141.83
-157.06
-174.21
-193.79
-215.50
-238.43
-261.35
-283.04
-302.63
-319.81
-334.92
-348.86
-362.84
-377.87
-394.21
-410.86
-425.48
-434.87
-436.01
-427.37
-409.66
-385.76
-359.58
-334.58
-312.56
-293.41
-275.64
-257.41
-237.29
-214.55
-188.96
-160.56
-129.52
-96.38
-61.97
-27.35
6.77
40.42
74.44
109.91
147.35
186.16
224.40
259.39
288.37
309.29
321.35
325.13
322.31
315.07
305.36
294.31
281.84
267.01
248.77
226.92
202.86
179.52
160.51
148.82
145.94
151.48
163.57
179.36
195.38
207.57
211.64
203.83
182.04
146.54
100.08
46.93
-8.39
-62.08
-111.38
-154.24
-189.06
-214.60
-230.49
-237.35
-236.92
-231.53
-223.36
-213.72
-202.95
-190.67
-176.32
-159.84
-141.65
-122.98
-105.54
-90.92
-79.64
-70.62
-61.50
-49.49
-32.68
-10.07
17.41
47.35
76.79
103.22
125.30
142.91
156.70
167.06
175.45
182.62
188.68
193.38
196.67
198.92
200.66
202.04
201.83
201.16
201.35
203.47
207.81
213.48
218.84
222.67
225.65
230.00
243.88
275.17
327.58
398.13
477.71
554.58
619.09
667.12
681.74
655.12
585.12
475.66
336.56
181.38
24.31
-122.59
-242.02
-334.00
-400.64
-446.38
-477.14
-499.63
-520.51
-545.57
-579.14
-621.86
-672.44
-722.72
-762.60
-783.39
-780.59
-755.60
-714.77
-666.67
-618.59
-575.86
-537.63
-500.95
-463.56
-425.00
-386.61
-350.08
-315.79
-282.29
-248.30
-211.19
-169.65
-124.51
-77.23
-29.61
17.46
64.40
112.87
163.92
219.94
283.15
354.63
434.84
521.31
607.83
685.09
743.01
772.69
771.96
745.09
700.47
649.02
599.19
555.03
516.63
482.34
449.35
418.06
390.50
356.85
310.27
246.93
167.67
78.19
-3.91
-74.03
-131.68
-177.75
-213.71
-241.83
-263.63
-281.24
-297.57
-316.03
-341.49
-376.31
-420.26
-470.21
-518.33
-554.50
-569.33
-557.47
-519.56
-463.23
-397.95
-332.24
-271.36
-215.73
-162.66
-109.00
-52.84
5.77
64.29
119.86
169.12
208.23
233.95
244.42
240.00
223.28
198.63
170.44
142.77
118.50
99.22
85.73
78.14
75.69
76.71
78.90
79.91
78.44
74.53
69.29
64.22
60.39
57.82
55.59
52.28
46.64
38.16
27.28
15.37
4.25
-4.50
-10.12
-13.08
-14.86
-17.29
-21.70
-28.28
-36.12
-43.62
-49.40
-52.90
-54.55
-55.66
-57.81
-62.36
-69.74
-79.28
-89.21
-97.27
-101.57
-101.35
-97.40
-91.57
-85.80
-81.10
-77.21
-73.00
-67.54
-60.92
-54.31
-49.25
-46.55
-45.60
-44.57
-41.37
-34.77
-24.99
-13.45
-1.86
8.49
17.01
23.50
27.58
28.51
25.58
18.75
9.09
-1.41
-10.65
-17.25
-21.11
-23.13
-24.58
-26.27
-28.21
-29.84
-30.37
-29.26
-26.33
-21.63
-15.39
-7.94
0.15
8.04
14.80
19.74
22.74
24.33
25.44
26.91
29.10
31.76
34.17
35.60
35.65
34.36
32.09
29.25
26.08
22.64
18.87
14.82
10.72
6.97
3.92
1.75
0.27
-1.03
-2.81
-5.61
-9.62
-14.56
-19.75
-24.32
-27.50
-28.81
-28.09
-25.53
-21.46
-16.33
-10.57
-4.64
1.08
6.24
10.62
14.12
16.78
18.69
19.97
20.71
21.04
21.03
20.75
20.23
19.49
18.57
17.53
16.44
15.34
14.19
12.86
11.13
8.85
5.93
2.46
-1.28
-4.92
-8.14
-10.75
-12.77
-14.34
-15.57
-16.42
-16.66
-15.93
-13.91
-10.56
-6.19
-1.39
3.09
6.64
8.92
9.96
10.05
9.61
9.05
8.60
8.27
7.97
7.51
6.74
5.58
3.97
1.93
-0.49
-3.14
-5.83
-8.28
-10.31
-11.88
-13.14
-14.37
-15.78
-17.39
-18.93
-20.00
-20.14
-19.04
-16.59
-12.99
-8.78
-4.79
-2.06
-1.61
-4.13
-9.63
-17.31
-25.70
-32.98
-37.57
-38.52
-35.61
-29.23
-20.14
-9.20
2.66
14.37
24.74
32.44
36.38
36.16
32.41
26.87
21.84
19.39
20.49
24.61
29.94
34.28
35.90
34.24
29.91
24.16
18.21
12.76
7.91
3.47
-0.75
-4.74
-8.45
-11.89
-15.30
-19.07
-23.46
-28.35
-33.12
-36.78
-38.34
-37.20
-33.38
-27.52
-20.60
-13.62
-7.32
-2.01
2.35
6.01
9.29
12.37
15.26
17.77
19.61
20.59
20.76
20.46
20.14
20.13
20.45
20.78
20.64
19.71
17.97
15.70
13.35
11.25
9.47
7.87
6.24
4.41
2.33
-0.02
-2.69
-5.78
-9.38
-13.47
-17.86
-22.22
-26.11
-29.08
-30.77
-30.92
-29.44
-26.43
-22.16
-17.04
-11.53
-6.02
-0.75
4.28
9.17
14.09
19.09
24.03
28.64
32.54
35.53
37.60
38.94
39.73
39.92
39.12
36.77
32.38
25.91
17.88
9.24
1.08
-5.81
-11.11
-14.86
-17.25
-18.38
-18.23
-16.80
-14.37
-11.52
-9.05
-7.64
-7.56
-8.54
-9.90
-10.91
-11.00
-9.94
-7.71
-4.35
0.04
5.31
11.14
16.94
22.03
25.89
28.43
30.05
31.48
33.39
36.01
39.00
41.58
42.96
42.64
40.55
36.88
31.87
25.67
18.40
10.47
2.73
-3.63
-7.46
-8.19
-6.18
-2.65
0.77
2.70
2.45
0.18
-3.35
-7.17
-10.49
-12.92
-14.38
-15.03
-15.12
-14.92
-14.76
-14.94
-15.82
-17.59
-20.19
-23.32
-26.60
-29.68
-32.47
-35.18
-38.13
-41.51
-45.23
-48.84
-51.67
-53.05
-52.56
-50.17
-46.15
-41.02
-35.36
-29.67
-24.39
-19.84
-16.28
-13.91
-12.75
-12.75
-13.70
-15.28
-17.07
-18.62
-19.49
-19.27
-17.77
-15.00
-11.20
-6.81
-2.35
1.74
5.17
7.86
9.88
11.44
12.75
14.02
15.31
16.63
17.87
18.84
19.28
18.91
17.57
15.35
12.73
10.57
9.91
11.52
15.58
21.44
27.70
32.69
34.99
33.88
29.54
22.88
15.22
7.90
1.96
-2.05
-4.00
-4.16
-3.05
-1.23
0.73
2.41
3.49
3.82
3.34
2.15
0.47
-1.41
-3.15
-4.48
-5.30
-5.67
-5.77
-5.83
-5.93
-6.03
-5.99
-5.72
-5.23
-4.74
-4.53
-4.80
-5.66
-6.95
-8.39
-9.63
-10.43
-10.76
-10.79
-10.83
-11.19
-12.04
-13.34
-14.89
-16.39
-17.63
-18.60
-19.49
-20.57
-22.12
-24.28
-26.99
-30.04
-33.10
-35.74
-37.56
-38.21
-37.45
-35.26
-31.77
-27.29
-22.26
-17.13
-12.28
-7.93
-4.18
-0.93
1.94
4.52
6.79
8.66
10.02
10.87
11.27
11.39
11.36
11.31
11.27
11.28
11.35
11.48
11.64
11.80
11.87
11.85
11.73
11.57
11.36
11.02
10.43
9.42
7.89
5.86
3.42
0.71
-2.14
-5.05
-7.93
-10.76
-13.52
-16.22
-18.95
-21.79
-24.81
-27.88
-30.67
-32.70
-33.47
-32.67
-30.26
-26.49
-21.76
-16.44
-10.83
-5.11
0.57
6.09
11.25
15.84
19.66
22.56
24.50
25.52
25.82
25.64
25.28
24.97
24.82
24.79
24.80
24.76
24.62
24.41
24.12
23.66
22.85
21.49
19.44
16.75
13.68
10.63
8.01
6.11
4.96
4.34
3.81
2.95
1.44
-0.72
-3.20
-5.52
-7.27
-8.36
-9.10
-10.10
-11.95
-14.87
-18.50
-21.92
-23.79
-22.66
-17.38
-7.43
6.76
23.53
40.10
52.91
58.55
54.81
41.72
21.80
-0.42
-19.68
-31.56
-33.56
-25.42
-8.64
14.40
41.19
69.20
95.71
117.72
132.17
136.84
131.34
117.35
98.15
77.40
57.93
41.35
28.43
19.88
16.85
20.60
31.51
48.09
67.00
83.93
95.18
99.14
96.67
90.28
82.55
74.91
67.23
58.57
48.25
36.54
24.65
13.83
4.60
-3.64
-12.06
-21.48
-31.63
-41.13
-48.13
-51.30
-50.45
-46.56
-41.17
-35.65
-30.76
-26.50
-22.42
-17.91
-12.48
-6.21
0.39
6.57
11.63
15.25
17.70
19.67
21.85
24.56
27.48
29.79
30.56
29.17
25.58
20.25
13.86
6.88
-0.61
-8.85
-18.02
-27.91
-37.78
-46.57
-53.30
-57.53
-59.56
-60.30
-60.81
-61.75
-63.28
-65.07
-66.62
-67.54
-67.52
-66.21
-63.15
-57.77
-49.70
-39.01
-26.21
-11.98
3.07
18.58
34.36
50.01
64.79
77.60
87.38
93.50
95.99
95.43
92.69
88.41
82.84
75.71
66.40
54.31
39.18
21.30
1.47
-19.49
-41.20
-64.16
-89.83
-120.19
-157.32
-203.07
-258.78
-324.80
-399.48
-478.31
-553.75
-616.45
-657.84
-672.98
-662.34
-631.44
-588.50
-541.34
-495.11
-451.84
-411.49
-373.66
-338.53
-306.91
-279.40
-255.76
-234.92
-215.48
-196.45
-177.52
-159.07
-141.65
-125.48
-110.24
-95.17
-79.43
-62.42
-44.01
-24.40
-3.95
17.11
38.76
61.11
84.21
107.95
132.07
156.28
180.39
204.46
228.83
254.19
281.67
312.63
347.93
386.95
426.76
462.22
487.18
496.65
488.64
465.02
430.54
390.92
350.79
312.67
277.25
244.53
214.75
188.73
167.26
150.32
136.77
124.75
112.53
99.37
85.67
72.75
61.97
54.04
48.64
44.68
40.87
36.30
30.86
25.04
19.58
15.07
11.63
9.03
6.86
4.80
2.76
0.92
-0.41
-0.93
-0.49
0.83
2.73
4.78
6.65
8.16
9.33
10.30
11.21
12.10
12.84
13.24
13.16
12.55
11.51
10.18
8.74
7.32
5.99
4.73
3.44
1.99
0.33
-1.50
-3.32
-4.84
-5.72
-5.69
-4.60
-2.48
0.54
4.27
8.50
13.08
17.92
22.96
28.09
33.17
37.89
41.85
44.64
45.97
45.85
44.56
42.65
40.61
38.82
37.34
35.95
34.20
31.56
27.51
21.68
14.00
4.85
-4.90
-13.98
-21.11
-25.34
-26.33
-24.48
-20.63
-15.82
-10.97
-6.87
-4.14
-3.27
-4.46
-7.52
-11.80
-16.31
-20.11
-22.67
-24.03
-24.65
-25.07
-25.54
-25.92
-25.78
-24.67
-22.48
-19.43
-16.04
-12.81
-10.03
-7.67
-5.43
-3.00
-0.21
2.78
5.62
7.92
9.49
10.42
11.05
11.76
12.82
14.22
15.80
17.28
18.40
19.03
19.11
18.66
17.74
16.46
14.99
13.50
12.08
10.76
9.48
8.19
6.87
5.59
4.40
3.28
2.10
0.68
-1.13
-3.36
-5.87
-8.49
-11.05
-13.47
-15.82
-18.23
-20.87
-23.83
-27.07
-30.39
-33.38
-35.52
-36.26
-35.23
-32.31
-27.69
-21.79
-15.16
-8.32
-1.81
3.91
8.46
11.54
13.07
13.21
12.37
11.06
9.78
8.78
8.10
7.58
7.05
6.43
5.74
5.06
4.39
3.60
2.54
1.11
-0.65
-2.49
-4.14
-5.38
-6.20
-6.77
-7.37
-8.20
-9.31
-10.58
-11.85
-13.03
-14.18
-15.53
-17.34
-19.78
-22.85
-26.39
-30.17
-34.05
-38.00
-42.13
-46.52
-51.19
-56.00
-60.74
-65.06
-68.56
-70.79
-71.29
-69.67
-65.77
-59.72
-52.01
-43.33
-34.38
-25.70
-17.54
-9.91
-2.72
4.04
10.33
15.96
20.79
24.78
28.09
30.97
33.69
36.44
39.22
41.89
44.26
46.21
47.76
49.04
50.25
51.55
52.94
54.30
55.41
56.03
56.03
55.39
54.18
52.45
50.24
47.57
44.45
41.01
37.48
34.08
31.01
28.35
26.01
23.86
21.73
19.43
16.80
13.71
10.16
6.33
2.68
-0.17
-1.59
-1.13
1.31
5.60
11.35
18.13
25.47
32.91
40.04
46.50
52.07
56.70
60.51
63.68
66.38
68.76
70.90
72.80
74.47
75.82
76.77
77.23
77.19
76.79
76.29
75.94
75.89
76.02
75.94
75.05
72.74
68.60
62.55
54.92
46.31
37.43
28.84
20.86
13.52
6.55
-0.44
-7.90
-16.08
-24.87
-33.74
-41.79
-48.07
-51.88
-53.17
-52.56
-51.20
-50.29
-50.72
-52.76
-56.11
-60.15
-64.18
-67.66
-70.25
-71.79
-72.27
-71.77
-70.45
-68.55
-66.28
-63.84
-61.30
-58.67
-55.84
-52.78
-49.53
-46.27
-43.24
-40.72
-38.86
-37.61
-36.73
-35.87
-34.74
-33.27
-31.62
-30.12
-29.12
-28.70
-28.65
-28.53
-27.85
-26.44
-24.47
-22.44
-20.96
-20.40
-20.78
-21.77
-22.82
-23.50
-23.60
-23.21
-22.54
-21.82
-21.17
-20.61
-20.14
-19.82
-19.78
-20.17
-21.10
-22.58
-24.52
-26.74
-29.14
-31.69
-34.49
-37.68
-41.27
-45.01
-48.38
-50.74
-51.58
-50.75
-48.52
-45.44
-42.13
-38.95
-36.03
-33.31
-30.74
-28.36
-26.25
-24.46
-22.87
-21.23
-19.26
-16.85
-14.06
-11.10
-8.20
-5.44
-2.76
-0.10
2.50
4.74
6.08
5.97
4.15
0.78
-3.55
-8.06
-12.00
-14.92
-16.61
-17.10
-16.44
-14.75
-12.25
-9.30
-6.45
-4.21
-2.94
-2.67
-3.15
-4.08
-5.27
-6.73
-8.62
-11.03
-13.83
-16.61
-18.71
-19.48
-18.51
-15.74
-11.50
-6.34
-0.91
4.27
8.90
12.96
16.59
20.01
23.36
26.64
29.72
32.35
34.33
35.58
36.19
36.38
36.42
36.52
36.77
37.17
37.61
37.97
38.12
37.94
37.33
36.24
34.67
32.69
30.39
27.82
25.04
22.02
18.73
15.14
11.33
7.38
3.43
-0.43
-4.22
-8.01
-11.91
-15.99
-20.16
-24.14
-27.43
-29.43
-29.59
-27.53
-23.18
-16.78
-8.81
0.15
9.46
18.55
26.91
34.09
39.78
43.84
46.29
47.40
47.56
47.22
46.81
46.61
46.72
47.07
47.51
47.92
48.24
48.52
48.82
49.09
49.11
48.61
47.34
45.27
42.56
39.50
36.31
33.03
29.50
25.53
21.00
16.00
10.79
5.71
0.99
-3.33
-7.39
-11.44
-15.66
-20.11
-24.74
-29.37
-33.86
-37.99
-41.54
-44.13
-45.33
-44.71
-42.08
-37.62
-31.87
-25.65
-19.74
-14.72
-10.76
-7.72
-5.26
-3.06
-0.90
1.35
3.71
6.23
8.82
11.39
13.73
15.63
16.97
17.73
18.04
18.09
18.09
18.22
18.51
18.96
19.46
19.83
19.89
19.48
18.57
17.21
15.56
13.72
11.73
9.58
7.20
4.61
1.85
-0.97
-3.73
-6.33
-8.72
-10.92
-13.06
-15.32
-17.94
-21.05
-24.61
-28.38
-31.95
-34.89
-36.78
-37.32
-36.25
-33.46
-28.96
-23.05
-16.23
-9.15
-2.41
3.61
8.78
13.16
16.83
19.82
22.13
23.85
25.24
26.64
28.28
30.21
32.23
34.07
35.56
36.72
37.75
38.87
40.14
41.43
42.45
42.87
42.47
41.13
38.82
35.57
31.43
26.49
21.00
15.29
9.77
4.79
0.50
-3.15
-6.39
-9.50
-12.63
-15.76
-18.74
-21.38
-23.53
-25.16
-26.22
-26.65
-26.29
-25.02
-22.75
-19.65
-16.05
-12.35
-8.94
-6.01
-3.62
-1.69
-0.17
1.00
1.75
2.07
2.03
1.77
1.54
1.58
2.04
2.91
4.05
5.28
6.40
7.24
7.70
7.70
7.19
6.19
4.76
3.04
1.18
-0.71
-2.63
-4.62
-6.78
-9.16
-11.76
-14.58
-17.65
-21.03
-24.82
-29.07
-33.66
-38.30
-42.52
-45.77
-47.55
-47.45
-45.33
-41.40
-36.17
-30.33
-24.59
-19.40
-14.91
-10.96
-7.26
-3.58
0.13
3.77
7.13
10.01
12.28
13.94
15.04
15.70
16.04
16.17
16.17
16.08
15.90
15.58
15.01
14.06
12.55
10.45
7.83
4.94
2.11
-0.33
-2.21
-3.60
-4.78
-6.21
-8.32
-11.43
-15.60
-20.57
-25.78
-30.46
-33.76
-34.96
-33.62
-29.69
-23.56
-15.95
-7.76
0.12
7.07
12.83
17.50
21.42
24.95
28.23
31.20
33.63
35.27
36.10
36.28
36.14
35.97
35.93
35.93
35.82
35.38
34.51
33.20
31.52
29.55
27.31
24.76
21.83
18.50
14.81
10.86
6.82
2.80
-1.12
-4.98
-8.84
-12.73
-16.66
-20.58
-24.42
-28.20
-32.08
-36.28
-40.99
-46.27
-51.85
-57.20
-61.52
-64.00
-63.96
-61.11
-55.60
-47.98
-39.10
-29.80
-20.72
-12.20
-4.32
2.95
9.60
15.51
20.48
24.42
27.42
29.72
31.66
33.43
35.09
36.49
37.49
37.97
37.98
37.62
37.03
36.25
35.29
34.09
32.61
30.84
28.80
26.49
23.92
21.12
18.16
15.15
12.16
9.21
6.24
3.10
-0.34
-4.12
-8.21
-12.46
-16.72
-20.86
-24.80
-28.55
-32.26
-36.16
-40.57
-45.72
-51.65
-57.95
-63.77
-67.92
-69.23
-66.93
-60.97
-52.05
-41.40
-30.43
-20.22
-11.32
-3.76
2.79
8.66
14.03
18.84
22.92
26.18
28.69
30.64
32.31
33.83
35.19
36.29
37.04
37.46
37.65
37.74
37.71
37.46
36.80
35.58
33.72
31.25
28.19
24.56
20.35
15.56
10.32
4.92
-0.21
-4.66
-8.15
-10.65
-12.43
-13.93
-15.63
-17.83
-20.60
-23.74
-26.90
-29.78
-32.22
-34.34
-36.47
-39.08
-42.63
-47.30
-52.90
-58.68
-63.58
-66.46
-66.45
-63.27
-57.24
-49.15
-39.96
-30.57
-21.59
-13.34
-5.86
0.98
7.34
13.31
18.88
23.96
28.45
32.34
35.72
38.74
41.54
44.11
46.37
48.22
49.65
50.75
51.67
52.53
53.36
54.06
54.48
54.46
53.89
52.66
50.70
48.01
44.65
40.76
36.52
32.05
27.41
22.59
17.61
12.54
7.58
2.95
-1.16
-4.70
-7.75
-10.44
-13.01
-15.69
-18.71
-22.21
-26.09
-29.88
-32.72
-33.55
-31.41
-25.81
-16.88
-5.45
7.28
20.07
31.96
42.44
51.39
58.86
64.93
69.59
72.73
74.40
74.82
74.45
73.82
73.32
73.03
72.69
71.89
70.32
67.93
65.02
62.07
59.50
57.49
55.87
54.30
52.41
49.93
46.78
43.04
38.87
34.58
30.55
27.28
25.20
24.46
24.74
25.17
24.69
22.35
17.79
11.32
3.80
-3.81
-10.81
-16.99
-22.47
-27.49
-32.20
-36.63
-40.78
-44.71
-48.51
-52.10
-55.12
-56.90
-56.70
-54.06
-49.10
-42.59
-35.73
-29.68
-25.25
-22.50
-20.99
-19.96
-18.78
-17.18
-15.36
-13.74
-12.74
-12.51
-12.88
-13.47
-13.96
-14.12
-13.92
-13.36
-12.46
-11.21
-9.76
-8.42
-7.70
-8.06
-9.78
-12.75
-16.51
-20.45
-23.94
-26.60
-28.35
-29.38
-30.13
-31.04
-32.44
-34.39
-36.72
-39.11
-41.32
-43.21
-44.87
-46.41
-47.84
-48.99
-49.55
-49.18
-47.69
-45.12
-41.63
-37.50
-32.97
-28.21
-23.35
-18.54
-13.98
-9.89
-6.50
-3.90
-2.11
-0.97
-0.26
0.25
0.71
1.19
1.66
2.01
2.18
2.11
1.77
1.21
0.52
-0.21
-0.86
-1.38
-1.80
-2.23
-2.78
-3.53
-4.43
-5.36
-6.14
-6.67
-6.96
-7.18
-7.54
-8.22
-9.23
-10.48
-11.82
-13.12
-14.41
-15.85
-17.65
-19.98
-22.81
-25.82
-28.44
-30.07
-30.24
-28.82
-26.09
-22.57
-18.83
-15.32
-12.21
-9.50
-7.06
-4.82
-2.81
-1.14
0.09
0.89
1.34
1.64
1.99
2.47
3.12
3.83
4.47
4.97
5.30
5.48
5.57
5.58
5.49
5.28
4.91
4.37
3.60
2.53
1.12
-0.60
-2.55
-4.60
-6.69
-8.88
-11.35
-14.30
-17.79
-21.74
-25.88
-29.99
-33.91
-37.68
-41.38
-45.07
-48.71
-52.19
-55.41
-58.28
-60.72
-62.55
-63.47
-63.13
-61.26
-57.81
-53.05
-47.39
-41.30
-35.11
-28.98
-22.97
-17.07
-11.38
-6.03
-1.24
2.87
6.28
9.13
11.64
14.04
16.50
19.08
21.68
24.13
26.27
28.07
29.58
30.99
32.48
34.07
35.58
36.70
37.17
36.95
36.26
35.51
35.06
35.03
35.27
35.43
35.19
34.35
32.81
30.48
27.19
22.77
17.20
10.79
4.12
-2.12
-7.48
-11.90
-15.70
-19.33
-23.11
-26.95
-30.42
-32.87
-33.74
-32.71
-29.82
-25.37
-19.85
-13.82
-7.82
-2.29
2.47
6.28
9.13
11.05
12.17
12.60
12.55
12.24
11.94
11.84
12.04
12.55
13.31
14.29
15.47
16.80
18.19
19.45
20.39
20.83
20.71
20.06
18.95
17.46
15.68
13.74
11.76
9.90
8.27
6.97
5.97
5.17
4.40
3.42
1.93
-0.30
-3.41
-7.42
-12.12
-17.20
-22.27
-26.88
-30.52
-32.73
-33.13
-31.55
-28.08
-23.16
-17.39
-11.48
-5.99
-1.31
2.43
5.25
7.31
8.79
9.84
10.60
11.17
11.63
12.08
12.59
13.20
13.95
14.82
15.83
16.95
18.08
19.04
19.61
19.63
19.09
18.19
17.25
16.59
16.32
16.32
16.24
15.74
14.61
12.91
10.84
8.61
6.30
3.83
1.11
-1.91
-5.05
-8.06
-10.62
-12.60
-14.03
-15.17
-16.38
-18.02
-20.33
-23.40
-27.14
-31.24
-35.26
-38.66
-40.94
-41.68
-40.69
-37.99
-33.85
-28.71
-23.01
-17.24
-11.70
-6.61
-2.07
1.88
5.22
8.01
10.35
12.40
14.34
16.29
18.29
20.29
22.15
23.73
24.95
25.80
26.39
26.88
27.38
27.96
28.51
28.84
28.77
28.20
27.17
25.86
24.40
22.89
21.27
19.46
17.39
15.11
12.76
10.41
8.08
5.66
3.03
0.11
-3.03
-6.20
-9.17
-11.81
-14.14
-16.38
-18.84
-21.92
-25.82
-30.54
-35.83
-41.22
-46.12
-50.02
-52.50
-53.38
-52.70
-50.67
-47.59
-43.73
-39.39
-34.79
-30.21
-25.94
-22.30
-19.54
-17.74
-16.75
-16.27
-15.99
-15.76
-15.64
-15.85
-16.65
-18.20
-20.43
-23.10
-25.82
-28.20
-30.03
-31.32
-32.25
-33.10
-34.04
-35.02
-35.75
-35.86
-35.19
-33.92
-32.42
-30.77
-28.65
-25.19
-19.18
-9.53
4.55
23.38
47.10
75.72
108.82
144.55
179.11
207.10
223.11
223.85
209.83
185.61
158.53
136.27
125.31
128.78
145.31
169.97
196.62
220.19
237.73
248.01
252.05
250.45
243.39
230.89
212.88
189.05
158.23
118.32
66.61
2.94
-69.91
-145.45
-214.27
-266.55
-295.01
-297.31
-276.61
-240.49
-198.53
-160.58
-135.10
-128.03
-142.34
-177.74
-231.22
-297.80
-371.65
-446.00
-513.83
-567.48
-599.21
-602.99
-576.88
-524.44
-453.97
-375.72
-297.62
-223.65
-153.53
-84.50
-13.85
59.51
134.65
209.24
279.99
343.91
397.40
437.06
460.75
468.41
462.39
446.98
427.26
402.73
374.02
342.07
309.01
277.74
250.84
229.39
212.56
198.37
184.90
171.98
160.25
150.62
143.70
139.25
136.11
132.55
126.84
117.84
106.82
94.27
80.96
67.61
54.60
41.98
29.01
14.82
-1.05
-18.03
-35.08
-50.52
-63.24
-72.57
-78.30
-81.69
-84.76
-89.64
-98.06
-106.90
-112.82
-114.19
-110.31
-101.02
-88.51
-75.96
-66.33
-61.59
-62.38
-66.35
-72.54
-80.52
-90.11
-103.85
-125.57
-158.37
-203.71
-261.20
-326.72
-399.40
-480.03
-554.05
-606.86
-626.00
-604.30
-542.42
-467.20
-385.77
-302.79
-223.67
-153.40
-91.58
-39.75
2.96
39.35
72.74
108.80
149.36
195.28
247.91
306.62
367.66
424.46
467.97
488.80
483.10
450.45
396.09
329.51
259.43
190.33
122.66
54.92
-12.74
-74.54
-122.51
-148.60
-148.01
-121.98
-76.87
-20.53
40.69
102.77
163.57
218.91
262.02
285.29
283.24
255.51
207.82
149.62
90.21
35.56
-13.70
-61.07
-111.25
-166.84
-226.40
-284.20
-331.94
-361.77
-369.24
-354.92
-324.21
-285.08
-245.10
-209.36
-180.00
-157.14
-140.39
-129.57
-124.29
-123.07
-122.71
-118.93
-108.01
-88.24
-60.57
-27.86
6.38
39.77
71.84
104.08
139.32
180.51
229.34
284.84
342.60
394.97
432.95
448.89
439.54
407.54
360.57
308.43
259.39
217.75
183.56
154.55
128.58
105.14
85.15
69.62
58.40
49.95
42.17
33.62
24.16
14.75
6.73
1.05
-2.03
-2.95
-2.50
-1.65
-1.32
-2.16
-4.39
-7.69
-11.46
-15.10
-18.36
-21.41
-24.55
-27.92
-31.28
-34.25
-36.69
-38.86
-41.29
-44.21
-47.00
-48.13
-45.70
-38.28
-25.71
-9.37
8.26
24.38
36.80
44.52
47.71
47.36
44.67
40.63
35.89
30.78
25.44
19.74
13.34
5.73
-3.53
-14.27
-25.50
-35.36
-41.66
-42.69
-38.06
-28.93
-17.65
-7.09
0.34
3.15
1.00
-5.44
-14.77
-25.04
-34.18
-40.45
-42.91
-41.63
-37.73
-32.83
-28.56
-26.06
-25.89
-28.00
-31.86
-36.60
-41.01
-43.79
-43.86
-40.81
-35.13
-28.07
-21.16
-15.68
-12.20
-10.54
-10.05
-10.02
-9.92
-9.49
-8.65
-7.34
-5.55
-3.36
-1.04
0.98
2.29
2.61
1.89
0.41
-1.40
-3.06
-4.22
-4.75
-4.83
-4.74
-4.85
-5.30
-6.05
-6.79
-7.11
-6.69
-5.47
-3.73
-2.04
-1.12
-1.51
-3.42
-6.62
-10.44
-14.03
-16.60
-17.72
-17.40
-16.05
-14.25
-12.55
-11.26
-10.43
-9.93
-9.64
-9.52
-9.70
-10.39
-11.80
-13.96
-16.79
-19.94
-22.91
-25.09
-25.93
-25.02
-22.33
-18.23
-13.44
-8.84
-5.16
-2.71
-1.45
-0.95
-0.72
-0.36
0.31
1.26
2.37
3.46
4.46
5.31
5.99
6.46
6.70
6.70
6.52
6.27
6.08
6.05
6.18
6.45
6.77
7.14
7.55
7.95
8.22
8.11
7.39
5.92
3.77
1.16
-1.58
-4.14
-6.30
-7.96
-9.19
-10.11
-10.94
-11.96
-13.46
-15.66
-18.67
-22.29
-26.01
-28.97
-30.30
-29.34
-26.02
-20.85
-14.77
-8.82
-3.68
0.43
3.65
6.24
8.41
10.15
11.46
12.40
13.11
13.77
14.42
14.93
15.09
14.77
14.04
13.16
12.42
12.00
11.91
12.07
12.34
12.69
13.14
13.66
14.09
14.16
13.63
12.42
10.76
9.03
7.64
6.72
6.11
5.47
4.49
3.11
1.51
-0.02
-1.30
-2.39
-3.50
-4.87
-6.58
-8.49
-10.40
-12.18
-13.78
-15.27
-16.70
-18.12
-19.66
-21.58
-24.32
-28.18
-33.00
-37.95
-41.63
-42.60
-40.02
-34.13
-26.18
-17.94
-10.95
-5.95
-2.74
-0.58
1.35
3.50
5.81
7.98
9.69
10.91
11.85
12.77
13.85
15.01
16.03
16.71
16.97
16.97
16.97
17.16
17.57
18.04
18.26
17.97
17.00
15.41
13.40
11.29
9.39
7.97
7.14
6.86
6.95
7.14
7.20
6.98
6.43
5.58
4.52
3.37
2.24
1.22
0.26
-0.78
-2.11
-3.90
-6.21
-8.88
-11.65
-14.27
-16.55
-18.49
-20.23
-22.03
-24.21
-27.00
-30.41
-34.17
-37.61
-39.86
-40.06
-37.70
-32.85
-26.14
-18.63
-11.35
-5.14
-0.34
3.04
5.24
6.61
7.41
7.87
8.15
8.46
8.98
9.84
11.04
12.45
13.86
14.99
15.72
16.08
16.31
16.68
17.32
18.19
18.99
19.37
19.04
17.93
16.22
14.27
12.41
10.91
9.84
9.11
8.58
8.09
7.50
6.73
5.71
4.41
2.82
1.00
-1.03
-3.25
-5.65
-8.25
-10.95
-13.62
-16.05
-18.04
-19.51
-20.54
-21.38
-22.35
-23.78
-25.88
-28.61
-31.72
-34.65
-36.65
-36.97
-35.06
-30.86
-24.83
-17.82
-10.85
-4.76
0.02
3.46
5.86
7.58
8.91
9.95
10.66
11.02
11.03
10.89
10.80
10.95
11.42
12.07
12.70
13.11
13.21
13.03
12.73
12.46
12.26
12.00
11.46
10.39
8.67
6.43
4.01
1.80
0.10
-0.97
-1.56
-1.94
-2.36
-2.92
-3.56
-4.20
-4.87
-5.77
-7.22
-9.48
-12.67
-16.66
-21.18
-25.86
-30.22
-33.73
-35.76
-35.74
-33.30
-28.54
-22.05
-14.81
-7.91
-2.15
2.05
4.75
6.29
7.13
7.68
8.26
9.09
10.28
11.78
13.41
14.96
16.23
17.20
17.97
18.70
19.46
20.16
20.60
20.63
20.25
19.59
18.84
18.09
17.27
16.24
14.85
13.10
11.06
8.91
6.75
4.58
2.30
-0.24
-3.06
-6.08
-9.08
-11.75
-13.91
-15.56
-17.00
-18.69
-21.15
-24.70
-29.24
-34.27
-38.93
-42.22
-43.30
-41.67
-37.35
-30.87
-23.11
-15.09
-7.78
-1.83
2.44
5.08
6.43
7.03
7.38
7.91
8.76
9.91
11.19
12.44
13.58
14.69
15.86
17.17
18.59
19.94
20.99
21.62
21.78
21.54
21.00
20.22
19.23
18.07
16.78
15.39
13.89
12.25
10.35
8.17
5.75
3.26
0.95
-1.03
-2.68
-4.16
-5.69
-7.46
-9.47
-11.58
-13.55
-15.16
-16.34
-17.28
-18.43
-20.41
-23.73
-28.46
-34.05
-39.28
-42.67
-42.96
-39.62
-33.15
-24.95
-16.91
-10.78
-7.61
-7.29
-8.53
-9.30
-7.67
-2.78
4.54
11.63
14.78
10.28
-4.51
-30.24
-65.11
-104.88
-143.33
-173.52
-189.78
-189.80
-175.74
-153.75
-131.64
-115.83
-108.98
-109.59
-113.39
-115.81
-113.91
-107.08
-96.32
-83.07
-68.56
-53.69
-39.48
-27.26
-18.27
-12.99
-10.67
-9.41
-6.84
-1.27
7.73
19.14
31.02
41.36
48.89
53.19
54.50
53.23
49.60
43.73
35.80
26.45
16.80
8.22
1.96
-1.08
-0.62
3.01
8.96
16.08
23.13
29.14
33.68
36.89
39.32
41.56
43.94
46.42
48.73
50.76
52.63
54.71
57.30
60.28
63.12
65.05
65.53
64.48
62.33
59.77
57.43
55.72
54.88
55.00
56.08
58.00
60.33
62.46
63.67
63.41
61.42
57.79
52.73
46.51
39.33
31.50
23.51
16.02
9.68
4.90
1.65
-0.50
-2.26
-4.52
-8.17
-13.95
-22.27
-32.97
-45.15
-57.27
-67.42
-73.83
-75.35
-71.73
-63.52
-51.88
-38.21
-23.93
-10.37
1.42
10.81
17.66
22.36
25.58
27.95
29.78
31.13
31.98
32.54
33.34
35.10
38.37
43.24
49.22
55.41
60.86
64.77
66.71
66.51
64.31
60.44
55.50
50.26
45.52
41.85
39.43
38.00
36.93
35.43
32.85
28.78
23.09
15.94
7.66
-1.36
-10.68
-19.92
-28.83
-37.24
-44.99
-51.83
-57.19
-60.32
-60.45
-57.12
-50.49
-41.42
-31.21
-21.16
-12.17
-4.53
2.01
7.97
13.83
19.86
26.07
32.27
38.11
43.20
47.16
49.79
51.07
51.36
51.20
51.17
51.75
53.09
55.07
57.31
59.34
60.72
61.09
60.20
58.03
54.78
50.84
46.68
42.71
39.16
36.04
33.23
30.56
27.91
25.28
22.68
20.19
17.78
15.35
12.74
9.65
5.77
0.78
-5.43
-12.69
-20.47
-28.03
-34.68
-40.07
-44.34
-48.11
-52.30
-57.73
-64.79
-73.15
-81.68
-88.71
-92.45
-91.62
-85.85
-75.83
-63.03
-49.15
-35.64
-23.35
-12.55
-3.10
5.27
12.82
19.68
25.94
31.64
36.78
41.43
45.60
49.35
52.61
55.29
57.23
58.36
58.81
58.91
59.12
59.75
60.78
61.79
62.12
61.18
58.74
55.09
50.83
46.73
43.32
40.79
38.97
37.51
36.03
34.33
32.34
30.03
27.39
24.32
20.78
16.81
12.70
8.84
5.56
2.90
0.53
-2.13
-5.64
-10.27
-15.80
-21.66
-27.19
-31.97
-36.03
-39.81
-43.98
-49.16
-55.68
-63.45
-71.96
-80.37
-87.61
-92.56
-94.23
-91.95
-85.56
-75.54
-62.92
-49.13
-35.62
-23.54
-13.42
-5.15
1.87
8.35
14.78
21.26
27.50
33.03
37.44
40.64
42.87
44.53
46.07
47.81
49.79
51.88
53.78
55.17
55.76
55.34
53.70
50.73
46.39
40.85
34.47
27.82
21.51
16.03
11.59
8.02
4.92
1.76
-1.89
-6.20
-11.03
-15.96
-20.48
-24.24
-27.24
-29.89
-32.84
-36.74
-41.96
-48.48
-55.88
-63.48
-70.35
-75.49
-77.88
-76.59
-71.14
-61.69
-49.18
-35.14
-21.29
-9.04
0.87
8.47
14.30
19.06
23.27
27.09
30.40
33.02
34.90
36.16
37.12
38.09
39.26
40.63
42.04
43.22
43.97
44.23
44.09
43.74
43.27
42.63
41.56
39.67
36.67
32.57
27.76
22.86
18.48
14.86
11.84
8.87
5.33
0.82
-4.59
-10.47
-16.19
-21.29
-25.68
-29.71
-34.00
-39.15
-45.56
-53.25
-61.97
-71.24
-80.54
-89.27
-96.70
-101.96
-104.22
-102.94
-98.25
-91.12
-83.08
-75.74
-70.10
-65.81
-61.20
-53.50
-39.63
-17.17
15.02
56.90
107.65
165.93
229.73
295.63
358.48
411.86
449.84
469.09
470.34
458.13
438.72
417.59
397.38
377.90
357.44
334.71
309.85
284.26
259.45
235.97
213.19
189.86
164.94
138.11
109.57
79.70
48.40
14.76
-22.48
-64.29
-110.34
-158.42
-204.56
-243.97
-272.58
-288.58
-293.16
-290.21
-284.96
-282.14
-284.42
-291.67
-301.33
-309.57
-312.93
-309.34
-298.65
-282.11
-261.53
-238.47
-213.98
-188.79
-163.83
-140.48
-120.30
-104.28
-92.25
-82.95
-74.56
-65.68
-55.94
-46.08
-37.39
-30.86
-26.72
-24.40
-22.88
-21.18
-18.72
-15.42
-11.63
-7.90
-4.76
-2.66
-1.78
-2.01
-2.99
-4.24
-5.28
-5.91
-6.19
-6.41
-6.96
-8.12
-9.97
-12.35
-15.02
-17.71
-20.27
-22.66
-24.96
-27.33
-29.92
-32.89
-36.44
-40.73
-45.76
-51.21
-56.42
-60.42
-62.17
-60.88
-56.28
-48.75
-39.17
-28.73
-18.61
-9.69
-2.51
2.84
6.57
9.12
10.93
12.27
13.24
13.79
13.97
14.00
14.20
14.91
16.26
18.05
19.90
21.41
22.39
22.94
23.30
23.67
24.05
24.19
23.77
22.59
20.58
17.85
14.57
10.81
6.59
1.93
-3.10
-8.27
-13.28
-17.91
-22.18
-26.36
-30.91
-36.17
-42.14
-48.31
-53.72
-57.24
-57.86
-55.05
-48.84
-39.94
-29.49
-18.80
-8.99
-0.74
5.85
11.13
15.60
19.71
23.56
27.04
29.85
31.83
32.98
33.45
33.47
33.24
32.89
32.58
32.46
32.68
33.24
33.96
34.47
34.29
33.01
30.46
26.76
22.33
17.70
13.32
9.40
5.87
2.46
-1.10
-4.89
-8.79
-12.52
-15.84
-18.70
-21.23
-23.77
-26.74
-30.64
-35.84
-42.58
-50.65
-59.34
-67.35
-73.07
-75.01
-72.34
-65.24
-54.79
-42.66
-30.48
-19.42
-9.95
-2.01
4.71
10.53
15.64
20.08
23.88
27.12
29.88
32.35
34.69
37.03
39.37
41.58
43.46
44.84
45.66
46.02
46.09
46.01
45.75
45.15
43.99
42.19
39.76
36.89
33.79
30.57
27.28
23.86
20.31
16.71
13.17
9.79
6.54
3.25
-0.32
-4.36
-8.93
-13.86
-18.87
-23.61
-27.89
-31.73
-35.45
-39.64
-44.93
-51.70
-59.80
-68.38
-75.99
-80.94
-81.87
-78.14
-70.11
-58.96
-46.28
-33.63
-22.16
-12.51
-4.79
1.25
6.12
10.36
14.44
18.66
23.03
27.41
31.55
35.23
38.34
40.86
42.82
44.31
45.42
46.28
46.98
47.54
47.84
47.70
46.95
45.50
43.46
41.05
38.44
35.73
32.81
29.61
26.11
22.44
18.80
15.32
11.99
8.68
5.16
1.27
-3.05
-7.71
-12.50
-17.16
-21.45
-25.25
-28.62
-31.87
-35.50
-40.08
-46.02
-53.29
-61.38
-69.23
-75.53
-78.92
-78.44
-73.74
-65.17
-53.77
-40.94
-28.10
-16.35
-6.24
2.17
9.12
14.94
19.82
23.83
26.98
29.36
31.13
32.55
33.85
35.11
36.22
37.04
37.49
37.66
37.80
38.16
38.86
39.70
40.25
39.99
38.52
35.79
32.08
27.90
23.76
19.91
16.27
12.54
8.39
3.72
-1.28
-6.19
-10.60
-14.39
-17.68
-20.88
-24.43
-28.70
-33.91
-40.12
-47.14
-54.44
-61.12
-65.89
-67.50
-65.04
-58.41
-48.34
-36.26
-23.78
-12.28
-2.59
5.06
10.91
15.43
19.11
22.36
25.50
28.67
31.88
35.05
37.96
40.46
42.39
43.81
44.85
45.71
46.54
47.37
48.11
48.58
48.59
47.97
46.65
44.65
42.04
39.00
35.71
32.31
28.87
25.41
21.90
18.36
14.86
11.52
8.36
5.30
2.18
-1.20
-4.89
-8.85
-12.92
-17.01
-21.09
-25.24
-29.52
-33.94
-38.55
-43.47
-49.07
-55.75
-63.64
-72.24
-80.28
-86.02
-87.80
-84.74
-77.08
-66.09
-53.55
-41.12
-29.93
-20.43
-12.67
-6.52
-1.89
1.32
3.23
4.05
3.93
2.68
-0.22
-5.55
-13.97
-25.55
-39.56
-54.54
-68.70
-80.35
-88.38
-92.24
-91.97
-87.94
-80.80
-71.47
-61.18
-51.32
-42.97
-36.31
-30.30
-22.74
-11.35
4.99
25.24
46.26
64.02
75.44
79.90
79.43
77.55
77.33
79.74
83.33
85.32
83.30
76.60
66.55
55.34
44.40
33.20
19.28
-0.53
-28.45
-64.69
-107.43
-154.15
-202.73
-251.62
-298.73
-339.97
-369.19
-380.34
-371.01
-345.43
-314.27
-290.65
-284.19
-296.12
-318.72
-339.11
-345.68
-333.09
-303.62
-264.51
-223.35
-184.55
-148.69
-114.26
-80.25
-47.72
-19.25
2.78
18.00
28.75
39.10
52.89
72.09
95.99
121.74
145.88
165.95
181.50
194.25
207.21
223.61
245.78
274.35
307.95
343.38
376.14
401.45
415.63
417.33
407.97
391.27
371.75
353.01
336.82
323.20
311.57
301.82
294.67
291.00
290.87
292.91
294.50
292.72
285.20
270.52
248.33
218.97
183.25
142.57
99.22
56.58
18.81
-10.32
-28.79
-37.54
-40.27
-41.96
-46.28
-53.44
-59.61
-58.24
-43.37
-12.65
31.27
81.70
130.74
171.99
201.91
219.31
224.10
216.24
195.85
164.00
123.24
77.61
31.60
-10.97
-47.59
-76.86
-97.65
-108.63
-108.56
-97.38
-77.20
-52.43
-28.76
-11.42
-3.48
-5.15
-14.45
-28.79
-46.53
-67.60
-92.94
-122.93
-156.18
-189.36
-218.35
-240.05
-253.61
-260.26
-262.18
-260.85
-256.23
-247.05
-232.03
-211.11
-185.96
-159.47
-134.58
-113.27
-96.09
-82.25
-70.29
-58.69
-46.57
-33.97
-21.75
-11.10
-2.71
3.98
10.88
20.70
35.90
57.46
84.24
113.18
140.32
162.17
176.77
184.07
185.33
182.14
175.51
165.59
152.09
135.14
115.77
95.85
77.37
61.72
49.25
39.62
32.28
27.03
23.94
23.01
23.75
25.23
26.41
26.64
25.91
24.75
23.68
22.83
21.81
19.96
16.83
12.44
7.42
2.69
-0.85
-2.60
-2.44
-0.75
1.79
4.39
6.44
7.65
8.09
7.96
7.46
6.53
4.89
2.14
-2.07
-7.86
-15.06
-23.19
-31.63
-39.83
-47.54
-54.97
-62.81
-71.94
-82.98
-95.77
-109.10
-120.87
-128.47
-129.41
-122.01
-105.83
-82.07
-53.43
-23.67
3.25
24.25
38.00
45.19
48.05
49.22
50.67
52.90
54.98
55.21
51.97
44.38
32.49
17.16
-0.31
-18.52
-36.28
-52.72
-67.44
-80.38
-91.66
-101.50
-110.01
-117.23
-123.13
-127.71
-130.88
-132.42
-131.87
-128.69
-122.51
-113.43
-102.25
-90.33
-79.35
-70.82
-65.55
-63.61
-64.36
-66.87
-70.39
-74.55
-79.46
-85.37
-92.47
-100.64
-109.49
-118.47
-127.05
-134.59
-140.29
-143.12
-141.96
-136.03
-125.30
-110.68
-93.81
-76.41
-59.74
-44.25
-29.71
-15.70
-2.08
10.80
22.39
32.34
40.89
48.88
57.42
67.36
78.87
91.32
103.54
114.20
122.25
127.14
128.83
127.68
124.07
118.31
110.43
100.29
87.84
73.27
57.12
40.20
23.24
6.78
-8.96
-23.83
-37.45
-49.11
-57.94
-63.56
-66.55
-68.61
-71.96
-78.25
-87.57
-97.98
-106.08
-108.10
-101.37
-85.25
-61.30
-32.67
-3.13
23.94
46.26
62.81
73.75
80.19
83.86
86.90
91.55
99.54
111.66
127.24
144.25
159.97
171.93
178.82
180.68
178.40
172.84
164.34
152.76
138.17
121.54
104.67
89.42
76.64
65.57
54.14
40.25
22.90
2.90
-17.58
-36.08
-50.97
-62.00
-70.11
-76.75
-83.12
-89.93
-97.28
-104.87
-111.99
-117.52
-120.07
-118.28
-111.40
-99.60
-84.06
-66.52
-48.61
-31.33
-14.99
0.60
15.62
29.88
42.74
53.12
59.69
61.15
56.66
46.23
31.12
13.81
-2.50
-14.78
-21.08
-21.12
-16.16
-8.41
-0.20
6.50
10.36
10.52
6.37
-2.39
-15.73
-33.02
-52.99
-73.83
-93.49
-110.13
-122.48
-130.21
-133.99
-135.28
-135.72
-136.51
-137.87
-139.16
-139.51
-138.84
-138.47
-140.90
-148.92
-164.42
-187.70
-217.46
-251.26
-286.07
-318.47
-344.69
-360.86
-363.67
-351.41
-324.66
-286.28
-240.47
-191.39
-142.12
-94.27
-48.17
-3.37
40.90
85.46
130.42
174.53
214.89
247.49
268.42
275.50
269.01
251.67
227.64
201.24
176.13
155.20
140.92
135.54
140.71
156.63
181.27
210.38
238.42
260.44
273.66
278.31
277.07
273.83
271.83
272.59
275.62
279.15
281.12
280.02
275.09
266.19
253.41
236.95
217.14
194.52
169.75
143.49
116.17
87.89
58.59
28.33
-2.56
-33.18
-62.22
-88.20
-109.90
-126.76
-139.04
-147.64
-153.65
-158.01
-161.21
-163.32
-164.20
-163.78
-162.13
-159.40
-155.60
-150.39
-143.15
-133.29
-120.59
-105.30
-88.02
-69.20
-48.96
-27.15
-3.88
19.93
42.52
61.86
76.58
86.68
93.39
98.33
102.40
105.25
105.67
102.74
96.88
90.07
85.07
84.09
87.69
94.49
101.84
107.05
108.51
106.12
100.89
94.22
87.17
80.03
72.68
64.91
56.85
49.01
41.93
35.78
30.24
24.65
18.37
11.18
3.16
-5.43
-14.53
-24.41
-35.51
-48.14
-62.16
-76.90
-91.16
-103.32
-111.73
-114.99
-112.42
-104.36
-92.13
-77.68
-62.90
-49.07
-36.54
-25.01
-13.94
-2.98
7.83
18.27
28.21
37.78
47.29
56.94
66.58
75.64
83.37
89.17
92.86
94.68
95.04
94.27
92.31
88.84
83.52
76.35
67.83
58.90
50.49
43.18
36.84
30.72
23.76
14.97
3.91
-9.05
-22.74
-35.46
-45.40
-51.16
-52.23
-49.05
-42.84
-35.09
-27.04
-19.41
-12.47
-6.33
-1.23
2.28
3.58
2.24
-1.60
-7.25
-13.55
-19.26
-23.40
-25.44
-25.35
-23.44
-20.22
-16.13
-11.57
-6.84
-2.23
1.87
4.99
6.73
6.94
5.87
4.12
2.45
1.45
1.36
2.01
3.00
3.88
4.37
4.41
4.17
4.03
4.54
6.39
10.18
16.19
24.15
33.09
41.64
48.41
52.46
53.60
52.25
49.17
45.09
40.44
35.41
30.08
24.68
19.60
15.34
12.28
10.54
9.84
9.67
9.42
8.62
7.03
4.67
1.68
-1.73
-5.40
-9.26
-13.28
-17.48
-21.77
-26.06
-30.16
-33.89
-37.16
-40.00
-42.62
-45.30
-48.33
-51.80
-55.50
-58.86
-61.19
-61.78
-60.26
-56.62
-51.27
-44.90
-38.31
-32.23
-27.22
-23.61
-21.56
-21.02
-21.86
-23.87
-26.77
-30.17
-33.59
-36.42
-38.01
-37.91
-36.02
-32.76
-28.97
-25.69
-23.74
-23.50
-24.78
-27.07
-29.80
-32.61
-35.50
-38.68
-42.34
-46.45
-50.71
-54.63
-57.78
-59.92
-61.12
-61.64
-61.80
-61.93
-62.37
-63.35
-64.94
-66.80
-68.09
-67.56
-63.98
-56.60
-45.64
-32.27
-18.25
-5.37
5.18
13.00
18.39
21.96
24.29
25.73
26.38
26.29
25.53
24.31
22.91
21.60
20.58
19.94
19.65
19.59
19.55
19.33
18.79
17.88
16.58
14.95
13.15
11.29
9.37
7.23
4.66
1.51
-2.22
-6.41
-10.92
-15.34
-19.43
-23.14
-26.60
-30.07
-33.74
-37.68
-41.81
-46.00
-49.56
-51.69
-51.63
-48.94
-43.48
-35.38
-25.01
-12.86
0.52
15.34
32.03
50.85
71.43
92.58
112.55
129.56
142.63
147.93
143.59
130.16
110.71
89.51
70.02
54.00
41.55
32.35
26.01
22.70
22.38
24.49
27.85
31.37
34.42
36.83
38.86
40.53
41.79
42.23
41.14
37.53
30.93
22.35
12.00
0.27
-12.82
-27.41
-43.92
-62.55
-83.55
-106.09
-128.70
-149.69
-167.64
-182.04
-193.19
-202.24
-210.98
-222.43
-238.98
-261.30
-287.39
-312.18
-328.89
-331.37
-316.84
-282.60
-233.59
-178.48
-126.01
-81.90
-47.41
-20.34
2.64
23.95
44.28
62.24
76.79
87.96
96.87
105.22
114.35
125.03
137.45
151.89
168.40
187.31
208.39
229.91
248.57
260.32
261.93
252.39
233.52
208.70
181.77
155.30
129.90
104.75
78.89
52.46
27.15
5.67
-9.62
-17.53
-18.60
-14.75
-8.50
-2.01
3.56
8.08
12.00
15.81
19.71
23.52
26.78
28.95
29.70
28.95
27.03
24.64
22.60
21.63
21.93
23.18
24.65
25.71
26.14
26.10
25.76
24.78
22.34
17.46
9.69
-0.39
-11.40
-21.61
-29.71
-35.21
-38.22
-38.99
-37.56
-33.88
-28.30
-22.02
-17.01
-15.25
-17.85
-24.44
-33.29
-42.18
-49.49
-54.71
-58.41
-61.57
-64.80
-67.93
-70.21
-70.71
-68.78
-64.09
-56.46
-45.69
-31.65
-14.57
4.52
23.81
41.06
54.28
62.51
66.16
66.61
65.51
63.89
61.73
58.23
52.53
44.59
35.42
26.76
20.11
15.73
12.43
7.98
0.39
-10.92
-24.60
-37.86
-47.66
-52.09
-51.17
-46.84
-41.94
-39.01
-39.23
-42.24
-46.59
-50.68
-53.48
-54.95
-55.76
-56.89
-59.25
-63.55
-70.45
-80.69
-94.88
-112.93
-133.62
-154.48
-172.65
-185.85
-193.27
-195.53
-193.63
-187.86
-177.23
-160.18
-135.91
-105.55
-72.12
-39.25
-9.36
17.44
43.00
69.48
97.61
125.88
151.02
169.68
179.91
181.92
177.69
169.84
160.57
150.86
140.71
129.64
117.40
104.27
91.16
78.99
68.22
58.66
49.62
40.48
31.19
22.46
15.51
11.46
10.82
13.32
18.17
24.38
31.13
37.90
44.35
50.22
55.21
59.02
61.38
62.15
61.25
58.79
55.04
50.58
46.21
42.85
41.23
41.71
44.06
47.49
50.85
52.95
52.99
50.84
47.09
42.75
38.75
35.47
32.61
29.45
25.30
19.92
13.64
7.14
1.00
-4.47
-9.40
-14.04
-18.68
-23.49
-28.56
-33.99
-39.82
-45.96
-52.04
-57.25
-60.38
-59.97
-54.66
-43.58
-26.64
-4.62
20.96
48.14
74.63
98.02
115.79
125.57
125.59
115.30
95.84
70.13
42.25
16.36
-4.41
-18.71
-27.06
-31.35
-34.25
-38.35
-45.63
-56.99
-72.08
-89.43
-106.78
-121.69
-131.97
-136.14
-133.48
-124.10
-108.79
-89.01
-66.62
-43.71
-22.30
-3.97
10.35
20.38
26.44
29.22
29.73
29.17
28.88
30.11
33.87
40.50
49.59
60.10
70.62
79.89
87.06
91.75
93.89
93.52
90.68
85.43
78.16
69.77
61.64
55.28
51.81
51.51
53.56
56.40
58.11
57.10
52.48
44.25
33.43
21.86
11.84
5.48
4.01
7.12
12.85
17.97
19.01
13.42
0.55
-18.15
-39.48
-59.52
-74.85
-83.39
-84.76
-80.04
-71.21
-60.43
-49.68
-40.51
-34.19
-31.71
-33.65
-39.90
-49.53
-60.96
-72.38
-82.10
-88.77
-91.51
-90.28
-86.07
-81.43
-80.35
-87.31
-106.03
-138.19
-182.77
-236.29
-293.50
-348.43
-395.23
-428.89
-445.77
-444.08
-424.11
-387.99
-338.98
-280.59
-215.81
-147.13
-77.17
-9.50
50.91
98.36
127.97
137.38
128.03
105.17
76.59
50.64
33.88
29.51
36.91
52.40
70.42
85.53
94.04
94.62
88.14
76.43
60.99
42.23
19.97
-5.36
-31.51
-54.72
-71.69
-81.50
-86.51
-90.89
-97.72
-106.46
-112.84
-111.26
-98.50
-76.26
-50.72
-29.80
-19.36
-20.65
-29.91
-40.26
-44.42
-36.82
-14.85
20.56
64.81
110.22
147.96
170.86
175.85
165.02
144.32
120.59
98.78
80.41
64.23
47.94
29.72
8.75
-15.19
-42.28
-72.66
-105.54
-138.36
-166.89
-186.67
-194.98
-192.05
-180.76
-165.01
-147.87
-130.31
-111.44
-89.75
-64.44
-35.96
-5.50
25.98
58.49
92.81
129.53
167.82
205.16
237.93
262.79
278.07
284.22
283.51
278.97
273.31
268.03
263.19
257.99
251.48
243.46
234.70
226.70
220.81
217.43
215.83
214.46
211.99
207.96
202.92
197.83
193.12
188.14
181.41
171.56
158.26
142.56
126.52
112.26
101.01
92.77
86.61
81.10
75.04
67.62
58.47
47.47
34.70
20.50
5.54
-9.40
-23.76
-37.51
-51.22
-65.61
-81.02
-96.91
-111.76
-123.66
-130.91
-132.66
-129.13
-121.34
-110.66
-98.29
-85.15
-71.84
-58.81
-46.37
-34.74
-23.96
-13.91
-4.39
4.83
13.97
23.22
32.69
42.41
52.11
61.23
68.87
74.03
75.91
74.22
69.35
62.20
53.87
45.23
36.67
28.20
19.61
10.87
2.19
-6.02
-13.37
-19.67
-25.04
-29.67
-33.63
-36.71
-38.38
-38.00
-35.08
-29.60
-22.13
-13.69
-5.47
1.36
6.02
8.17
7.92
5.66
1.92
-2.72
-7.76
-12.66
-16.86
-19.84
-21.19
-20.75
-18.74
-15.63
-12.12
-8.84
-6.26
-4.60
-3.83
-3.74
-4.01
-4.31
-4.31
-3.83
-2.83
-1.44
0.15
1.75
3.26
4.75
6.31
7.96
9.54
10.78
11.37
11.14
10.22
8.88
7.47
6.13
4.70
2.90
0.45
-2.63
-6.07
-9.40
-12.28
-14.64
-16.68
-18.74
-21.04
-23.60
-26.27
-28.89
-31.34
-33.67
-35.98
-38.40
-40.97
-43.72
-46.67
-49.95
-53.73
-58.08
-62.81
-67.29
-70.52
-71.46
-69.36
-64.11
-56.29
-46.99
-37.37
-28.29
-20.16
-12.96
-6.50
-0.68
4.37
8.45
11.36
13.16
14.18
14.95
16.00
17.61
19.69
21.80
23.39
24.08
23.83
22.98
22.00
21.27
20.83
20.34
19.33
17.40
14.52
11.00
7.41
4.25
1.76
-0.22
-2.08
-4.24
-6.89
-9.91
-12.96
-15.62
-17.69
-19.32
-20.93
-23.11
-26.34
-30.80
-36.28
-42.26
-47.97
-52.58
-55.31
-55.58
-53.06
-47.79
-40.18
-31.03
-21.38
-12.23
-4.34
1.99
6.84
10.55
13.40
15.47
16.72
17.09
16.69
15.84
14.97
14.39
14.19
14.20
14.18
13.98
13.59
13.16
12.79
12.53
12.31
12.00
11.49
10.69
9.60
8.19
6.49
4.60
2.66
0.80
-0.94
-2.69
-4.68
-7.13
-10.18
-13.71
-17.36
-20.69
-23.37
-25.28
-26.55
-27.44
-28.18
-28.94
-29.81
-30.95
-32.64
-35.06
-38.12
-41.23
-43.37
-43.41
-40.58
-34.80
-26.76
-17.68
-8.85
-1.21
4.83
9.42
12.97
15.95
18.69
21.26
23.62
25.68
27.50
29.30
31.46
34.34
38.07
42.43
46.81
50.51
53.02
54.30
54.89
55.73
57.79
61.62
67.07
73.28
78.97
82.96
84.62
84.19
82.83
82.17
83.79
88.44
95.30
101.86
104.25
98.39
81.37
52.58
13.94
-30.83
-77.68
-123.68
-167.75
-210.61
-254.08
-300.34
-351.18
-407.08
-466.28
-524.06
-573.07
-605.18
-614.28
-598.84
-562.86
-514.28
-461.79
-411.51
-365.46
-322.09
-278.57
-232.97
-185.26
-136.78
-88.97
-42.43
3.04
47.63
90.72
130.62
165.04
192.14
211.40
223.92
232.01
238.14
243.92
249.47
253.63
254.73
251.53
243.83
232.59
219.46
206.12
193.75
182.73
172.64
162.57
151.68
139.77
127.74
117.48
111.17
110.14
113.96
120.28
125.71
127.30
123.89
116.46
107.54
99.85
95.11
93.62
94.62
97.04
100.04
103.02
105.34
106.15
104.67
100.56
94.36
87.28
80.73
75.60
71.94
69.09
66.16
62.60
58.35
53.73
48.97
43.97
38.21
31.08
22.04
10.92
-2.22
-17.00
-32.78
-48.50
-62.68
-73.77
-80.57
-82.79
-81.22
-77.58
-73.86
-71.60
-71.38
-72.85
-75.10
-77.21
-78.60
-79.14
-78.97
-78.28
-77.23
-75.99
-74.80
-74.02
-74.04
-75.07
-76.91
-78.78
-79.45
-77.60
-72.39
-63.90
-53.20
-41.98
-31.78
-23.47
-16.92
-11.29
-5.84
-0.45
4.13
6.67
6.19
2.52
-3.61
-10.88
-17.96
-23.94
-28.27
-30.50
-30.14
-26.67
-19.98
-10.78
-0.70
7.99
13.05
13.02
7.55
-2.75
-16.66
-32.84
-50.17
-67.87
-85.37
-102.54
-119.76
-138.01
-158.86
-183.96
-214.20
-248.94
-285.44
-319.29
-345.46
-359.84
-360.27
-347.36
-324.11
-294.80
-263.58
-233.23
-204.73
-177.60
-150.77
-123.21
-94.80
-66.35
-38.97
-13.42
10.68
34.55
59.68
87.18
118.47
154.68
196.61
244.26
295.84
346.92
390.65
419.33
426.85
413.11
382.40
341.33
295.56
247.68
197.80
146.14
95.80
53.23
29.64
33.53
66.43
121.69
187.25
250.87
304.52
345.95
376.65
403.50
431.49
461.84
492.30
519.23
539.94
553.67
561.17
541.73
482.84
380.62
243.13
87.34
-68.09
-208.81
-326.98
-415.08
-478.38
-519.75
-541.89
-547.77
-541.03
-525.48
-504.19
-480.02
-454.53
-429.68
-403.50
-374.28
-341.27
-304.90
-266.46
-227.44
-189.19
-152.70
-119.48
-88.38
-58.16
-27.94
2.61
33.39
64.42
96.10
129.21
163.59
199.07
233.42
262.31
280.59
284.27
272.34
247.44
214.95
180.76
150.09
125.78
108.33
96.82
89.97
86.62
85.73
86.09
86.07
84.16
79.45
72.06
63.07
54.21
47.02
42.33
39.97
38.94
37.92
35.82
32.14
27.05
21.28
15.75
11.22
8.07
6.21
5.19
4.40
3.32
1.71
-0.45
-3.09
-6.10
-9.48
-13.30
-17.64
-22.58
-28.20
-34.65
-42.04
-50.34
-59.12
-67.45
-73.97
-77.23
-76.25
-70.80
-61.61
-50.04
-37.68
-25.94
-15.73
-7.55
-1.62
1.98
3.31
2.56
0.22
-3.00
-6.30
-9.05
-10.88
-11.76
-11.90
-11.51
-10.70
-9.44
-7.59
-5.11
-2.09
1.09
3.89
5.63
5.75
3.96
0.35
-4.60
-10.20
-15.72
-20.66
-24.91
-28.73
-32.69
-37.37
-43.09
-49.61
-56.00
-60.78
-62.31
-59.34
-51.55
-39.65
-25.23
-10.19
3.84
15.89
25.67
33.35
39.22
43.41
45.89
46.56
45.47
42.93
39.46
35.72
32.21
29.23
26.72
24.39
21.93
19.22
16.38
13.67
11.31
9.29
7.29
4.90
1.77
-2.07
-6.27
-10.31
-13.79
-16.66
-19.32
-22.41
-26.57
-32.18
-39.22
-47.27
-55.69
-63.64
-70.18
-74.27
-74.88
-71.15
-62.71
-49.86
-33.62
-15.46
3.14
21.12
38.09
54.20
69.75
84.78
98.83
111.04
120.64
127.33
131.65
134.79
138.16
142.76
148.81
155.72
162.39
167.83
171.62
174.13
176.38
179.53
184.31
190.59
197.30
202.84
205.72
205.24
201.67
195.86
188.37
178.68
164.95
144.72
115.83
77.48
30.50
-22.72
-78.69
-133.08
-181.02
-217.70
-239.25
-243.97
-233.12
-210.94
-183.37
-156.34
-134.07
-118.22
-108.22
-102.20
-98.19
-94.84
-91.70
-88.94
-86.97
-86.04
-86.03
-86.47
-86.76
-86.43
-85.27
-83.31
-80.73
-77.86
-75.24
-73.55
-73.51
-75.56
-79.59
-84.94
-90.74
-96.38
-101.86
-107.76
-114.81
-123.49
-133.82
-145.50
-158.17
-171.54
-185.27
-198.60
-210.14
-218.21
-221.45
-219.50
-213.29
-204.59
-195.20
-186.06
-176.87
-166.39
-153.20
-136.46
-116.28
-93.56
-69.51
-45.25
-21.55
1.04
22.01
40.90
57.38
71.42
83.35
93.79
103.35
112.42
121.02
128.89
135.80
141.62
146.50
150.70
154.42
157.59
159.86
160.75
159.73
156.55
151.16
143.83
135.09
125.59
116.00
106.81
98.21
89.99
81.79
73.17
63.90
54.00
43.68
33.17
22.62
12.12
1.77
-8.18
-17.23
-24.62
-29.45
-30.94
-28.60
-22.39
-12.85
-0.92
12.26
25.64
38.45
50.27
60.90
70.18
77.91
83.79
87.64
89.50
89.65
88.62
86.94
85.09
83.46
82.33
81.74
81.22
79.60
74.98
65.20
48.77
25.78
-1.75
-30.55
-57.42
-80.61
-100.14
-117.01
-131.73
-143.19
-148.71
-145.49
-132.38
-110.97
-85.21
-59.86
-38.79
-24.04
-15.90
-13.82
-17.06
-24.90
-36.15
-49.03
-61.33
-71.14
-77.56
-80.87
-82.10
-82.29
-81.80
-80.20
-76.80
-71.13
-63.30
-54.09
-44.56
-35.80
-28.69
-23.59
-20.13
-16.99
-12.15
-3.57
9.73
26.64
43.90
57.06
62.60
59.72
51.23
42.83
40.74
48.95
67.06
89.89
109.11
116.23
105.74
77.18
35.39
-11.06
-52.35
-79.80
-87.71
-74.42
-42.43
2.25
51.61
97.77
134.79
159.82
172.97
176.44
173.26
166.09
157.03
147.27
137.09
126.14
113.78
99.49
83.32
66.31
50.24
37.18
28.83
26.09
28.84
35.97
45.38
54.28
59.88
60.35
55.66
47.67
39.42
33.78
32.31
34.95
40.46
47.18
53.73
59.26
63.56
66.80
69.41
71.59
73.27
73.99
73.06
69.85
64.04
55.78
45.54
34.02
21.85
9.67
-2.04
-12.91
-22.74
-31.46
-39.18
-45.94
-51.70
-56.39
-59.94
-62.60
-64.90
-67.57
-71.31
-76.53
-83.20
-91.05
-99.69
-108.82
-118.19
-127.59
-136.68
-145.09
-152.39
-158.30
-162.72
-165.67
-167.16
-167.24
-165.95
-163.33
-159.51
-154.67
-148.95
-142.41
-135.13
-127.21
-118.90
-110.65
-102.85
-95.80
-89.40
-83.25
-76.75
-69.30
-60.68
-51.08
-41.19
-31.83
-23.76
-17.37
-12.70
-9.55
-7.73
-7.25
-8.23
-10.75
-14.52
-18.77
-22.42
-24.34
-23.78
-20.48
-14.74
-7.24
1.18
9.71
17.59
24.30
29.56
33.35
35.82
37.23
37.77
37.58
36.77
35.55
34.20
33.08
32.45
32.40
32.83
33.59
34.52
35.57
36.68
37.72
38.48
38.64
37.94
36.30
33.84
30.86
27.70
24.56
21.43
18.14
14.43
10.20
5.48
0.51
-4.37
-8.87
-12.86
-16.45
-19.92
-23.66
-28.01
-33.21
-39.23
-45.76
-52.12
-57.37
-60.51
-60.72
-57.63
-51.46
-42.95
-33.14
-23.10
-13.65
-5.30
1.74
7.35
11.49
14.18
15.51
15.82
15.57
15.23
15.22
15.72
16.71
18.03
19.51
21.02
22.48
23.81
24.87
25.50
25.51
24.76
23.22
20.97
18.22
15.20
12.15
9.15
6.21
3.17
-0.12
-3.79
-7.84
-12.15
-16.52
-20.70
-24.44
-27.61
-30.23
-32.42
-34.50
-36.91
-40.07
-44.14
-48.93
-53.72
-57.42
-58.83
-57.07
-51.79
-43.39
-32.89
-21.75
-11.61
-4.03
-0.12
-0.30
-4.09
-10.13
-16.50
-21.23
-22.86
-20.78
-15.21
-6.89
3.14
13.73
23.73
32.00
37.70
40.60
41.25
40.89
40.94
42.39
45.46
49.63
54.05
58.06
61.39
64.13
66.50
68.66
70.66
72.65
74.91
77.73
81.23
85.10
88.69
91.17
91.95
90.81
87.95
83.82
78.89
73.49
67.77
61.71
55.13
47.77
39.39
29.97
19.87
9.94
1.31
-4.92
-8.08
-8.15
-5.75
-1.85
2.53
6.56
9.69
11.62
12.24
11.62
9.95
7.57
4.84
2.12
-0.39
-2.65
-4.64
-6.39
-7.90
-9.06
-9.78
-9.97
-9.63
-8.84
-7.84
-6.86
-6.17
-5.89
-6.07
-6.60
-7.36
-8.27
-9.32
-10.52
-11.85
-13.23
-14.45
-15.37
-15.90
-16.10
-16.09
-16.03
-16.02
-16.13
-16.44
-17.12
-18.47
-20.81
-24.36
-29.18
-35.11
-41.79
-48.77
-55.48
-61.25
-65.32
-66.92
-65.50
-60.87
-53.36
-43.75
-33.11
-22.58
-13.08
-5.20
0.86
5.18
8.01
9.63
10.29
10.24
9.74
9.24
9.20
10.01
11.77
14.24
16.90
19.16
20.62
21.08
20.52
18.99
16.44
12.82
8.16
2.63
-3.38
-9.45
-15.24
-20.60
-25.65
-30.74
-36.30
-42.76
-50.26
-58.62
-67.26
-75.45
-82.49
-88.10
-92.47
-96.36
-100.86
-107.02
-115.42
-125.71
-136.46
-145.32
-149.58
-147.10
-136.93
-119.78
-97.72
-73.52
-49.77
-28.30
-10.05
4.77
16.36
25.03
31.23
35.47
38.45
40.85
43.23
45.82
48.61
51.38
53.85
55.86
57.37
58.46
59.28
59.91
60.34
60.38
59.74
58.10
55.28
51.33
46.60
41.64
36.98
32.91
29.40
26.11
22.55
18.34
13.32
7.60
1.51
-4.60
-10.43
-15.84
-20.98
-26.14
-31.69
-37.90
-44.75
-51.75
-57.96
-62.21
-63.39
-60.85
-54.61
-45.31
-34.08
-22.22
-10.92
-1.08
6.80
12.63
16.63
19.26
21.05
22.47
23.88
25.46
27.36
29.59
32.11
34.75
37.20
39.03
39.94
39.83
38.93
37.68
36.44
35.40
34.43
33.27
31.73
29.86
27.97
26.38
25.19
24.07
22.37
19.47
15.14
9.72
4.11
-0.65
-3.75
-4.87
-4.31
-2.74
-0.96
0.26
0.38
-0.95
-3.69
-7.31
-10.74
-12.49
-11.05
-5.40
4.53
17.83
32.86
47.80
61.14
71.98
80.01
85.32
88.25
89.23
88.85
87.77
86.67
86.08
86.25
87.07
88.23
89.27
89.82
89.64
88.71
87.16
85.18
82.92
80.38
77.40
73.68
68.94
63.03
56.05
48.39
40.59
33.21
26.61
20.76
15.32
9.76
3.62
-3.28
-10.77
-18.44
-25.82
-32.69
-39.05
-45.20
-51.58
-58.62
-66.65
-75.78
-85.70
-95.65
-104.47
-110.80
-113.53
-112.15
-106.90
-98.75
-89.04
-79.10
-69.94
-62.17
-56.05
-51.66
-48.95
-47.84
-48.09
-49.32
-50.94
-52.27
-52.67
-51.70
-49.27
-45.66
-41.40
-37.12
-33.36
-30.44
-28.47
-27.42
-27.23
-27.86
-29.28
-31.39
-34.02
-36.93
-39.83
-42.53
-44.89
-46.83
-48.23
-48.86
-48.47
-46.78
-43.72
-39.45
-34.47
-29.61
-25.87
-24.21
-25.21
-28.87
-34.43
-40.43
-45.06
-46.57
-43.77
-36.35
-24.93
-10.83
4.30
18.89
31.80
42.47
50.82
57.10
61.63
64.64
66.22
66.38
65.26
63.14
60.53
57.99
56.02
54.88
54.54
54.76
55.16
55.32
54.92
53.79
51.92
49.38
46.26
42.65
38.63
34.34
30.02
26.07
22.84
20.52
19.01
17.87
16.50
14.36
11.13
6.76
1.41
-4.68
-11.22
-17.97
-24.67
-31.14
-37.36
-43.56
-50.19
-57.74
-66.42
-75.84
-84.86
-91.75
-94.65
-92.18
-83.88
-70.50
-53.75
-35.89
-19.04
-4.72
6.40
14.53
20.40
24.98
29.03
33.04
37.10
41.13
44.97
48.52
51.77
54.77
57.54
60.09
62.37
64.33
65.95
67.14
67.83
67.87
67.14
65.57
63.15
59.98
56.21
52.02
47.55
42.92
38.19
33.33
28.33
23.20
18.10
13.21
8.69
4.54
0.53
-3.68
-8.41
-13.79
-19.70
-25.88
-32.09
-38.23
-44.41
-50.92
-58.06
-66.04
-74.75
-83.70
-91.85
-97.79
-99.97
-97.24
-89.26
-76.68
-61.06
-44.27
-28.04
-13.48
-1.09
9.14
17.35
23.65
28.16
31.13
32.99
34.37
35.88
37.92
40.53
43.40
46.06
48.12
49.37
49.94
50.13
50.25
50.50
50.74
50.63
49.71
47.65
44.44
40.43
36.18
32.23
28.84
25.82
22.65
18.64
13.24
6.21
-2.24
-11.53
-20.82
-29.29
-36.32
-41.78
-46.05
-49.88
-54.21
-59.66
-66.25
-73.23
-79.18
-82.38
-81.38
-75.38
-64.59
-50.15
-33.76
-17.25
-2.12
10.75
21.10
29.11
35.19
39.72
43.01
45.31
46.85
47.90
48.75
49.67
50.80
52.15
53.60
54.94
55.95
56.51
56.55
56.08
55.10
53.56
51.32
48.18
43.98
38.74
32.70
26.35
20.30
15.08
10.98
7.94
5.59
3.44
1.09
-1.61
-4.57
-7.51
-10.22
-12.68
-15.09
-17.83
-21.31
-25.86
-31.73
-38.98
-47.37
-56.30
-64.68
-71.06
-73.91
-72.07
-65.19
-53.86
-39.57
-24.19
-9.57
3.00
12.94
20.29
25.59
29.43
32.31
34.51
36.13
37.24
37.96
38.50
39.09
39.87
40.91
42.09
43.35
44.64
46.00
47.43
48.83
49.95
50.43
49.95
48.37
45.79
42.50
38.83
35.11
31.54
28.13
24.83
21.52
18.02
14.18
9.88
5.08
-0.13
-5.57
-10.95
-16.00
-20.57
-24.70
-28.58
-32.57
-37.02
-42.29
-48.59
-55.93
-63.97
-71.96
-78.66
-82.65
-82.65
-78.05
-69.18
-57.27
-44.06
-31.22
-19.88
-10.36
-2.41
4.50
10.75
16.43
21.35
25.29
28.16
30.08
31.32
32.23
33.09
34.16
35.59
37.48
39.82
42.44
44.97
46.91
47.73
46.97
44.41
40.14
34.53
28.14
21.65
15.65
10.54
6.45
3.29
0.73
-1.63
-4.12
-6.97
-10.24
-13.85
-17.63
-21.39
-25.10
-28.98
-33.61
-39.86
-48.49
-59.85
-73.39
-87.54
-99.96
-108.02
-109.71
-104.09
-91.52
-73.52
-52.23
-29.90
-8.41
10.97
27.69
41.75
53.62
64.01
73.63
82.96
92.17
100.97
108.82
115.17
119.55
121.91
122.62
122.41
122.04
122.02
122.44
122.94
123.04
121.93
119.17
114.86
109.64
104.45
100.13
96.99
94.72
92.53
88.58
81.27
69.78
54.57
37.31
20.38
6.07
-4.04
-9.51
-12.51
-16.39
-24.75
-40.17
-63.47
-93.59
-128.40
-165.41
-202.28
-239.08
-276.59
-315.44
-355.21
-394.10
-429.58
-459.42
-482.18
-486.06
-461.98
-405.51
-320.07
-216.39
-108.03
-6.48
80.99
151.39
205.28
243.48
267.62
279.80
282.42
277.91
268.20
255.05
238.39
218.25
193.88
164.80
130.90
92.46
50.03
6.49
-36.01
-76.33
-114.09
-149.96
-183.75
-213.11
-233.15
-237.89
-223.32
-190.44
-145.71
-98.91
-59.92
-34.82
-24.34
-24.77
-30.63
-37.70
-44.49
-51.39
-58.74
-65.92
-71.05
-72.18
-68.76
-60.80
-49.74
-38.01
-27.62
-19.48
-13.19
-7.22
-0.05
9.55
21.79
35.45
48.49
58.92
65.61
68.74
70.15
72.14
77.29
87.00
100.66
116.14
130.57
141.43
147.63
150.33
151.62
154.90
163.51
179.97
206.15
242.36
287.30
333.42
373.11
392.79
383.46
343.51
280.09
207.03
138.14
82.17
40.71
10.53
-13.38
-33.88
-50.30
-63.28
-74.16
-86.29
-104.19
-132.22
-172.13
-222.43
-277.11
-327.83
-366.86
-385.80
-381.65
-356.24
-314.65
-262.88
-207.04
-153.22
-108.71
-82.15
-81.11
-109.33
-163.16
-231.17
-297.04
-345.27
-366.29
-359.18
-330.35
-289.72
-246.70
-207.06
-172.45
-141.85
-113.63
-86.89
-61.58
-37.96
-15.43
7.11
30.99
56.87
84.26
111.73
137.41
160.19
180.43
200.27
222.81
250.70
284.46
321.37
355.76
380.63
390.14
381.66
356.36
318.41
273.34
226.67
183.30
147.59
123.57
114.52
121.70
143.21
173.79
206.16
233.27
250.47
256.32
252.07
240.38
224.01
205.27
186.10
168.03
152.13
138.41
125.65
111.62
93.97
70.95
41.99
7.64
-30.89
-71.98
-113.57
-153.02
-187.32
-213.81
-231.06
-239.48
-241.28
-239.72
-238.03
-238.52
-242.01
-247.93
-254.46
-258.86
-257.91
-248.45
-228.09
-195.91
-153.09
-103.01
-50.72
-1.61
40.19
72.88
97.08
114.76
127.68
136.21
139.34
135.82
125.55
110.51
94.37
81.05
73.04
70.49
71.41
72.80
72.02
67.52
59.04
47.17
32.93
17.42
1.80
-12.80
-25.27
-34.69
-40.48
-42.67
-41.85
-39.09
-35.71
-32.92
-31.56
-32.02
-34.19
-37.71
-42.11
-47.00
-52.10
-57.13
-61.62
-64.84
-65.83
-63.76
-58.22
-49.54
-38.71
-27.22
-16.55
-7.81
-1.52
2.43
4.48
5.21
5.10
4.48
3.51
2.41
1.39
0.72
0.57
0.94
1.59
2.12
2.21
1.66
0.48
-1.22
-3.37
-6.01
-9.34
-13.58
-18.82
-24.96
-31.77
-38.92
-46.15
-53.25
-60.09
-66.55
-72.55
-78.05
-83.06
-87.48
-90.90
-92.51
-91.19
-85.86
-76.05
-62.22
-45.77
-28.51
-12.09
2.60
15.44
26.80
37.00
46.03
53.52
59.05
62.43
63.83
63.75
62.75
61.26
59.53
57.67
55.77
53.95
52.32
50.86
49.43
47.66
45.13
41.48
36.62
30.68
24.06
17.18
10.33
3.55
-3.44
-11.03
-19.53
-28.83
-38.24
-46.45
-51.89
-53.08
-49.23
-40.48
-27.98
-13.53
0.84
13.45
23.27
29.99
33.96
35.83
36.33
36.06
35.38
34.41
33.22
31.83
30.35
28.94
27.78
26.90
26.29
25.75
25.06
23.98
22.29
19.78
16.30
11.83
6.47
0.51
-5.68
-11.76
-17.55
-23.10
-28.63
-34.52
-41.03
-48.04
-54.89
-60.28
-62.59
-60.31
-52.69
-40.17
-24.39
-7.72
7.54
19.76
28.39
33.77
36.67
37.82
37.65
36.39
34.27
31.73
29.40
27.88
27.43
27.85
28.59
28.98
28.64
27.61
26.25
24.92
23.68
22.17
19.79
16.01
10.72
4.31
-2.49
-8.95
-14.54
-19.14
-22.97
-26.50
-30.29
-34.94
-40.82
-47.89
-55.43
-61.99
-65.71
-64.87
-58.58
-47.16
-32.16
-15.91
-0.75
11.54
20.20
25.30
27.47
27.47
25.91
23.16
19.48
15.20
10.76
6.71
3.47
1.23
-0.21
-1.30
-2.58
-4.45
-7.04
-10.23
-13.74
-17.29
-20.68
-23.85
-26.89
-30.05
-33.60
-37.74
-42.45
-47.42
-52.19
-56.37
-59.88
-63.09
-66.72
-71.56
-78.08
-86.16
-94.99
-103.25
-109.38
-111.98
-110.02
-102.99
-90.97
-74.37
-53.97
-30.82
-6.32
17.84
39.92
58.51
72.93
83.28
90.27
94.77
97.57
99.35
101.01
103.80
108.85
116.37
124.75
130.54
129.57
118.80
98.08
70.55
41.50
16.22
-1.99
-12.63
-17.32
-18.47
-18.09
-17.44
-17.46
-19.21
-23.88
-32.11
-43.36
-55.68
-66.35
-72.92
-74.26
-70.91
-64.77
-58.30
-53.60
-51.73
-52.54
-54.70
-56.14
-54.73
-48.91
-38.25
-23.56
-6.56
10.65
26.26
39.14
48.86
55.45
59.24
60.57
59.81
57.41
53.92
49.96
46.19
43.18
41.24
40.37
40.27
40.44
40.36
39.61
38.06
35.80
33.05
30.04
26.85
23.45
19.72
15.60
11.12
6.39
1.58
-3.21
-8.00
-12.81
-17.71
-22.70
-27.73
-32.76
-37.88
-43.23
-48.90
-54.69
-59.96
-63.63
-64.46
-61.41
-54.10
-43.01
-29.36
-14.77
-0.84
11.30
21.06
28.37
33.44
36.57
38.09
38.30
37.63
36.63
35.91
35.97
37.06
39.14
41.90
45.03
48.37
51.89
55.62
59.48
63.15
66.28
68.61
70.25
71.66
73.45
76.09
79.57
83.43
86.92
89.36
90.45
90.34
89.47
88.34
87.14
85.70
83.49
79.83
74.18
66.30
56.32
44.79
32.67
21.23
11.91
6.04
4.46
7.23
13.66
22.42
31.98
40.90
47.96
52.06
52.10
46.96
35.83
18.72
-3.23
-27.68
-51.44
-71.26
-84.47
-89.74
-87.30
-78.66
-65.94
-51.28
-36.32
-22.03
-8.94
2.68
12.33
19.21
22.34
20.83
13.83
0.70
-18.84
-44.28
-73.51
-103.39
-130.20
-150.39
-161.36
-161.78
-151.16
-129.10
-95.14
-49.38
5.30
61.93
110.40
140.55
146.21
128.17
94.19
54.47
21.08
3.09
3.17
17.17
36.69
53.07
60.84
59.12
50.57
40.64
35.88
42.43
64.35
102.85
154.28
210.21
259.38
291.16
299.02
282.23
245.64
197.93
148.88
106.54
75.78
58.02
52.10
55.67
65.84
79.62
93.80
105.42
112.19
113.00
108.27
99.64
89.34
79.16
69.70
60.11
48.67
33.45
13.23
-11.87
-40.27
-69.42
-96.63
-120.04
-139.27
-155.45
-170.66
-186.97
-205.48
-225.77
-246.05
-264.12
-278.28
-288.28
-295.47
-302.22
-311.17
-324.54
-344.01
-370.52
-403.90
-441.96
-480.00
-511.16
-528.10
-525.49
-502.06
-461.01
-408.59
-351.57
-295.04
-241.62
-191.78
-145.27
-101.79
-61.00
-21.84
17.96
61.87
113.76
176.39
249.88
330.53
410.57
479.88
528.88
551.74
548.39
524.21
487.58
446.37
405.43
366.02
327.24
288.20
249.24
211.66
176.46
143.01
108.98
71.37
28.22
-20.35
-72.21
-124.04
-173.12
-218.55
-261.67
-305.35
-352.83
-406.30
-465.75
-528.32
-588.40
-638.63
-671.71
-682.61
-670.18
-637.63
-591.30
-538.41
-484.66
-432.97
-383.70
-336.17
-290.18
-246.63
-206.98
-171.96
-140.65
-110.56
-78.60
-42.64
-2.60
39.54
80.80
118.72
152.56
183.66
214.72
248.85
288.82
336.46
392.58
456.73
526.54
597.20
661.62
711.88
741.72
748.87
735.27
705.92
666.74
622.65
576.54
529.51
481.63
432.76
382.79
330.68
274.31
211.14
139.50
59.35
-27.77
-119.80
-215.18
-308.20
-390.92
-455.89
-500.06
-525.91
-538.46
-540.73
-531.24
-505.36
-458.98
-393.05
-315.01
-236.99
-170.97
-124.28
-97.51
-85.63
-81.80
-80.32
-78.84
-77.76
-78.28
-80.30
-82.06
-82.02
-78.07
-69.87
-58.62
-46.72
-36.45
-29.20
-24.83
-22.36
-20.60
-18.92
-17.78
-18.32
-21.85
-29.14
-40.12
-53.60
-67.94
-81.63
-93.59
-103.55
-111.73
-118.37
-123.40
-127.78
-131.52
-134.27
-135.69
-135.55
-133.98
-131.39
-128.27
-125.06
-122.20
-119.75
-117.85
-116.57
-115.92
-115.86
-116.26
-116.97
-117.81
-118.72
-119.44
-119.83
-119.61
-118.42
-115.74
-111.11
-104.28
-95.35
-84.89
-73.65
-62.45
-51.84
-41.92
-32.31
-22.48
-12.09
-1.35
8.98
17.93
24.78
29.69
33.96
39.88
50.04
66.55
90.36
121.15
157.81
199.00
243.81
291.97
343.44
397.98
455.00
513.76
573.51
633.19
690.55
741.27
779.07
797.26
791.12
760.11
708.45
643.74
574.34
506.84
444.58
388.07
336.13
287.02
238.96
189.73
136.28
74.82
2.04
-82.91
-176.70
-271.38
-355.86
-419.43
-455.50
-463.97
-451.00
-425.99
-397.56
-370.48
-344.82
-317.62
-285.49
-246.82
-202.71
-156.37
-111.78
-72.44
-40.41
-16.01
2.11
16.46
29.47
42.64
56.01
68.48
78.78
86.34
91.64
95.63
98.83
100.70
99.96
95.57
87.85
78.66
70.75
66.39
66.09
68.26
69.87
67.74
59.87
46.09
27.96
8.17
-10.26
-24.72
-33.40
-35.55
-31.69
-23.41
-13.18
-3.66
2.93
5.42
3.88
-0.58
-6.29
-11.76
-16.11
-19.24
-21.67
-24.09
-27.01
-30.59
-34.61
-38.38
-40.80
-40.45
-36.02
-26.90
-13.70
1.54
15.89
26.46
31.50
30.87
25.93
18.78
11.36
4.92
-0.12
-3.89
-6.87
-9.62
-12.69
-16.42
-20.83
-25.51
-29.68
-32.46
-33.02
-30.80
-25.64
-17.89
-8.54
0.91
8.73
13.54
14.90
13.44
10.60
7.89
6.28
5.85
6.07
6.33
6.42
6.58
7.29
8.85
11.20
14.00
16.89
19.68
22.33
24.81
26.94
28.31
28.47
27.05
24.01
19.66
14.52
9.10
3.70
-1.60
-6.88
-12.10
-17.00
-21.12
-24.04
-25.59
-26.01
-25.88
-25.90
-26.69
-28.45
-31.04
-34.03
-36.90
-39.18
-40.59
-40.98
-40.28
-38.42
-35.31
-30.93
-25.51
-19.56
-13.88
-9.34
-6.57
-5.78
-6.74
-8.88
-11.52
-14.03
-15.73
-15.95
-13.97
-9.33
-2.01
7.34
17.46
26.83
34.10
38.44
39.75
38.56
35.76
32.26
28.67
25.25
21.91
18.42
14.63
10.61
6.58
2.86
-0.36
-3.02
-5.12
-6.57
-7.11
-6.45
-4.59
-1.99
0.43
1.75
1.57
0.30
-0.87
-0.54
2.22
7.46
14.28
21.22
26.87
30.25
30.92
28.82
24.07
16.90
7.69
-2.89
-13.85
-24.04
-32.34
-37.97
-40.69
-40.67
-38.46
-34.72
-30.16
-25.41
-21.06
-17.58
-15.17
-13.76
-13.06
-12.68
-12.32
-11.88
-11.49
-11.40
-11.86
-12.92
-14.34
-15.33
-14.63
-10.75
-2.72
9.20
23.11
35.87
44.19
45.90
40.65
29.84
15.66
0.14
-15.44
-30.36
-43.83
-54.50
-60.69
-60.97
-55.09
-44.27
-30.94
-17.89
-7.23
0.15
4.64
7.52
10.16
13.41
17.31
21.28
24.54
26.54
27.22
26.90
26.04
24.99
23.88
22.65
21.23
19.62
17.95
16.38
15.06
14.04
13.22
12.41
11.38
9.93
8.04
5.87
3.67
1.69
0.03
-1.40
-2.81
-4.34
-6.01
-7.70
-9.24
-10.51
-11.52
-12.39
-13.33
-14.55
-16.28
-18.67
-21.73
-25.27
-28.85
-31.80
-33.43
-33.21
-30.98
-26.93
-21.54
-15.38
-8.96
-2.62
3.44
9.06
14.06
18.19
21.21
22.93
23.37
22.82
21.80
20.84
20.36
20.47
21.03
21.74
22.38
22.82
23.05
23.07
22.75
21.91
20.37
18.12
15.39
12.52
9.87
7.62
5.73
4.04
2.36
0.63
-1.09
-2.64
-3.87
-4.77
-5.45
-6.13
-6.99
-8.14
-9.51
-10.93
-12.23
-13.29
-14.14
-14.93
-15.87
-17.18
-19.04
-21.49
-24.48
-27.81
-31.09
-33.79
-35.32
-35.11
-32.87
-28.73
-23.23
-17.20
-11.49
-6.66
-2.93
-0.08
2.27
4.43
6.54
8.48
10.05
11.06
11.53
11.64
11.70
12.04
12.96
14.68
17.34
20.92
25.18
29.73
34.01
37.48
39.78
40.77
40.54
39.25
37.07
34.09
30.42
26.23
21.90
17.83
14.40
11.81
9.96
8.56
7.21
5.60
3.59
1.19
-1.41
-3.98
-6.21
-7.94
-9.10
-9.83
-10.42
-11.27
-12.68
-14.76
-17.36
-20.03
-22.12
-22.89
-21.75
-18.46
-13.24
-6.79
-0.12
5.70
9.84
11.92
12.02
10.54
8.01
4.84
1.28
-2.56
-6.63
-10.87
-15.27
-19.84
-24.62
-29.55
-34.30
-38.14
-40.07
-39.09
-34.53
-26.41
-15.43
-2.83
9.90
21.39
30.48
36.33
38.43
36.69
31.49
23.74
14.75
5.95
-1.47
-6.81
-9.95
-11.31
-11.56
-11.35
-11.16
-11.21
-11.54
-12.14
-13.02
-14.19
-15.72
-17.56
-19.62
-21.76
-23.77
-25.50
-26.74
-27.27
-26.83
-25.23
-22.41
-18.46
-13.67
-8.44
-3.24
1.43
5.13
7.46
8.18
7.29
5.12
2.30
-0.30
-1.91
-1.99
-0.50
2.14
5.21
8.00
10.06
11.34
12.11
12.75
13.56
14.63
15.79
16.75
17.19
16.84
15.58
13.44
10.62
7.46
4.35
1.55
-0.86
-3.04
-5.27
-7.75
-10.48
-13.24
-15.71
-17.66
-19.10
-20.25
-21.49
-23.09
-25.11
-27.38
-29.58
-31.43
-32.72
-33.30
-33.00
-31.59
-28.80
-24.50
-18.84
-12.33
-5.75
-0.01
4.17
6.42
6.86
6.03
4.77
3.99
4.45
6.55
10.22
14.96
19.92
24.05
26.46
26.53
24.24
20.13
15.17
10.55
7.26
5.94
6.78
9.57
13.78
18.62
23.09
26.02
26.35
23.46
17.41
9.04
-0.15
-8.50
-14.57
-17.57
-17.48
-14.98
-11.26
-7.70
-5.56
-5.69
-8.34
-13.05
-18.84
-24.56
-29.23
-32.28
-33.66
-33.69
-32.83
-31.47
-29.81
-27.87
-25.56
-22.77
-19.40
-15.39
-10.77
-5.67
-0.36
4.74
9.19
12.60
14.82
15.92
16.19
16.02
15.74
15.55
15.55
15.73
16.06
16.53
17.08
17.60
17.97
18.10
17.92
17.40
16.54
15.31
13.71
11.75
9.56
7.30
5.13
3.18
1.47
-0.05
-1.44
-2.74
-3.95
-5.07
-6.14
-7.24
-8.50
-10.01
-11.84
-14.02
-16.53
-19.27
-22.02
-24.48
-26.23
-26.93
-26.34
-24.50
-21.62
-18.08
-14.28
-10.53
-7.00
-3.79
-0.94
1.49
3.47
4.97
5.99
6.55
6.76
6.74
6.62
6.57
6.74
7.24
8.12
9.35
10.83
12.40
13.83
14.87
15.32
15.08
14.24
13.04
11.80
10.73
9.90
9.13
8.20
6.89
5.10
2.91
0.48
-1.98
-4.30
-6.39
-8.25
-9.95
-11.65
-13.54
-15.78
-18.46
-21.53
-24.76
-27.78
-30.08
-31.17
-30.68
-28.46
-24.77
-20.17
-15.36
-10.96
-7.35
-4.57
-2.42
-0.69
0.79
2.05
3.03
3.77
4.36
5.00
5.85
6.95
8.22
9.49
10.61
11.50
12.19
12.78
13.38
14.04
14.70
15.25
15.56
15.53
15.14
14.43
13.47
12.30
10.96
9.44
7.72
5.78
3.58
1.07
-1.75
-4.80
-7.90
-10.79
-13.25
-15.14
-16.56
-17.76
-19.08
-20.83
-23.10
-25.73
-28.30
-30.26
-31.05
-30.31
-27.95
-24.20
-19.57
-14.69
-10.11
-6.20
-3.07
-0.58
1.51
3.44
5.32
7.08
8.60
9.73
10.47
10.91
11.31
11.88
12.76
13.96
15.33
16.69
17.91
18.90
19.66
20.21
20.50
20.45
19.95
18.96
17.54
15.80
13.92
12.03
10.24
8.56
7.00
5.54
4.16
2.76
1.28
-0.34
-2.13
-4.06
-6.05
-7.99
-9.79
-11.43
-12.95
-14.52
-16.33
-18.54
-21.13
-23.86
-26.27
-27.81
-28.00
-26.61
-23.73
-19.71
-15.06
-10.28
-5.78
-1.81
1.51
4.19
6.30
7.95
9.21
10.18
10.94
11.56
12.11
12.71
13.41
14.30
15.36
16.52
17.66
18.63
19.26
19.49
19.36
18.96
18.45
17.89
17.30
16.63
15.77
14.68
13.38
11.93
10.40
8.81
7.13
5.30
3.34
1.36
-0.46
-2.01
-3.24
-4.25
-5.18
-6.18
-7.33
-8.67
-10.18
-11.88
-13.78
-15.93
-18.33
-20.95
-23.73
-26.54
-29.14
-31.14
-32.05
-31.45
-29.14
-25.25
-20.25
-14.78
-9.48
-4.82
-1.00
1.99
4.26
5.94
7.17
7.98
8.44
8.61
8.60
8.55
8.63
8.93
9.55
10.45
11.51
12.59
13.52
14.21
14.65
14.84
14.76
14.37
13.63
12.56
11.39
10.46
10.10
10.46
11.31
12.19
12.53
11.97
10.44
8.23
5.74
3.30
1.03
-1.14
-3.27
-5.38
-7.34
-9.05
-10.56
-12.09
-13.98
-16.50
-19.68
-23.19
-26.40
-28.63
-29.34
-28.31
-25.68
-21.86
-17.41
-12.81
-8.48
-4.61
-1.27
1.55
3.90
5.82
7.30
8.32
8.91
9.12
9.11
9.09
9.25
9.72
10.50
11.49
12.55
13.55
14.38
14.96
15.24
15.19
14.81
14.12
13.18
12.09
10.95
9.82
8.74
7.73
6.72
5.62
4.29
2.58
0.39
-2.24
-5.15
-8.09
-10.86
-13.39
-15.73
-18.06
-20.56
-23.32
-26.28
-29.14
-31.46
-32.63
-32.10
-29.48
-24.78
-18.44
-11.28
-4.32
1.46
5.41
7.34
7.53
6.70
5.75
5.52
6.46
8.51
11.09
13.38
14.72
14.90
14.26
13.46
13.09
13.42
14.29
15.32
16.18
16.80
17.30
17.76
18.06
17.84
16.71
14.57
11.75
8.93
6.80
5.74
5.67
6.08
6.35
5.99
4.80
2.82
0.06
-3.51
-7.97
-13.29
-19.15
-24.86
-29.57
-32.56
-33.49
-32.57
-30.46
-28.03
-26.12
-25.31
-25.75
-27.24
-29.24
-31.09
-32.18
-32.05
-30.54
-27.78
-24.11
-19.98
-15.84
-12.04
-8.83
-6.30
-4.42
-3.03
-1.90
-0.74
0.72
2.61
4.89
7.40
9.90
12.17
14.09
15.58
16.64
17.29
17.55
17.46
17.14
16.77
16.50
16.40
16.37
16.26
15.92
15.26
14.37
13.40
12.55
11.95
11.68
11.70
11.89
12.07
11.99
11.38
10.01
7.78
4.77
1.20
-2.66
-6.54
-10.34
-14.06
-17.70
-21.23
-24.44
-26.99
-28.43
-28.40
-26.71
-23.45
-19.02
-13.96
-8.86
-4.17
-0.14
3.18
5.92
8.27
10.38
12.36
14.30
16.19
17.97
19.55
20.79
21.57
21.85
21.68
21.21
20.61
20.03
19.51
19.03
18.54
17.94
17.19
16.21
14.96
13.46
11.79
10.11
8.56
7.22
6.06
4.94
3.76
2.47
1.14
-0.13
-1.29
-2.34
-3.39
-4.50
-5.70
-6.94
-8.13
-9.24
-10.32
-11.50
-12.92
-14.72
-16.95
-19.58
-22.47
-25.37
-27.94
-29.77
-30.51
-29.93
-28.06
-25.12
-21.49
-17.56
-13.62
-9.90
-6.53
-3.60
-1.17
0.76
2.30
3.62
4.88
6.22
7.63
9.02
10.30
11.43
12.43
13.39
14.40
15.47
16.56
17.54
18.26
18.55
18.30
17.47
16.12
14.42
12.55
10.69
8.93
7.31
5.79
4.35
2.96
1.60
0.25
-1.16
-2.66
-4.25
-5.92
-7.63
-9.36
-11.18
-13.12
-15.24
-17.45
-19.55
-21.21
-22.05
-21.72
-19.98
-16.85
-12.62
-7.83
-3.10
0.98
4.09
6.22
7.60
8.58
9.44
10.29
11.08
11.71
12.08
12.23
12.28
12.36
12.60
13.03
13.62
14.32
15.01
15.64
16.11
16.38
16.37
16.05
15.36
14.31
12.87
11.12
9.22
7.38
5.83
4.64
3.72
2.80
1.61
-0.01
-2.02
-4.18
-6.22
-7.94
-9.37
-10.72
-12.28
-14.26
-16.70
-19.48
-22.31
-24.83
-26.75
-27.84
-27.98
-27.12
-25.25
-22.45
-18.80
-14.53
-9.98
-5.52
-1.58
1.57
3.85
5.41
6.47
7.28
7.99
8.66
9.31
9.98
10.76
11.70
12.80
13.95
15.01
15.87
16.48
16.89
17.16
17.30
17.32
17.20
16.98
16.66
16.23
15.58
14.59
13.16
11.31
9.19
7.03
5.08
3.45
2.13
1.00
-0.10
-1.30
-2.67
-4.27
-6.08
-8.05
-10.08
-11.97
-13.61
-15.00
-16.33
-17.97
-20.27
-23.38
-27.06
-30.67
-33.31
-34.09
-32.44
-28.29
-22.16
-15.02
-8.06
-2.37
1.29
2.73
2.36
1.03
-0.20
-0.41
0.87
3.62
7.33
11.23
14.55
16.69
17.46
16.99
15.69
14.10
12.75
11.96
11.82
12.20
12.76
13.16
13.16
12.71
11.93
11.07
10.35
9.88
9.71
9.77
9.98
10.24
10.45
10.42
9.95
8.80
6.84
4.07
0.72
-2.88
-6.31
-9.21
-11.38
-12.81
-13.75
-14.55
-15.67
-17.42
-19.87
-22.83
-25.90
-28.55
-30.33
-30.89
-30.09
-27.97
-24.71
-20.65
-16.17
-11.66
-7.46
-3.78
-0.76
1.52
3.05
3.87
4.14
4.18
4.38
5.03
6.21
7.68
8.93
9.41
8.80
7.20
5.23
3.76
3.59
5.00
7.55
10.14
11.50
10.84
8.33
5.20
3.25
4.06
8.30
15.40
23.88
31.79
37.31
39.14
36.77
30.90
23.79
19.34
22.37
37.06
65.02
103.96
147.70
187.69
215.50
225.34
215.64
189.14
151.40
108.53
65.09
23.16
-17.16
-56.29
-94.02
-129.18
-160.46
-187.44
-210.76
-231.31
-248.74
-260.45
-262.31
-250.83
-225.56
-190.13
-151.12
-115.29
-86.86
-66.23
-50.79
-36.85
-21.71
-4.70
12.87
28.78
41.01
48.47
51.22
50.12
46.26
40.60
33.94
27.07
21.08
17.39
17.38
21.83
30.37
41.42
52.63
61.80
67.62
70.11
70.52
70.67
72.17
75.69
80.79
86.18
90.28
92.02
91.19
88.56
85.41
82.99
81.99
82.35
83.30
83.70
82.49
79.07
73.74
67.69
62.86
61.20
63.90
70.64
79.54
87.75
92.61
92.90
89.44
84.81
82.08
83.50
89.40
97.95
105.69
108.49
102.70
85.93
57.85
20.06
-24.10
-70.30
-114.30
-152.93
-184.71
-209.67
-228.86
-243.91
-256.91
-270.10
-285.26
-302.80
-320.71
-334.48
-338.17
-326.73
-297.97
-253.50
-198.17
-138.49
-81.20
-32.26
3.51
22.93
25.29
13.29
-6.93
-27.03
-39.04
-38.10
-23.75
0.20
27.41
51.33
67.14
72.80
69.03
58.69
45.68
33.91
26.31
24.28
27.70
35.45
45.98
57.83
69.86
81.21
91.15
98.85
103.45
104.14
100.43
92.28
80.15
64.93
47.76
29.86
12.34
-3.92
-18.32
-30.67
-41.03
-49.72
-56.98
-62.96
-67.52
-70.41
-71.38
-70.42
-67.85
-64.25
-60.37
-56.87
-54.15
-52.25
-50.78
-49.01
-45.98
-40.79
-32.85
-22.19
-9.49
4.02
16.89
27.86
36.20
41.82
45.11
46.84
47.81
48.76
50.21
52.48
55.59
59.18
62.58
64.89
65.36
63.64
59.96
55.05
49.77
44.72
40.02
35.29
29.91
23.33
15.29
5.84
-4.57
-15.22
-25.12
-33.21
-38.54
-40.58
-39.42
-35.76
-30.68
-25.21
-20.06
-15.54
-11.66
-8.39
-5.73
-3.77
-2.48
-1.69
-1.08
-0.34
0.72
2.05
3.49
4.82
5.94
6.87
7.72
8.64
9.66
10.71
11.60
12.11
12.09
11.50
10.48
9.26
8.00
6.81
5.57
4.09
2.24
-0.01
-2.46
-4.91
-7.20
-9.36
-11.54
-13.95
-16.65
-19.53
-22.29
-24.58
-26.09
-26.61
-26.03
-24.34
-21.62
-17.97
-13.63
-8.96
-4.31
0.00
3.84
7.30
10.60
13.98
17.52
21.09
24.37
27.01
28.78
29.63
29.77
29.54
29.32
29.37
29.79
30.48
31.22
31.70
31.63
30.81
29.15
26.69
23.58
19.99
16.13
12.20
8.34
4.67
1.31
-1.70
-4.36
-6.67
-8.69
-10.45
-11.98
-13.28
-14.40
-15.49
-16.78
-18.54
-20.90
-23.81
-26.93
-29.74
-31.71
-32.44
-31.73
-29.63
-26.41
-22.38
-17.93
-13.40
-9.07
-5.17
-1.81
0.98
3.24
5.00
6.39
7.58
8.78
10.17
11.86
13.83
15.96
18.09
20.10
21.93
23.55
24.94
26.10
26.97
27.52
27.72
27.54
26.94
25.84
24.14
21.84
19.06
16.01
12.98
10.23
7.90
5.95
4.26
2.65
1.00
-0.69
-2.41
-4.13
-5.91
-7.85
-10.10
-12.73
-15.66
-18.66
-21.40
-23.52
-24.71
-24.78
-23.64
-21.35
-18.08
-14.11
-9.79
-5.54
-1.72
1.38
3.64
5.11
5.96
6.45
6.79
7.15
7.63
8.30
9.22
10.36
11.65
12.92
14.03
14.90
15.52
15.98
16.31
16.45
16.29
15.71
14.75
13.53
12.22
10.95
9.74
8.51
7.15
5.65
4.03
2.42
0.92
-0.42
-1.61
-2.74
-3.91
-5.24
-6.85
-8.83
-11.20
-13.84
-16.51
-18.86
-20.51
-21.19
-20.77
-19.25
-16.77
-13.56
-9.89
-6.08
-2.50
0.51
2.70
4.00
4.57
4.71
4.77
5.04
5.69
6.74
8.10
9.60
11.07
12.34
13.32
13.96
14.32
14.49
14.55
14.58
14.57
14.49
14.22
13.70
12.84
11.63
10.15
8.53
6.98
5.69
4.77
4.19
3.77
3.30
2.59
1.59
0.40
-0.84
-2.05
-3.27
-4.70
-6.57
-9.00
-11.95
-15.18
-18.34
-21.05
-23.05
-24.16
-24.27
-23.30
-21.30
-18.37
-14.80
-11.05
-7.58
-4.79
-2.84
-1.63
-0.84
-0.12
0.81
2.06
3.56
5.19
6.83
8.43
9.94
11.32
12.50
13.44
14.10
14.53
14.80
14.96
15.07
15.14
15.18
15.15
15.01
14.63
13.87
12.68
11.10
9.30
7.57
6.13
5.07
4.24
3.34
2.07
0.32
-1.84
-4.14
-6.31
-8.19
-9.85
-11.48
-13.30
-15.47
-17.97
-20.67
-23.26
-25.41
-26.77
-27.10
-26.27
-24.37
-21.63
-18.35
-14.83
-11.29
-7.87
-4.68
-1.84
0.54
2.38
3.69
4.61
5.35
6.13
7.05
8.11
9.19
10.18
11.00
11.65
12.14
12.49
12.74
12.89
12.92
12.82
12.57
12.14
11.53
10.75
9.86
8.93
8.06
7.27
6.54
5.77
4.87
3.77
2.43
0.89
-0.81
-2.59
-4.41
-6.23
-8.10
-10.06
-12.19
-14.52
-17.06
-19.71
-22.32
-24.67
-26.47
-27.46
-27.39
-26.14
-23.78
-20.50
-16.65
-12.61
-8.70
-5.20
-2.28
-0.00
1.66
2.82
3.61
4.19
4.71
5.23
5.78
6.29
6.71
6.97
7.04
7.00
6.92
6.94
7.11
7.43
7.80
8.11
8.27
8.25
8.12
7.89
7.56
7.08
6.33
5.26
3.86
2.19
0.37
-1.50
-3.34
-5.11
-6.78
-8.39
-9.98
-11.60
-13.34
-15.24
-17.25
-19.22
-20.91
-21.99
-22.18
-21.29
-19.36
-16.58
-13.23
-9.67
-6.17
-2.90
0.06
2.67
4.96
6.91
8.52
9.81
10.79
11.45
11.81
11.89
11.73
11.43
11.10
10.92
11.03
11.53
12.41
13.50
14.59
15.41
15.74
15.45
14.50
12.97
10.95
8.61
6.05
3.44
0.87
-1.51
-3.60
-5.27
-6.47
-7.22
-7.62
-7.87
-8.20
-8.89
-10.20
-12.32
-15.29
-18.95
-22.89
-26.48
-29.07
-30.11
-29.42
-27.19
-23.96
-20.39
-17.06
-14.26
-11.89
-9.56
-6.76
-3.11
1.45
6.61
11.81
16.44
20.12
22.73
24.40
25.35
25.73
25.59
24.97
23.94
22.72
21.60
20.77
20.29
20.00
19.64
18.97
17.85
16.37
14.68
12.99
11.44
10.04
8.71
7.28
5.62
3.71
1.66
-0.35
-2.13
-3.55
-4.65
-5.62
-6.68
-8.06
-9.90
-12.21
-14.87
-17.66
-20.23
-22.20
-23.16
-22.86
-21.24
-18.49
-14.97
-11.03
-7.01
-3.09
0.59
3.92
6.78
9.03
10.60
11.52
11.96
12.13
12.25
12.45
12.82
13.38
14.17
15.18
16.46
17.95
19.58
21.19
22.64
23.82
24.68
25.25
25.55
25.56
25.21
24.42
23.11
21.29
19.06
16.58
14.04
11.51
9.06
6.77
4.87
3.83
4.10
5.96
9.19
13.05
16.51
18.62
18.96
17.67
15.35
12.73
10.41
8.84
8.28
8.78
10.05
11.34
11.55
9.62
5.08
-1.69
-9.43
-16.54
-21.74
-24.46
-24.88
-23.66
-21.54
-19.08
-16.65
-14.55
-13.06
-12.41
-12.72
-13.97
-16.04
-18.78
-22.03
-25.61
-29.19
-32.36
-34.72
-35.96
-36.04
-35.04
-33.21
-30.73
-27.76
-24.46
-21.08
-17.99
-15.63
-14.38
-14.47
-15.91
-18.48
-21.81
-25.37
-28.60
-30.95
-32.01
-31.60
-29.82
-26.90
-23.20
-19.07
-14.86
-10.91
-7.61
-5.31
-4.19
-4.14
-4.70
-5.23
-5.06
-3.85
-1.59
1.36
4.52
7.51
10.13
12.35
14.16
15.56
16.45
16.79
16.65
16.23
15.78
15.45
15.22
14.90
14.22
13.03
11.30
9.21
7.00
4.86
2.86
0.96
-0.96
-2.95
-4.93
-6.70
-8.04
-8.87
-9.26
-9.55
-10.17
-11.45
-13.45
-15.92
-18.32
-20.03
-20.63
-20.09
-18.80
-17.38
-16.41
-16.09
-16.12
-15.82
-14.44
-11.53
-7.21
-2.16
2.64
6.15
7.64
6.85
4.02
-0.05
-4.10
-6.75
-6.91
-4.43
-0.43
2.91
3.09
-1.53
-10.56
-21.10
-28.32
-27.01
-13.55
12.53
48.39
88.77
127.64
159.97
182.65
194.48
195.64
187.18
170.92
149.71
127.33
107.92
94.93
89.94
92.20
99.01
106.80
112.37
113.59
109.66
100.83
88.45
74.98
63.78
58.53
62.10
73.11
87.71
99.94
103.55
94.87
74.85
48.51
22.13
0.06
-15.86
-27.98
-38.89
-49.31
-57.82
-62.23
-61.54
-57.23
-52.96
-52.43
-58.42
-71.63
-90.90
-114.07
-138.67
-162.46
-183.37
-199.49
-209.23
-211.83
-207.46
-197.33
-183.31
-167.29
-150.94
-135.68
-122.71
-112.82
-106.24
-102.23
-99.37
-96.00
-90.84
-83.30
-73.63
-62.74
-51.88
-42.25
-34.56
-28.82
-24.31
-19.99
-15.01
-9.08
-2.65
3.35
7.91
10.37
10.74
9.62
8.07
7.19
7.89
10.57
15.10
20.87
27.05
32.73
37.13
39.63
39.79
37.38
32.39
25.24
16.74
8.13
0.80
-4.11
-6.10
-5.53
-3.36
-0.74
1.57
3.57
5.82
9.08
13.66
19.26
25.02
29.94
33.36
35.08
35.31
34.53
33.27
32.05
31.37
31.49
32.40
33.72
34.84
35.25
34.76
33.62
32.35
31.47
31.14
31.21
31.27
30.94
30.13
28.99
27.81
26.78
25.85
24.77
23.28
21.27
18.82
16.13
13.34
10.38
7.03
3.09
-1.44
-6.32
-11.10
-15.38
-18.85
-21.45
-23.18
-24.20
-24.69
-24.93
-25.23
-25.89
-27.00
-28.35
-29.52
-29.95
-29.24
-27.24
-24.11
-20.23
-16.05
-11.93
-8.12
-4.74
-1.82
0.66
2.68
4.25
5.45
6.39
7.23
8.11
9.10
10.16
11.16
12.01
12.75
13.47
14.33
15.32
16.22
16.70
16.44
15.40
13.80
12.06
10.52
9.32
8.35
7.36
6.18
4.78
3.31
1.91
0.61
-0.73
-2.28
-4.17
-6.41
-8.85
-11.33
-13.78
-16.20
-18.66
-21.19
-23.70
-25.96
-27.75
-28.85
-29.14
-28.63
-27.36
-25.41
-22.83
-19.69
-16.08
-12.21
-8.32
-4.70
-1.64
0.70
2.30
3.36
4.15
4.98
6.06
7.44
8.99
10.51
11.86
12.96
13.84
14.56
15.17
15.71
16.18
16.61
17.01
17.34
17.51
17.41
16.89
15.94
14.63
13.15
11.72
10.45
9.32
8.13
6.69
4.87
2.68
0.26
-2.24
-4.72
-7.12
-9.47
-11.74
-13.88
-15.86
-17.57
-18.93
-19.82
-20.08
-19.50
-17.94
-15.42
-12.13
-8.46
-4.81
-1.52
1.23
3.44
5.15
6.43
7.29
7.73
7.79
7.63
7.46
7.51
7.88
8.58
9.44
10.28
10.97
11.45
11.77
11.97
12.05
12.00
11.75
11.31
10.70
10.01
9.29
8.56
7.81
7.03
6.23
5.43
4.63
3.83
2.90
1.78
0.44
-1.04
-2.47
-3.72
-4.80
-5.84
-7.08
-8.70
-10.67
-12.77
-14.66
-15.98
-16.47
-16.03
-14.66
-12.46
-9.57
-6.19
-2.50
1.26
4.91
8.34
11.46
14.24
16.63
18.55
19.91
20.74
21.20
21.70
22.74
24.72
27.68
31.15
34.16
35.60
34.63
31.00
25.13
17.80
9.80
1.61
-6.66
-15.04
-23.49
-31.69
-39.20
-45.57
-50.65
-54.55
-57.66
-60.49
-63.64
-67.66
-72.98
-79.77
-87.80
-96.35
-104.42
-111.18
-116.30
-119.91
-122.24
-122.92
-120.61
-112.87
-96.81
-70.01
-31.72
16.33
69.88
122.97
169.42
204.64
226.72
236.47
236.66
230.69
221.40
210.38
197.74
182.20
161.10
130.96
88.80
34.17
-29.07
-92.60
-145.70
-179.01
-188.09
-175.00
-146.99
-113.03
-80.20
-51.61
-26.81
-3.90
18.19
38.66
55.47
66.93
73.23
76.72
80.96
89.00
101.97
118.45
135.13
148.14
154.53
153.00
143.87
128.64
109.74
90.39
74.22
64.55
63.22
69.64
80.66
91.59
97.97
97.33
90.06
78.95
67.78
59.57
55.57
55.20
56.90
59.06
60.47
60.32
57.73
51.70
41.40
26.53
7.56
-14.64
-39.51
-67.44
-99.30
-135.39
-174.06
-211.24
-241.65
-261.38
-270.31
-272.53
-274.00
-278.85
-286.87
-293.79
-294.51
-286.99
-274.04
-261.93
-256.56
-259.81
-268.38
-276.00
-277.19
-270.27
-257.75
-243.93
-231.68
-220.49
-206.91
-186.86
-158.09
-121.45
-80.18
-38.40
0.96
36.93
69.86
99.89
125.57
143.77
151.01
145.46
128.31
103.78
77.49
54.48
37.55
26.94
21.16
18.33
17.17
17.29
18.85
21.95
26.19
30.77
34.91
38.29
41.41
45.40
51.60
61.12
74.57
91.87
112.31
134.54
156.78
176.98
193.25
204.18
209.26
208.97
204.50
197.32
188.63
179.08
168.83
157.90
146.72
136.50
129.22
127.01
131.28
141.78
156.13
170.29
179.66
180.67
172.04
155.25
134.02
112.95
96.04
85.54
81.69
83.23
88.35
95.66
104.44
114.21
124.02
131.95
135.33
131.67
119.65
99.51
72.76
41.40
7.55
-26.37
-56.89
-79.42
-89.18
-83.15
-61.93
-30.18
4.63
34.99
56.02
66.81
69.94
69.53
69.20
70.67
73.79
77.31
79.92
80.70
79.17
75.04
68.14
58.46
46.36
32.71
18.79
6.05
-4.30
-11.55
-15.77
-17.73
-18.79
-20.56
-24.56
-31.88
-42.89
-57.01
-72.72
-87.89
-100.34
-108.60
-112.47
-113.33
-113.82
-117.15
-126.20
-142.84
-167.69
-200.22
-238.81
-280.70
-322.04
-358.32
-385.36
-400.54
-403.70
-397.12
-384.18
-367.74
-348.75
-326.01
-297.12
-259.85
-213.29
-158.18
-96.32
-30.00
38.39
106.20
170.13
226.45
271.71
304.13
324.55
336.20
343.11
348.05
350.97
349.14
338.80
317.47
285.49
246.10
203.95
163.26
126.58
94.65
67.06
43.01
21.63
1.68
-18.91
-43.12
-74.75
-117.56
-174.19
-244.67
-325.26
-408.32
-483.63
-541.20
-574.32
-581.62
-567.05
-537.83
-501.51
-463.61
-426.86
-391.87
-358.50
-326.63
-296.22
-266.85
-237.54
-207.17
-175.13
-142.07
-109.64
-79.77
-53.69
-31.01
-9.32
15.45
47.73
90.14
141.32
194.63
238.86
261.28
252.21
209.36
139.77
58.24
-17.35
-71.91
-97.41
-94.13
-68.74
-30.56
11.80
52.08
86.12
111.07
125.02
127.57
120.52
107.82
94.53
84.73
79.99
79.07
78.91
76.40
69.69
58.65
44.47
28.97
14.13
1.93
-5.48
-6.04
1.82
18.61
43.47
74.20
107.66
140.08
167.68
187.37
197.31
197.22
188.36
173.09
154.22
134.51
116.22
101.00
89.85
83.03
80.12
80.06
81.33
82.29
81.58
78.36
72.60
64.99
56.69
48.93
42.72
38.49
36.15
35.21
35.05
35.14
35.14
34.86
34.19
33.06
31.48
29.58
27.66
26.08
25.12
24.81
24.89
24.89
24.23
22.50
19.50
15.41
10.65
5.81
1.44
-2.12
-4.78
-6.70
-8.15
-9.40
-10.54
-11.52
-12.14
-12.22
-11.64
-10.39
-8.54
-6.23
-3.62
-0.97
1.46
3.37
4.61
5.21
5.38
5.40
5.49
5.66
5.78
5.64
5.11
4.19
2.97
1.62
0.21
-1.14
-2.35
-3.29
-3.86
-3.98
-3.76
-3.38
-3.12
-3.28
-4.03
-5.47
-7.54
-10.04
-12.61
-14.78
-16.05
-16.08
-14.78
-12.32
-9.12
-5.67
-2.37
0.53
2.98
4.99
6.52
7.52
7.94
7.80
7.29
6.71
6.32
6.29
6.60
7.10
7.62
7.98
8.13
8.03
7.70
7.11
6.25
5.14
3.78
2.20
0.40
-1.59
-3.72
-5.85
-7.86
-9.59
-10.98
-11.96
-12.50
-12.49
-11.81
-10.34
-8.12
-5.35
-2.33
0.57
3.09
5.11
6.64
7.79
8.63
9.24
9.58
9.57
9.14
8.20
6.80
5.10
3.35
1.87
0.91
0.56
0.75
1.28
1.94
2.57
3.06
3.33
3.31
2.96
2.19
0.98
-0.65
-2.64
-4.91
-7.37
-9.83
-12.06
-13.75
-14.58
-14.32
-12.93
-10.57
-7.63
-4.52
-1.63
0.80
2.72
4.12
5.04
5.52
5.61
5.42
5.09
4.76
4.47
4.16
3.66
2.87
1.73
0.30
-1.29
-2.87
-4.34
-5.66
-6.86
-7.97
-9.02
-10.06
-11.10
-12.17
-13.32
-14.59
-16.05
-17.67
-19.35
-20.85
-21.87
-22.15
-21.49
-19.86
-17.35
-14.16
-10.53
-6.75
-3.09
0.24
3.02
5.09
6.30
6.55
5.88
4.43
2.55
0.64
-0.90
-1.80
-2.04
-1.77
-1.27
-0.82
-0.61
-0.68
-1.01
-1.54
-2.24
-3.10
-4.10
-5.21
-6.39
-7.58
-8.79
-10.02
-11.32
-12.68
-13.95
-14.89
-15.23
-14.78
-13.49
-11.43
-8.75
-5.63
-2.26
1.20
4.56
7.68
10.44
12.82
14.83
16.49
17.80
18.68
18.99
18.71
17.85
16.60
15.22
13.93
12.92
12.28
11.98
11.92
11.96
11.96
11.77
11.25
10.30
8.83
6.82
4.32
1.41
-1.75
-4.98
-8.05
-10.64
-12.40
-12.99
-12.19
-10.02
-6.73
-2.80
1.21
4.83
7.76
9.89
11.24
11.92
12.05
11.73
11.09
10.26
9.37
8.58
7.95
7.51
7.19
6.84
6.34
5.56
4.49
3.17
1.79
0.53
-0.46
-1.13
-1.62
-2.18
-3.12
-4.69
-6.99
-9.92
-13.30
-16.81
-20.16
-23.06
-25.14
-26.09
-25.61
-23.55
-19.99
-15.29
-9.99
-4.69
0.10
4.06
7.04
9.05
10.16
10.45
10.04
9.05
7.70
6.26
5.05
4.31
4.15
4.48
5.08
5.65
5.95
5.87
5.37
4.55
3.47
2.23
0.90
-0.42
-1.64
-2.75
-3.77
-4.90
-6.32
-8.17
-10.30
-12.35
-13.73
-13.92
-12.65
-10.08
-6.72
-3.21
-0.07
2.49
4.53
6.23
7.73
9.01
9.92
10.32
10.17
9.56
8.72
7.87
7.17
6.68
6.39
6.26
6.25
6.30
6.35
6.33
6.16
5.80
5.23
4.46
3.48
2.20
0.51
-1.67
-4.30
-7.20
-10.07
-12.50
-14.14
-14.72
-14.10
-12.30
-9.45
-5.86
-1.91
2.00
5.52
8.40
10.52
11.88
12.58
12.78
12.63
12.27
11.78
11.18
10.45
9.61
8.69
7.80
7.00
6.33
5.76
5.22
4.62
3.91
3.09
2.23
1.37
0.56
-0.25
-1.11
-2.16
-3.52
-5.31
-7.47
-9.86
-12.16
-13.90
-14.64
-14.01
-11.86
-8.28
-3.62
1.62
6.91
11.77
15.87
19.00
21.17
22.49
23.17
23.46
23.57
23.64
23.69
23.71
23.68
23.59
23.49
23.38
23.20
22.78
21.89
20.37
18.20
15.53
12.67
10.02
7.90
6.46
5.65
5.16
4.57
3.39
1.26
-1.97
-6.06
-10.48
-14.40
-16.93
-17.45
-15.72
-12.05
-7.11
-1.76
3.26
7.53
11.01
13.96
16.66
19.25
21.65
23.62
24.89
25.35
25.14
24.63
24.29
24.51
25.45
26.96
28.65
30.08
30.93
31.16
31.05
30.98
31.31
32.14
33.31
34.48
35.31
35.64
35.49
35.03
34.48
34.02
33.86
34.27
35.57
38.06
41.84
46.79
52.51
58.49
64.21
69.24
73.14
75.35
75.25
72.15
65.58
55.53
42.48
27.43
11.61
-3.73
-17.54
-29.16
-38.29
-45.02
-49.70
-52.79
-54.77
-56.02
-56.90
-57.71
-58.69
-59.98
-61.57
-63.28
-64.84
-66.03
-66.76
-67.07
-67.05
-66.73
-66.06
-64.99
-63.54
-61.83
-60.02
-58.21
-56.40
-54.52
-52.46
-50.16
-47.55
-44.59
-41.23
-37.54
-33.75
-30.26
-27.49
-25.68
-24.75
-24.34
-24.03
-23.57
-23.05
-22.70
-22.69
-22.94
-23.12
-22.89
-22.15
-21.09
-20.15
-19.66
-19.69
-19.95
-20.04
-19.64
-18.74
-17.61
-16.55
-15.76
-15.15
-14.43
-13.20
-11.15
-8.18
-4.42
-0.22
3.94
7.56
10.25
11.83
12.39
12.19
11.55
10.73
9.88
9.07
8.36
7.88
7.76
8.08
8.78
9.62
10.28
10.48
10.13
9.26
8.06
6.66
5.11
3.39
1.45
-0.69
-2.92
-5.09
-7.07
-8.85
-10.53
-12.21
-13.93
-15.60
-17.01
-17.95
-18.22
-17.68
-16.21
-13.77
-10.38
-6.23
-1.83
2.11
4.90
6.14
5.95
4.90
3.77
3.14
3.15
3.33
2.94
1.42
-1.21
-4.16
-6.31
-6.76
-5.35
-2.80
-0.61
-0.26
-2.43
-6.48
-10.45
-11.85
-8.66
-0.21
12.62
27.05
39.10
44.33
38.73
19.83
-12.65
-56.60
-107.87
-157.93
-197.10
-216.78
-212.54
-185.86
-143.01
-92.03
-39.98
8.38
50.35
84.30
109.44
125.85
134.58
137.76
137.98
137.48
137.51
138.30
139.10
138.85
136.83
132.70
126.94
120.57
113.78
106.12
96.64
84.22
68.33
49.38
28.10
6.18
-14.75
-33.73
-50.67
-66.40
-82.66
-101.65
-125.14
-154.04
-186.49
-218.10
-243.02
-255.91
-254.09
-238.63
-214.10
-182.93
-149.89
-118.63
-90.81
-66.59
-45.63
-27.94
-13.36
-2.83
2.92
3.37
-0.70
-8.04
-17.55
-28.57
-41.10
-55.14
-70.50
-86.35
-101.70
-115.62
-127.61
-137.80
-146.77
-155.38
-164.19
-173.29
-181.98
-189.28
-193.83
-194.38
-190.95
-183.94
-174.23
-162.70
-150.07
-136.51
-121.77
-105.27
-86.41
-65.00
-41.32
-16.21
9.15
33.63
56.58
77.92
98.13
117.96
137.96
158.33
178.68
198.36
216.70
233.45
248.89
263.75
279.00
295.76
315.15
337.88
363.66
390.61
415.11
432.41
438.04
429.46
407.11
374.39
336.44
298.40
263.95
234.84
211.18
192.26
177.19
165.09
154.95
145.47
135.31
123.53
110.23
96.56
84.27
74.84
68.39
63.22
56.18
43.66
22.90
-6.99
-44.72
-87.05
-129.44
-166.99
-195.34
-211.58
-215.00
-207.32
-192.24
-174.35
-157.67
-144.42
-134.69
-126.97
-119.36
-110.63
-100.75
-90.57
-81.11
-72.95
-65.89
-59.33
-52.67
-45.83
-39.19
-33.31
-28.43
-24.19
-19.83
-14.51
-7.89
-0.32
7.28
13.84
18.53
21.16
22.02
21.70
20.76
19.43
17.64
15.16
11.85
7.82
3.47
-0.71
-4.28
-7.05
-9.14
-10.95
-12.98
-15.68
-19.22
-23.35
-27.42
-30.56
-32.06
-31.62
-29.53
-26.54
-23.46
-20.92
-19.16
-18.02
-17.24
-16.56
-15.88
-15.23
-14.62
-14.10
-13.65
-13.21
-12.68
-11.84
-10.41
-8.17
-5.12
-1.56
1.88
4.54
5.93
5.99
5.09
3.84
2.81
2.24
2.04
1.84
1.27
0.12
-1.56
-3.54
-5.49
-7.14
-8.27
-8.71
-8.32
-6.96
-4.56
-1.26
2.63
6.54
9.82
11.92
12.59
11.98
10.62
9.20
8.32
8.30
9.02
10.12
11.15
11.75
11.83
11.47
10.83
10.02
9.10
8.06
6.92
5.79
4.83
4.13
3.65
3.15
2.32
0.85
-1.32
-4.01
-6.76
-9.14
-10.79
-11.57
-11.49
-10.72
-9.45
-7.84
-6.12
-4.50
-3.18
-2.30
-1.88
-1.79
-1.78
-1.64
-1.20
-0.46
0.45
1.33
2.01
2.45
2.75
3.08
3.65
4.54
5.69
6.81
7.59
7.73
7.20
6.21
5.12
4.35
4.17
4.60
5.52
6.75
8.25
10.17
12.76
16.22
20.53
25.40
30.29
34.63
37.93
39.98
40.95
41.32
41.93
43.71
47.43
53.27
60.65
68.15
74.05
76.96
76.44
73.23
68.82
64.78
62.03
60.70
60.28
60.26
60.37
60.66
61.13
61.38
60.52
57.31
50.41
38.55
20.76
-3.34
-33.35
-67.76
-104.21
-140.05
-173.17
-202.85
-230.11
-257.51
-287.92
-322.88
-360.81
-396.57
-422.48
-430.78
-416.74
-380.69
-328.04
-267.09
-205.80
-148.77
-96.67
-47.36
1.75
51.55
100.37
144.78
181.18
207.34
223.25
230.41
230.90
226.63
218.62
207.20
192.89
177.15
162.79
153.56
152.38
159.92
174.05
190.40
203.88
210.90
210.32
200.67
181.76
153.36
115.38
68.88
16.90
-35.99
-84.93
-127.38
-161.81
-186.69
-200.34
-200.72
-186.24
-155.67
-111.89
-61.44
-12.86
26.05
50.32
58.21
51.33
34.29
13.98
-1.93
-6.57
3.69
27.79
60.03
91.84
114.96
124.38
119.12
101.01
73.37
39.50
2.27
-35.51
-71.29
-103.56
-132.84
-161.77
-193.43
-228.99
-265.56
-296.51
-313.89
-311.85
-289.10
-249.39
-200.18
-150.12
-106.42
-73.21
-51.01
-37.46
-28.93
-22.21
-15.80
-10.26
-7.33
-8.40
-13.39
-20.42
-26.64
-29.94
-29.67
-26.13
-19.51
-8.85
7.77
31.68
61.98
94.82
124.69
146.29
156.75
156.72
149.86
141.12
134.60
132.08
132.68
133.60
131.53
124.31
111.71
95.46
78.29
62.70
49.88
39.35
29.39
17.85
2.98
-16.22
-39.79
-66.75
-94.72
-119.60
-135.87
-137.99
-122.87
-91.79
-51.04
-9.96
22.70
42.30
49.76
50.21
49.68
51.83
56.73
61.92
64.87
65.00
63.89
64.06
67.14
72.67
78.48
82.12
82.39
80.04
77.33
76.60
79.22
84.99
92.59
100.69
109.05
118.91
132.44
151.51
175.98
203.23
228.54
246.50
252.84
245.92
227.19
200.47
170.57
141.39
115.15
92.30
71.95
52.81
34.04
15.73
-1.56
-15.86
-25.61
-31.09
-33.22
-33.65
-34.44
-37.53
-44.18
-54.88
-69.42
-87.43
-108.61
-132.79
-160.02
-190.46
-224.35
-262.18
-304.67
-352.05
-403.00
-453.53
-496.90
-525.35
-532.83
-517.45
-482.46
-435.00
-383.32
-334.04
-290.52
-253.00
-220.02
-190.03
-161.90
-134.77
-107.42
-77.87
-43.99
-4.36
40.66
88.43
134.20
172.58
199.30
212.67
214.08
207.12
195.89
183.27
170.10
155.62
138.80
119.67
99.80
81.83
68.25
60.33
57.64
58.38
60.31
61.65
61.68
60.76
59.86
59.85
61.05
62.98
64.70
65.35
64.60
62.79
60.74
59.30
58.94
59.65
60.99
62.39
63.40
63.79
63.58
62.90
61.86
60.42
58.42
55.63
51.92
47.38
42.36
37.35
32.78
28.87
25.54
22.44
19.24
15.74
12.06
8.58
5.81
4.18
3.83
4.65
6.27
8.23
10.11
11.69
12.81
13.46
13.62
13.26
12.39
11.08
9.44
7.57
5.47
2.97
-0.14
-3.97
-8.39
-12.99
-17.17
-20.42
-22.40
-23.07
-22.54
-20.95
-18.38
-14.98
-11.06
-7.18
-4.08
-2.36
-2.34
-3.88
-6.49
-9.61
-12.81
-15.90
-18.88
-21.66
-23.94
-25.23
-24.99
-22.92
-19.10
-14.01
-8.34
-2.81
2.08
6.13
9.36
11.94
14.04
15.80
17.31
18.69
20.04
21.51
23.18
25.06
27.11
29.20
31.17
32.95
34.42
35.55
36.26
36.53
36.34
35.82
35.16
34.65
34.60
35.18
36.33
37.69
38.62
38.40
36.49
32.81
27.85
22.51
17.79
14.49
12.90
12.81
13.70
14.96
15.92
15.92
14.31
10.52
4.41
-3.47
-11.87
-19.11
-23.75
-25.13
-23.60
-20.34
-16.72
-13.79
-11.95
-11.05
-10.70
-10.59
-10.60
-10.71
-10.86
-10.88
-10.58
-9.92
-9.13
-8.64
-8.93
-10.31
-12.76
-15.94
-19.35
-22.46
-24.91
-26.63
-27.71
-28.39
-28.86
-29.10
-28.93
-28.06
-26.28
-23.69
-20.65
-17.70
-15.31
-13.69
-12.73
-12.17
-11.87
-11.91
-12.55
-14.03
-16.31
-19.01
-21.50
-23.24
-23.96
-23.79
-23.12
-22.36
-21.74
-21.24
-20.75
-20.13
-19.42
-18.74
-18.25
-18.02
-18.04
-18.25
-18.61
-19.18
-19.99
-20.97
-21.83
-22.15
-21.46
-19.45
-16.11
-11.71
-6.77
-1.84
2.64
6.44
9.52
11.95
13.89
15.45
16.70
17.73
18.59
19.22
19.45
19.04
17.69
15.28
11.93
8.05
4.24
1.01
-1.41
-3.01
-4.03
-4.72
-5.21
-5.58
-5.89
-6.33
-7.19
-8.71
-10.89
-13.43
-15.70
-17.05
-17.01
-15.45
-12.64
-9.05
-5.18
-1.40
2.14
5.41
8.49
11.44
14.23
16.79
19.00
20.81
22.28
23.52
24.70
25.98
27.41
29.03
30.85
32.84
34.87
36.66
37.72
37.58
35.95
32.91
29.02
25.01
21.52
18.77
16.45
13.99
10.80
6.57
1.37
-4.43
-10.36
-16.01
-21.00
-24.98
-27.58
-28.46
-27.45
-24.67
-20.56
-15.83
-11.27
-7.60
-5.29
-4.48
-4.93
-6.14
-7.51
-8.54
-8.98
-8.86
-8.39
-7.86
-7.40
-7.04
-6.68
-6.28
-5.92
-5.79
-6.07
-6.84
-8.06
-9.54
-11.12
-12.71
-14.35
-16.16
-18.18
-20.36
-22.44
-24.01
-24.69
-24.15
-22.30
-19.30
-15.50
-11.33
-7.17
-3.28
0.27
3.50
6.36
8.72
10.39
11.19
11.12
10.40
9.42
8.57
8.11
8.07
8.35
8.79
9.27
9.68
9.95
9.99
9.71
9.08
8.16
7.06
5.92
4.77
3.55
2.13
0.41
-1.67
-4.07
-6.69
-9.42
-12.08
-14.46
-16.24
-17.08
-16.72
-15.04
-12.21
-8.60
-4.72
-1.06
2.05
4.52
6.41
7.84
8.86
9.50
9.74
9.66
9.40
9.15
9.04
9.10
9.25
9.35
9.32
9.14
8.89
8.69
8.61
8.66
8.76
8.74
8.44
7.76
6.67
5.24
3.60
1.90
0.23
-1.42
-3.15
-5.12
-7.44
-10.13
-13.10
-16.08
-18.77
-20.75
-21.65
-21.19
-19.29
-16.09
-11.94
-7.32
-2.73
1.46
5.03
7.93
10.20
11.89
13.10
13.95
14.61
15.25
16.00
16.86
17.71
18.41
18.85
19.06
19.16
19.31
19.59
19.98
20.38
20.65
20.70
20.50
20.04
19.26
18.18
16.82
15.28
13.70
12.21
10.86
9.59
8.27
6.80
5.16
3.44
1.80
0.38
-0.83
-1.92
-3.05
-4.38
-6.00
-7.94
-10.22
-12.82
-15.69
-18.69
-21.55
-23.90
-25.35
-25.58
-24.51
-22.24
-19.07
-15.32
-11.33
-7.34
-3.57
-0.19
2.66
4.88
6.48
7.62
8.51
9.38
10.39
11.58
12.84
14.03
15.04
15.86
16.56
17.21
17.82
18.38
18.83
19.12
19.26
19.29
19.21
18.99
18.56
17.89
17.00
16.03
15.10
14.34
13.75
13.26
12.78
12.23
11.56
10.73
9.73
8.55
7.22
5.76
4.20
2.53
0.70
-1.27
-3.34
-5.35
-7.09
-8.45
-9.40
-10.11
-10.80
-11.70
-12.95
-14.57
-16.55
-18.80
-21.18
-23.47
-25.30
-26.20
-25.82
-24.00
-20.94
-17.11
-13.09
-9.37
-6.18
-3.52
-1.23
0.80
2.61
4.15
5.37
6.32
7.12
7.91
8.78
9.76
10.80
11.84
12.88
13.89
14.82
15.59
16.08
16.21
15.99
15.51
14.88
14.22
13.55
12.91
12.25
11.59
10.92
10.22
9.44
8.53
7.49
6.35
5.20
4.12
3.13
2.17
1.11
-0.16
-1.71
-3.53
-5.54
-7.60
-9.56
-11.28
-12.75
-14.03
-15.30
-16.76
-18.51
-20.50
-22.48
-24.02
-24.67
-24.12
-22.29
-19.41
-15.91
-12.31
-9.02
-6.29
-4.12
-2.35
-0.76
0.79
2.33
3.77
4.99
5.97
6.78
7.56
8.46
9.52
10.70
11.82
12.76
13.41
13.76
13.89
13.85
13.70
13.42
12.96
12.25
11.27
10.03
8.62
7.12
5.59
4.11
2.68
1.33
0.04
-1.18
-2.35
-3.46
-4.50
-5.44
-6.31
-7.13
-8.05
-9.20
-10.71
-12.65
-14.95
-17.39
-19.72
-21.62
-22.78
-22.95
-22.01
-20.00
-17.13
-13.77
-10.26
-6.90
-3.77
-0.90
1.73
4.11
6.10
7.56
8.40
8.64
8.41
7.91
7.38
7.05
7.07
7.52
8.32
9.31
10.23
10.89
11.19
11.13
10.78
10.25
9.65
9.05
8.48
7.96
7.47
6.94
6.27
5.39
4.33
3.17
2.02
0.90
-0.24
-1.51
-2.96
-4.58
-6.21
-7.73
-9.06
-10.26
-11.48
-12.89
-14.56
-16.50
-18.58
-20.63
-22.44
-23.73
-24.23
-23.72
-22.12
-19.56
-16.36
-12.88
-9.45
-6.27
-3.44
-0.96
1.18
3.01
4.52
5.76
6.79
7.67
8.44
9.10
9.63
10.06
10.40
10.71
11.05
11.50
12.09
12.76
13.43
13.95
14.22
14.14
13.71
12.93
11.85
10.52
8.96
7.26
5.52
3.95
2.69
1.85
1.38
1.13
0.83
0.28
-0.67
-2.01
-3.63
-5.39
-7.13
-8.79
-10.37
-11.90
-13.42
-15.00
-16.71
-18.60
-20.73
-23.01
-25.23
-27.06
-28.13
-28.16
-27.08
-24.97
-22.07
-18.65
-14.96
-11.24
-7.67
-4.45
-1.72
0.42
2.02
3.19
4.12
4.97
5.86
6.82
7.83
8.87
9.94
11.02
12.09
13.10
14.00
14.71
15.19
15.42
15.45
15.35
15.18
14.95
14.66
14.25
13.68
12.93
12.06
11.15
10.27
9.46
8.65
7.74
6.67
5.49
4.33
3.37
2.66
2.14
1.57
0.69
-0.66
-2.49
-4.60
-6.77
-8.82
-10.66
-12.39
-14.11
-15.90
-17.81
-19.77
-21.65
-23.28
-24.48
-25.05
-24.80
-23.66
-21.66
-18.96
-15.81
-12.53
-9.40
-6.58
-4.16
-2.16
-0.53
0.82
1.96
2.97
3.90
4.75
5.60
6.48
7.44
8.52
9.69
10.87
11.97
12.93
13.74
14.44
15.06
15.58
15.93
16.05
15.94
15.61
15.16
14.65
14.09
13.48
12.85
12.25
11.77
11.46
11.28
11.08
10.71
10.07
9.18
8.15
7.15
6.24
5.36
4.41
3.26
1.87
0.30
-1.38
-3.14
-5.00
-6.99
-9.11
-11.31
-13.49
-15.62
-17.70
-19.80
-21.98
-24.19
-26.28
-27.98
-28.96
-29.00
-28.01
-26.05
-23.30
-20.03
-16.50
-12.97
-9.67
-6.77
-4.39
-2.59
-1.32
-0.44
0.22
0.85
1.58
2.47
3.53
4.71
5.89
6.99
7.94
8.76
9.50
10.24
10.98
11.66
12.14
12.22
11.83
10.98
9.82
8.57
7.44
6.53
5.82
5.15
4.35
3.30
1.91
0.21
-1.74
-3.83
-5.93
-7.90
-9.65
-11.13
-12.42
-13.68
-15.09
-16.77
-18.67
-20.58
-22.19
-23.15
-23.17
-22.12
-20.01
-17.03
-13.48
-9.68
-5.97
-2.57
0.40
2.91
4.95
6.57
7.76
8.57
9.09
9.44
9.80
10.29
10.99
11.88
12.90
13.95
14.92
15.71
16.22
16.39
16.20
15.71
15.04
14.32
13.63
12.97
12.24
11.32
10.16
8.79
7.29
5.73
4.09
2.27
0.17
-2.16
-4.52
-6.59
-8.12
-9.07
-9.65
-10.26
-11.28
-12.95
-15.28
-18.10
-21.17
-24.21
-26.90
-28.86
-29.67
-29.02
-26.81
-23.25
-18.86
-14.26
-10.01
-6.45
-3.60
-1.28
0.75
2.70
4.61
6.43
8.03
9.38
10.55
11.67
12.88
14.23
15.58
16.73
17.50
17.85
17.91
17.92
18.06
18.37
18.70
18.85
18.64
18.04
17.11
15.96
14.66
13.18
11.51
9.67
7.76
5.95
4.37
3.08
2.03
1.11
0.20
-0.77
-1.86
-3.10
-4.54
-6.23
-8.21
-10.53
-13.20
-16.18
-19.30
-22.26
-24.67
-26.10
-26.26
-25.07
