1536093195.00
64.000000
-0.00
-0.00
-0.00
-0.00
-0.00
-0.00
-0.00
-0.00
-0.00
-0.00
0.00
0.01
0.01
-0.00
-0.03
-0.05
-0.05
0.00
0.13
0.36
0.66
1.01
1.37
1.72
2.06
2.40
2.79
3.24
3.80
4.43
5.08
5.70
6.27
6.80
7.36
8.01
8.82
9.88
11.10
12.40
13.65
14.80
15.90
17.09
18.55
20.41
22.89
25.80
28.90
31.91
34.70
37.35
40.17
43.57
47.87
53.45
59.97
66.93
73.79
80.24
86.34
92.58
99.63
108.02
118.27
129.93
142.26
154.45
165.98
176.86
187.60
199.43
210.98
224.54
240.87
260.29
281.81
302.63
318.33
324.00
315.95
293.05
257.65
213.79
166.12
118.24
71.87
27.13
-16.53
-59.38
-101.04
-140.25
-176.06
-208.06
-236.34
-261.33
-283.47
-303.14
-320.42
-335.54
-348.86
-361.51
-374.64
-388.80
-403.24
-415.41
-422.08
-420.44
-409.16
-388.65
-360.84
-328.13
-292.76
-256.78
-222.30
-191.64
-166.78
-148.31
-134.66
-122.43
-107.72
-88.13
-64.24
-39.47
-18.65
-5.91
-2.83
-7.95
-17.08
-24.29
-22.98
-7.45
25.35
73.90
131.40
186.95
228.66
247.54
240.22
209.31
161.62
105.38
48.13
-4.07
-46.48
-75.78
-90.79
-93.08
-86.54
-75.47
-62.66
-48.70
-33.55
-19.01
-9.84
-11.61
-26.81
-51.80
-77.45
-93.61
-94.90
-83.77
-68.66
-58.69
-58.07
-64.23
-70.66
-72.08
-68.28
-64.06
-65.63
-75.93
-92.65
-109.41
-119.06
-117.24
-103.77
-81.89
-55.94
-29.30
-3.34
22.36
48.80
76.51
104.89
132.21
156.29
175.29
188.38
195.90
199.06
199.33
197.91
195.33
191.53
186.18
179.02
170.18
160.20
149.83
139.82
130.73
122.77
115.86
109.71
103.97
98.33
92.66
87.00
81.62
76.95
73.45
71.43
70.83
71.18
71.65
71.45
70.09
67.62
64.67
62.09
60.40
59.40
57.90
54.07
46.15
33.18
15.36
-5.79
-27.99
-49.39
-69.04
-87.17
-105.06
-123.21
-142.39
-163.02
-184.86
-206.53
-224.91
-235.06
-231.67
-211.92
-178.65
-138.46
-100.91
-74.53
-63.10
-64.09
-70.36
-73.78
-68.64
-53.15
-28.91
0.58
31.54
60.50
83.86
99.04
105.21
103.70
97.56
90.02
83.10
77.44
72.57
67.90
63.16
58.10
52.16
44.42
34.37
22.06
8.87
-3.14
-11.69
-15.43
-14.31
-9.53
-3.05
3.36
8.51
12.20
14.86
17.11
19.29
21.24
22.39
22.20
20.59
17.76
14.39
11.23
8.73
6.82
5.03
2.75
-0.36
-4.12
-7.90
-10.88
-12.58
-13.12
-13.35
-14.35
-16.99
-21.38
-26.78
-31.87
-35.48
-37.03
-36.85
-36.05
-35.87
-37.33
-41.11
-47.60
-56.65
-66.89
-75.27
-77.39
-69.05
-48.37
-17.41
17.98
50.33
73.47
85.01
86.63
82.45
76.51
71.01
66.06
60.89
55.14
49.49
45.24
43.20
43.10
43.61
43.27
41.03
37.00
32.26
28.23
25.93
25.49
26.22
26.93
26.67
25.16
22.97
21.07
20.34
21.05
22.71
24.37
25.13
24.71
23.63
22.90
23.55
25.98
29.72
33.61
36.53
37.72
37.38
36.36
35.81
36.72
39.84
45.62
53.83
63.09
70.33
71.35
62.38
42.03
12.71
-19.83
-48.57
-68.19
-76.98
-77.02
-72.35
-66.63
-61.57
-56.91
-51.70
-45.62
-39.42
-34.44
-31.55
-30.52
-30.10
-28.82
-25.56
-20.28
-13.93
-7.85
-3.18
-0.37
1.00
1.95
3.56
6.53
10.89
15.93
20.75
24.56
26.95
27.98
28.09
27.74
27.19
26.37
24.77
22.03
17.90
12.40
5.86
-1.15
-8.07
-14.43
-19.50
-23.56
-26.64
-28.84
-30.24
-30.89
-30.84
-30.18
-29.24
-27.97
-26.56
-25.08
-23.61
-22.19
-20.85
-19.56
-18.35
-17.21
-16.08
-15.07
-14.12
-13.26
-12.48
-11.78
-11.17
-10.64
-10.21
-9.83
-9.58
-9.44
-9.40
-9.46
-9.63
-9.87
-10.21
-10.65
-11.16
-11.79
-12.50
-13.31
-14.20
-15.18
-16.19
-17.27
-18.43
-19.70
-21.05
-22.53
-24.11
-25.78
-27.51
-29.16
-30.69
-31.98
-32.87
-33.21
-32.82
-31.57
-29.37
-26.48
-22.64
-17.88
-12.36
-6.25
0.23
6.82
13.32
19.55
25.44
30.97
36.05
40.60
44.49
47.56
49.61
50.35
49.59
47.27
43.48
38.38
32.32
25.77
19.27
13.40
8.48
4.98
3.33
3.78
6.35
10.89
17.08
24.57
33.00
41.70
50.39
58.98
67.33
75.14
82.04
87.46
90.72
91.27
88.18
81.31
70.92
57.42
41.24
23.07
3.25
-17.84
-36.41
-52.41
-65.78
-76.20
-83.40
-87.55
-88.82
-88.18
-86.70
-85.35
-85.00
-85.36
-85.64
-84.93
-83.04
-79.73
-75.90
-72.56
-70.42
-69.87
-70.08
-69.67
-67.48
-65.50
-62.77
-60.10
-58.86
-60.36
-66.03
-76.77
-92.94
-111.08
-129.45
-143.15
-147.04
-137.75
-115.99
-87.10
-58.96
-38.75
-30.05
-32.54
-41.62
-51.95
-59.70
-63.13
-62.18
-57.00
-47.72
-32.74
-11.58
15.18
44.87
74.03
99.99
122.35
141.41
158.93
174.63
184.73
184.07
168.62
138.30
97.71
54.59
17.13
-8.33
-18.36
-12.74
6.62
35.65
68.48
98.45
119.78
129.52
128.58
120.70
110.23
100.29
92.13
85.65
80.42
76.38
74.32
73.77
74.07
74.06
72.74
69.46
64.35
57.93
50.76
43.48
35.28
25.40
13.06
-2.09
-19.69
-38.64
-57.19
-73.63
-86.42
-94.68
-97.90
-96.12
-89.72
-79.30
-65.52
-49.20
-31.32
-13.05
4.19
19.20
30.93
38.71
42.37
42.21
38.99
33.58
26.84
19.59
12.54
6.21
0.87
-3.34
-6.35
-8.10
-8.72
-8.37
-7.26
-5.59
-3.47
-1.10
1.32
3.54
5.41
6.52
6.44
4.79
1.32
-4.09
-11.56
-21.02
-33.07
-46.67
-60.91
-75.03
-88.43
-100.49
-110.53
-118.22
-123.50
-126.47
-127.16
-125.81
-122.73
-118.22
-112.81
-106.22
-98.61
-90.47
-82.49
-75.28
-69.55
-65.88
-64.74
-65.99
-69.00
-73.47
-79.47
-87.17
-96.62
-107.76
-120.40
-134.28
-147.94
-159.56
-168.39
-174.78
-179.66
-183.72
-187.04
-188.97
-188.09
-183.10
-171.44
-152.17
-126.56
-97.20
-66.54
-36.18
-6.84
21.17
51.64
89.09
134.99
187.06
240.92
292.46
339.24
380.40
416.10
451.98
494.96
547.93
608.71
672.10
733.14
788.90
838.50
846.27
790.08
670.89
511.63
343.92
191.98
66.63
-31.59
-107.54
-158.09
-187.28
-195.80
-186.00
-163.63
-136.32
-110.56
-89.54
-72.93
-65.73
-72.98
-91.36
-115.73
-141.39
-165.39
-186.72
-205.48
-222.52
-239.21
-253.88
-262.10
-261.71
-253.50
-239.46
-222.88
-205.74
-188.81
-172.20
-153.93
-130.14
-99.02
-61.12
-18.69
25.52
69.60
112.67
150.24
174.90
183.14
174.48
152.14
121.82
89.53
60.12
35.89
16.99
2.65
-7.38
-13.85
-17.33
-18.19
-16.94
-13.87
-9.50
-3.79
3.76
13.13
21.88
25.13
17.01
-6.59
-45.26
-94.05
-144.72
-188.24
-217.94
-231.65
-231.18
-220.37
-202.81
-178.17
-148.80
-116.98
-85.24
-56.29
-32.38
-14.41
-1.73
7.33
14.77
21.35
27.32
32.22
35.35
36.27
35.21
33.09
31.16
30.47
31.03
32.56
34.37
35.66
35.89
35.08
33.69
32.41
31.88
32.18
33.26
34.86
36.54
37.95
38.85
39.01
38.14
35.88
31.67
25.14
16.24
5.21
-7.19
-19.93
-31.87
-41.98
-49.47
-53.86
-54.90
-52.61
-47.41
-39.99
-31.51
-23.60
-17.95
-16.03
-18.65
-25.56
-35.53
-46.75
-57.03
-64.70
-69.12
-70.52
-69.85
-68.18
-66.04
-62.30
-57.16
-50.62
-42.85
-34.61
-27.08
-21.44
-18.40
-18.31
-21.19
-26.87
-33.72
-38.51
-36.86
-24.78
-1.01
31.74
67.36
98.15
117.54
122.90
115.79
100.39
81.14
60.94
40.96
21.68
4.00
-10.46
-19.53
-21.70
-16.96
-6.81
6.51
20.75
33.40
44.47
54.49
64.09
73.48
82.15
90.80
97.47
100.73
100.13
96.16
89.64
81.39
72.00
61.63
48.06
32.64
16.46
0.49
-14.13
-26.50
-36.00
-42.46
-46.18
-47.78
-47.86
-47.16
-46.23
-45.22
-44.18
-43.08
-41.92
-40.74
-39.62
-38.45
-37.38
-36.50
-35.77
-35.15
-34.61
-34.13
-33.76
-33.53
-33.39
-33.45
-33.88
-34.71
-36.00
-37.68
-39.73
-42.02
-44.29
-46.16
-47.07
-46.69
-44.48
-40.02
-33.10
-23.85
-12.62
-0.04
12.75
25.08
36.22
45.87
53.92
60.42
65.37
68.85
70.90
71.53
71.62
70.80
69.22
67.14
64.60
61.42
57.23
51.63
44.37
35.75
26.40
17.47
10.14
5.20
2.81
2.51
3.50
4.99
6.63
8.35
10.54
13.59
17.62
22.52
27.98
33.53
38.31
41.10
40.12
33.81
21.58
4.35
-15.45
-34.61
-50.24
-60.68
-65.65
-66.00
-63.03
-57.92
-51.83
-46.03
-41.94
-40.62
-42.43
-46.35
-50.65
-53.48
-53.69
-51.28
-47.29
-43.30
-40.70
-40.57
-42.99
-47.56
-53.35
-58.73
-61.58
-58.83
-48.13
-28.75
-2.86
25.80
51.96
70.97
81.97
87.79
91.51
92.39
88.22
73.48
46.35
10.78
-24.34
-48.72
-55.01
-40.72
-9.65
29.21
64.17
86.21
91.65
82.02
61.52
33.81
1.08
-34.84
-71.68
-106.72
-134.43
-147.77
-141.16
-112.93
-67.01
-11.67
44.16
91.48
125.07
145.35
155.79
158.40
151.34
130.28
93.17
45.40
-1.55
-31.64
-31.33
3.45
64.61
135.23
197.22
233.93
248.38
243.98
225.46
194.60
149.66
88.19
10.88
-75.99
-162.14
-231.99
-272.60
-278.81
-256.74
-219.65
-179.94
-143.64
-110.84
-79.41
-47.25
-16.03
10.87
30.34
41.19
44.36
42.29
39.55
39.09
41.58
44.14
42.99
35.51
21.02
0.40
-22.90
-44.86
-63.32
-78.67
-94.51
-116.32
-145.00
-181.86
-227.44
-277.61
-324.07
-356.82
-367.21
-351.10
-310.16
-250.94
-174.18
-90.33
-12.26
50.56
95.43
124.45
140.53
145.42
140.82
128.90
111.73
93.84
79.44
70.50
66.19
64.69
63.29
61.20
59.41
58.89
62.64
73.12
91.03
115.13
142.91
171.14
196.72
216.38
219.75
203.05
169.15
127.06
87.90
60.28
47.05
45.35
49.10
52.75
55.54
59.39
65.58
71.59
71.56
59.50
34.59
2.95
-25.16
-39.89
-38.02
-24.05
-6.92
5.28
8.65
3.94
-6.80
-22.81
-44.42
-71.81
-102.64
-131.57
-150.61
-155.24
-146.00
-127.59
-106.10
-85.98
-69.00
-54.92
-42.99
-32.81
-24.71
-18.97
-15.41
-13.42
-11.96
-10.24
-7.90
-4.99
-1.89
0.77
2.54
3.38
3.60
3.71
4.15
5.11
6.54
8.19
9.58
10.41
10.64
10.47
10.25
10.29
10.72
11.49
12.44
13.27
13.76
13.89
13.79
13.68
13.76
14.07
14.55
15.22
16.02
16.94
18.03
19.36
20.90
22.54
23.96
24.89
24.94
23.76
21.04
16.58
10.24
2.05
-7.68
-18.52
-29.54
-39.68
-47.85
-53.07
-54.70
-52.51
-46.84
-37.80
-26.96
-15.48
-4.30
5.97
15.00
22.68
29.02
33.99
37.55
39.56
40.33
40.32
40.15
40.19
40.59
41.01
40.48
37.83
32.00
23.07
12.07
0.86
-8.45
-14.43
-16.77
-16.63
-16.12
-17.48
-21.84
-28.99
-37.33
-44.12
-48.15
-49.14
-48.22
-47.41
-48.88
-54.07
-63.61
-76.57
-90.20
-100.05
-100.69
-87.38
-58.50
-18.07
26.50
64.53
86.56
88.27
72.34
47.22
23.20
8.12
4.35
9.14
17.00
23.49
26.80
28.12
28.80
28.91
26.72
19.31
4.98
-16.04
-41.03
-67.05
-91.28
-111.43
-125.44
-131.04
-126.43
-110.95
-86.58
-57.70
-30.06
-8.40
5.04
10.92
11.55
9.15
4.95
-1.02
-8.64
-16.96
-23.99
-27.64
-26.67
-21.42
-13.40
-4.34
4.42
12.67
21.11
30.72
41.55
53.41
65.13
74.99
81.46
83.79
82.26
78.14
73.12
68.95
66.16
64.50
63.12
60.96
57.32
52.24
46.49
41.15
37.27
35.32
35.05
35.60
35.95
35.42
34.05
32.55
31.98
33.16
36.25
40.51
44.60
47.19
47.49
45.62
42.54
39.55
37.86
38.34
41.55
47.56
55.55
63.21
66.88
62.60
47.89
23.42
-6.64
-35.92
-58.44
-70.99
-74.03
-70.75
-64.95
-59.16
-53.94
-48.67
-42.71
-36.35
-30.67
-26.75
-24.83
-24.09
-23.15
-20.71
-16.25
-10.23
-3.74
2.05
6.47
9.53
11.93
14.56
18.05
22.44
27.03
30.75
32.52
31.65
28.01
22.07
14.59
6.41
-1.76
-9.18
-15.74
-21.38
-25.96
-29.41
-31.63
-32.65
-32.61
-31.73
-30.52
-29.05
-27.47
-25.89
-24.45
-23.33
-22.70
-22.67
-23.12
-23.77
-24.18
-24.00
-23.08
-21.67
-20.34
-19.73
-20.31
-22.05
-24.43
-26.60
-27.76
-27.60
-26.51
-25.43
-25.49
-27.45
-31.24
-36.02
-40.39
-43.29
-44.22
-43.65
-42.69
-42.50
-44.01
-47.78
-54.10
-62.68
-72.16
-79.65
-81.11
-72.81
-53.25
-24.59
7.74
36.91
57.56
67.74
69.15
65.52
60.35
55.43
50.78
45.74
40.28
35.31
32.13
31.35
32.31
33.35
32.78
29.60
24.27
18.32
13.61
11.40
11.68
13.20
14.15
13.01
9.38
4.13
-0.98
-4.24
-4.79
-3.13
-0.91
0.14
-1.12
-4.63
-9.15
-12.81
-13.68
-10.15
-1.05
13.86
33.34
54.11
71.10
79.13
75.10
59.57
37.89
17.51
4.82
2.46
8.79
19.26
29.28
36.31
40.23
42.38
43.90
44.94
44.74
42.34
37.06
28.78
17.71
4.29
-11.15
-28.37
-46.96
-66.47
-85.70
-104.17
-121.34
-136.70
-150.02
-161.68
-172.84
-184.57
-197.08
-207.80
-212.38
-205.91
-185.78
-152.23
-109.80
-65.66
-26.41
4.37
26.99
44.24
59.37
74.28
88.52
101.24
111.59
119.66
126.04
131.14
134.46
135.12
132.52
126.93
120.14
113.67
109.05
106.89
106.61
106.87
106.15
103.53
99.14
93.96
89.35
86.97
88.21
93.47
101.33
108.12
108.63
98.13
74.69
40.81
3.12
-30.19
-52.70
-62.28
-61.35
-55.00
-48.05
-43.04
-39.82
-36.65
-31.99
-25.67
-18.70
-12.66
-8.76
-7.44
-8.62
-11.59
-15.65
-20.31
-25.64
-31.96
-39.88
-49.82
-61.40
-74.36
-88.16
-102.38
-116.44
-129.04
-137.45
-138.04
-127.91
-105.89
-74.71
-40.18
-9.14
13.43
26.11
31.12
32.21
32.35
32.40
31.32
27.82
21.90
15.31
10.54
9.57
13.14
20.93
31.77
43.59
53.74
59.06
56.80
46.03
28.78
9.72
-5.14
-11.50
-8.62
1.00
13.22
24.55
33.53
40.79
47.42
53.74
58.70
60.69
58.78
53.43
46.06
38.37
31.49
25.40
19.10
11.11
0.27
-13.58
-29.56
-46.21
-61.35
-73.97
-84.11
-91.24
-95.31
-96.43
-94.46
-89.27
-81.01
-70.00
-56.88
-42.23
-26.52
-9.46
7.89
24.88
40.60
53.77
63.03
67.31
66.49
61.16
52.53
41.68
29.58
16.43
1.79
-14.84
-33.72
-54.13
-76.07
-99.03
-121.46
-140.07
-150.43
-148.48
-132.68
-105.35
-72.57
-42.20
-20.55
-10.28
-9.84
-15.17
-22.27
-29.02
-35.19
-41.49
-48.17
-54.15
-57.63
-57.26
-52.31
-43.48
-32.14
-19.59
-6.39
7.53
22.66
39.26
56.43
73.24
88.16
99.63
106.73
109.41
108.36
104.85
100.16
95.31
90.99
87.75
85.00
82.31
79.40
76.08
72.39
68.49
64.70
61.67
59.84
59.24
59.62
60.34
60.53
59.41
56.98
53.28
49.19
45.78
43.67
42.58
41.53
39.13
34.34
26.86
17.48
7.93
0.20
-4.17
-4.07
1.20
11.64
25.91
40.84
51.82
53.62
44.24
25.29
1.95
-18.89
-31.66
-34.37
-28.95
-19.40
-9.44
-0.78
6.55
12.97
18.20
20.87
19.20
12.49
1.62
-11.22
-23.48
-33.05
-39.96
-45.45
-51.24
-58.50
-67.06
-75.37
-81.19
-82.61
-79.26
-72.71
-65.74
-61.23
-60.91
-64.46
-69.88
-74.35
-75.21
-71.54
-64.80
-58.11
-54.95
-57.95
-67.38
-80.87
-93.75
-100.39
-96.01
-78.22
-48.40
-11.96
22.42
45.10
48.42
29.66
-7.52
-53.66
-96.37
-124.48
-131.79
-118.90
-92.15
-60.63
-32.45
-12.44
-1.76
0.96
-2.41
-10.05
-20.45
-31.49
-40.28
-43.44
-38.47
-25.26
-6.31
14.25
32.56
46.74
57.48
66.82
77.57
90.93
105.57
118.21
125.34
124.89
117.36
105.67
94.06
85.73
82.45
84.26
89.57
95.19
96.46
88.09
66.25
31.23
-10.98
-49.67
-73.48
-75.46
-56.43
-24.60
8.55
33.74
47.44
51.90
52.17
52.17
52.67
52.00
48.40
42.09
35.51
31.99
32.94
37.32
41.99
43.34
39.04
29.39
17.10
6.14
-0.27
-1.09
2.30
6.90
9.64
8.71
4.46
-1.16
-5.53
-6.81
-4.12
2.59
12.75
24.95
36.64
44.15
42.75
30.49
8.26
-19.63
-46.81
-67.44
-78.31
-79.62
-73.98
-64.77
-54.43
-44.46
-35.48
-28.01
-23.08
-21.89
-25.01
-31.31
-37.76
-39.73
-32.99
-15.92
8.80
34.44
52.79
57.66
49.09
32.17
14.83
3.20
-1.36
-2.58
-6.31
-16.52
-32.69
-50.09
-62.77
-66.17
-60.50
-49.27
-37.17
-27.48
-20.77
-15.68
-10.27
-3.60
3.75
10.16
14.18
15.12
13.61
11.17
9.38
9.32
11.03
13.74
16.33
18.01
18.54
18.22
17.67
17.34
17.53
18.20
19.33
20.79
22.68
25.00
27.44
29.30
29.58
27.42
22.43
14.91
5.68
-4.39
-14.59
-24.78
-34.90
-45.44
-56.58
-68.43
-81.02
-94.05
-106.19
-114.68
-116.07
-106.77
-85.83
-55.81
-22.46
7.38
28.46
39.13
41.33
38.95
35.63
32.99
30.86
28.35
25.09
21.78
19.65
19.50
21.07
23.26
24.62
24.12
21.75
18.38
15.24
13.39
13.21
14.31
15.84
16.84
16.75
15.61
13.95
12.46
11.69
11.76
12.48
13.45
14.32
14.95
15.43
15.96
16.66
17.51
18.35
19.06
19.70
20.45
21.62
23.42
25.84
28.57
31.18
33.29
34.78
35.80
36.77
38.15
40.44
43.99
48.92
54.74
60.17
63.34
62.38
56.26
45.36
31.43
16.88
3.84
-6.57
-14.42
-20.53
-25.94
-31.38
-37.04
-42.92
-49.02
-55.54
-62.70
-70.58
-78.77
-86.54
-92.93
-97.02
-98.38
-97.45
-95.45
-93.90
-94.37
-96.62
-99.47
-101.11
-100.00
-95.46
-88.12
-79.59
-71.88
-66.80
-65.67
-69.32
-77.70
-89.17
-100.09
-105.28
-99.56
-80.07
-47.97
-8.53
30.58
62.28
82.78
92.55
95.10
94.84
94.85
96.14
98.31
100.38
101.73
102.44
103.08
104.18
105.91
108.04
109.81
110.73
110.55
109.84
110.06
112.85
118.16
123.31
122.88
110.82
83.56
41.62
-10.31
-65.17
-116.04
-157.90
-187.38
-201.40
-196.16
-167.62
-115.51
-46.08
27.85
90.46
128.58
136.77
118.92
83.39
44.08
13.74
-0.83
0.06
11.70
28.78
48.11
68.54
89.14
108.86
124.96
134.90
137.79
135.24
130.30
126.10
124.81
125.41
125.62
121.92
112.07
96.34
77.30
58.20
41.49
27.75
15.20
1.32
-17.38
-42.49
-73.26
-107.19
-142.34
-178.49
-213.18
-246.27
-278.73
-313.45
-352.03
-393.65
-434.66
-469.84
-492.69
-497.53
-481.99
-438.16
-369.26
-286.83
-205.73
-136.91
-84.80
-46.88
-21.22
-3.07
10.98
22.57
35.31
54.84
87.16
135.35
199.87
277.16
359.44
435.10
490.00
512.68
498.14
458.30
402.65
340.47
279.65
225.69
180.77
142.53
109.18
81.98
63.53
54.74
55.75
64.88
78.98
94.29
107.78
118.50
127.63
136.37
143.68
148.34
149.05
145.14
136.72
124.87
111.59
98.99
89.82
85.15
85.71
91.68
102.91
118.64
137.85
159.24
181.24
201.89
218.44
228.26
229.07
219.56
199.97
172.32
139.96
106.21
72.91
39.51
4.17
-34.62
-76.42
-118.18
-154.96
-181.83
-195.72
-196.49
-186.67
-170.06
-150.32
-130.15
-111.21
-94.58
-81.16
-71.92
-67.80
-69.68
-77.97
-92.40
-112.12
-135.73
-161.86
-189.15
-216.73
-244.10
-271.15
-298.15
-326.07
-356.66
-392.01
-433.16
-478.23
-521.19
-552.30
-560.99
-539.80
-487.84
-411.40
-321.36
-229.66
-145.33
-72.42
-10.63
42.76
90.77
136.02
181.05
228.63
280.23
334.37
386.13
428.40
454.53
460.84
447.73
419.52
382.97
343.86
305.48
269.26
235.71
204.99
176.77
148.75
118.00
83.75
45.64
4.11
-38.19
-77.66
-111.30
-138.51
-163.81
-192.54
-225.56
-264.19
-310.87
-365.96
-427.20
-489.12
-542.99
-582.49
-602.32
-595.86
-567.05
-530.11
-499.33
-483.09
-480.87
-485.03
-491.09
-496.00
-491.96
-478.04
-459.29
-438.62
-416.77
-394.35
-341.29
-247.08
-165.13
-118.11
-94.75
-88.00
-89.99
-93.51
-93.31
-86.48
-77.64
-71.19
-61.59
-45.86
-25.55
-1.25
26.84
58.24
91.92
122.44
145.71
166.12
186.73
207.27
228.12
249.75
272.18
294.73
313.42
324.63
329.75
329.19
321.42
305.82
282.59
252.67
217.51
177.60
134.04
90.24
48.73
10.33
-24.44
-55.43
-82.65
-106.31
-127.11
-145.46
-160.72
-172.28
-179.85
-183.01
-181.22
-174.04
-161.22
-142.92
-119.60
-92.11
-61.65
-29.65
2.51
33.57
62.53
88.56
111.05
129.64
144.14
154.69
161.79
166.32
169.43
172.35
176.07
181.11
187.47
194.71
202.23
209.68
217.15
225.19
234.58
245.91
259.28
274.14
289.39
303.73
316.23
326.54
335.10
343.00
351.73
362.84
377.50
395.82
416.35
435.73
449.13
451.35
438.72
410.44
369.04
319.32
266.37
213.86
163.40
115.12
69.03
26.05
-12.08
-43.73
-68.45
-87.21
-101.71
-113.24
-122.10
-127.90
-130.57
-131.48
-133.27
-138.63
-148.45
-160.70
-170.87
-174.11
-167.64
-152.23
-131.81
-111.54
-95.46
-85.22
-80.17
-78.56
-78.76
-79.52
-79.52
-76.88
-69.63
-57.33
-42.91
-32.95
-35.61
-56.74
-96.11
-146.00
-193.36
-224.77
-232.18
-216.07
-184.39
-148.14
-115.85
-90.07
-67.60
-42.87
-11.89
25.79
67.75
111.06
153.93
195.53
234.09
265.53
284.17
285.45
268.93
239.18
204.07
171.43
146.29
130.46
123.69
125.55
135.90
154.00
177.16
200.65
219.05
228.49
228.31
220.80
209.56
197.82
187.41
178.98
172.62
167.86
163.28
156.12
142.59
118.88
82.71
34.34
-23.35
-85.73
-148.02
-206.39
-258.03
-300.64
-331.58
-348.11
-348.39
-333.02
-305.60
-271.81
-237.40
-206.29
-180.12
-159.33
-145.00
-139.89
-147.68
-170.35
-205.62
-246.13
-281.27
-300.94
-299.19
-275.78
-235.28
-184.43
-129.24
-73.21
-16.97
40.55
100.12
160.44
217.28
264.46
295.86
307.86
300.86
279.03
248.53
215.15
182.69
152.92
127.02
107.11
96.75
99.74
117.70
148.33
185.28
220.33
246.68
261.79
267.98
271.00
276.74
288.03
303.11
316.36
321.14
312.52
289.25
253.59
209.48
160.39
107.87
52.28
-5.20
-60.27
-104.80
-128.67
-123.70
-87.77
-26.97
45.67
114.51
166.83
196.51
204.63
196.84
179.43
156.30
128.22
94.15
53.54
7.87
-39.43
-84.19
-123.06
-154.48
-178.61
-196.33
-208.41
-214.96
-215.66
-210.31
-199.50
-184.67
-167.88
-151.37
-136.99
-126.00
-119.06
-116.52
-118.79
-126.84
-142.11
-165.91
-197.91
-234.71
-269.38
-292.84
-296.64
-276.12
-232.61
-173.38
-109.29
-51.10
-6.12
23.08
37.61
39.79
30.90
10.72
-20.97
-62.22
-107.98
-151.22
-185.73
-208.86
-222.24
-230.10
-236.28
-241.94
-245.48
-244.39
-237.36
-225.21
-209.96
-193.16
-174.83
-153.85
-129.22
-101.57
-73.53
-48.78
-30.67
-20.97
-19.40
-23.85
-31.40
-39.67
-47.97
-57.58
-71.04
-90.58
-116.79
-148.47
-183.15
-218.30
-251.70
-281.24
-304.36
-318.03
-319.93
-309.68
-289.74
-264.56
-238.78
-215.24
-194.15
-173.67
-151.27
-125.11
-94.31
-58.83
-19.17
23.61
67.63
110.10
147.71
177.63
198.15
209.06
211.24
205.90
194.03
176.24
153.13
125.68
95.80
66.23
40.20
20.57
9.02
5.71
9.31
17.65
28.61
40.87
54.20
69.44
88.07
111.79
141.79
177.77
217.11
254.48
282.94
296.05
290.33
267.12
232.48
195.21
163.81
143.80
136.60
140.21
150.95
165.23
180.61
195.75
210.00
222.84
233.40
240.45
242.56
238.49
227.93
211.96
192.79
173.07
154.77
138.48
123.38
108.07
91.42
73.25
54.36
35.79
18.20
1.62
-14.47
-30.56
-46.65
-62.09
-75.83
-86.66
-93.55
-95.83
-93.27
-86.37
-76.15
-63.98
-50.96
-37.52
-23.27
-7.52
10.12
29.19
48.25
65.43
79.23
89.11
95.74
100.37
104.15
107.54
110.24
111.65
111.36
109.40
106.21
102.36
98.36
94.59
91.25
88.37
85.71
82.70
78.43
71.88
62.36
49.72
34.60
18.15
1.64
-14.03
-28.60
-42.24
-55.13
-67.15
-77.87
-86.88
-94.11
-99.98
-105.16
-110.17
-115.05
-119.33
-122.59
-124.77
-126.24
-127.40
-128.19
-127.89
-125.51
-120.42
-112.88
-103.92
-94.81
-86.37
-78.61
-70.90
-62.34
-52.24
-40.37
-26.97
-12.78
1.03
13.04
22.08
27.77
30.95
33.54
37.58
44.36
53.81
64.76
75.67
85.45
93.70
100.48
105.62
108.51
108.12
103.60
94.82
82.46
67.72
51.75
35.37
18.95
2.80
-12.65
-26.84
-39.19
-49.31
-57.21
-63.21
-67.84
-71.70
-75.23
-78.53
-81.35
-83.12
-83.30
-81.60
-78.35
-74.39
-71.05
-69.58
-70.82
-74.95
-81.46
-89.53
-98.34
-107.42
-116.66
-126.31
-136.48
-146.79
-156.21
-163.02
-165.32
-161.80
-152.37
-138.43
-122.76
-108.58
-98.38
-92.66
-89.44
-84.81
-74.39
-55.01
-25.95
10.74
51.21
91.12
127.28
158.59
186.04
211.91
238.53
267.15
297.14
325.95
349.64
363.77
364.67
350.62
322.65
284.74
243.15
204.86
175.69
158.38
151.39
149.62
146.59
137.18
120.01
98.12
77.65
65.02
63.97
73.98
90.68
107.90
120.02
123.41
116.59
99.26
71.34
32.49
-17.27
-76.54
-141.88
-208.11
-269.50
-321.13
-360.25
-386.31
-400.54
-405.06
-402.13
-393.99
-383.23
-373.16
-367.76
-370.63
-383.10
-402.67
-423.04
-436.10
-435.14
-417.75
-386.87
-349.20
-312.29
-281.44
-258.25
-241.23
-227.60
-214.97
-201.90
-187.55
-171.01
-150.99
-126.24
-96.16
-61.21
-22.82
16.87
55.91
92.99
127.84
161.36
195.21
230.95
268.96
307.52
342.77
369.89
384.73
385.11
371.12
344.46
307.33
261.62
209.11
152.43
95.76
44.54
3.89
-23.49
-38.58
-45.58
-49.93
-56.00
-65.53
-77.45
-88.90
-96.37
-96.88
-88.55
-70.83
-44.45
-11.29
25.89
63.86
99.38
129.75
153.02
168.00
174.38
172.75
164.39
150.92
133.49
112.33
87.01
57.07
23.03
-13.59
-50.58
-85.76
-117.09
-142.15
-157.74
-159.84
-144.72
-110.23
-57.03
11.05
87.67
164.88
234.24
287.91
319.79
326.96
310.69
276.50
232.57
187.40
147.33
115.35
91.53
74.33
61.62
51.57
42.83
34.60
26.84
20.22
15.69
13.96
15.03
18.16
22.35
27.22
33.30
41.62
52.78
66.28
80.71
94.21
105.06
111.60
111.94
104.19
87.62
63.76
36.59
11.22
-8.76
-23.21
-35.64
-51.64
-75.77
-109.52
-151.24
-197.97
-247.49
-299.18
-353.01
-407.55
-458.54
-499.08
-521.45
-519.73
-492.00
-440.99
-373.21
-296.70
-218.54
-143.32
-73.00
-8.04
51.30
104.26
150.04
188.60
221.06
249.16
273.95
294.84
309.90
317.02
315.29
305.30
288.22
264.09
230.99
186.24
128.94
63.01
-1.72
-51.82
-74.98
-65.43
-27.29
26.19
77.17
109.34
113.00
87.02
37.33
-26.50
-94.90
-160.66
-219.32
-268.90
-309.09
-340.99
-366.83
-389.51
-411.58
-434.25
-456.30
-474.09
-482.79
-478.16
-458.45
-425.47
-384.06
-340.24
-298.89
-262.15
-229.10
-197.27
-164.24
-128.85
-91.42
-53.01
-14.67
22.93
59.18
93.33
124.32
151.30
174.19
194.15
213.57
235.45
262.51
296.31
336.57
380.91
425.26
464.63
494.43
511.77
516.20
509.65
495.65
477.83
458.71
439.07
418.13
394.46
366.90
335.19
299.93
262.24
223.18
183.68
144.68
107.21
72.31
40.86
13.18
-11.08
-32.88
-53.47
-74.15
-96.03
-119.95
-146.51
-175.97
-208.09
-242.01
-276.35
-309.44
-339.61
-365.04
-383.68
-393.10
-391.14
-377.01
-352.25
-320.92
-288.49
-260.11
-238.87
-224.88
-215.54
-206.85
-194.65
-175.65
-147.88
-111.11
-67.18
-20.04
25.00
63.18
92.30
113.79
131.63
149.67
169.02
187.20
199.99
204.54
201.87
196.78
195.50
202.44
217.79
237.52
255.41
265.73
265.18
253.56
233.34
208.45
183.06
160.21
140.99
124.45
108.58
91.94
74.92
59.43
47.50
39.75
34.87
30.81
26.24
21.39
17.72
16.08
15.16
11.28
-0.16
-22.65
-57.10
-102.38
-155.61
-212.43
-266.74
-310.79
-336.42
-337.49
-312.33
-264.56
-202.43
-135.41
-70.99
-13.10
37.26
80.36
115.92
142.39
157.43
157.65
140.04
102.87
46.77
-25.03
-106.75
-191.38
-272.28
-337.12
-374.15
-375.14
-338.85
-271.74
-185.16
-90.76
2.22
87.51
161.38
221.18
265.66
294.97
311.90
319.61
320.72
317.00
309.26
297.64
281.50
260.41
234.73
205.80
175.41
145.07
115.28
87.02
60.51
35.31
11.11
-11.83
-32.64
-50.32
-64.40
-75.26
-84.30
-93.49
-104.69
-118.82
-135.61
-153.84
-172.05
-189.17
-204.91
-219.81
-235.30
-253.35
-276.09
-304.89
-339.22
-375.62
-407.62
-427.20
-427.55
-406.03
-365.30
-312.51
-256.52
-204.72
-161.04
-125.87
-97.57
-74.38
-55.59
-41.17
-30.89
-23.43
-16.48
-7.55
4.90
20.80
38.53
55.55
69.61
79.53
85.61
89.31
92.49
96.42
101.25
105.89
108.52
107.72
103.08
95.64
87.78
82.34
81.93
88.47
103.06
126.01
156.57
192.33
228.99
261.04
283.37
293.09
290.61
279.08
262.25
242.14
217.71
185.51
141.90
85.45
18.23
-54.81
-127.52
-194.54
-252.43
-299.64
-335.79
-361.15
-376.58
-383.63
-384.49
-381.42
-375.67
-366.73
-352.35
-329.73
-297.07
-254.92
-206.40
-156.31
-109.53
-69.80
-39.11
-18.17
-7.17
-6.15
-14.86
-32.29
-56.19
-83.06
-108.68
-128.71
-139.48
-138.49
-124.55
-97.26
-56.59
-2.59
64.57
144.18
234.51
332.45
433.70
533.34
626.34
707.60
771.68
813.09
827.52
813.67
774.58
717.22
650.24
580.76
512.00
443.09
371.10
293.90
212.61
131.97
58.65
-1.29
-44.80
-72.77
-89.49
-100.94
-113.18
-131.04
-157.17
-191.73
-232.15
-273.21
-307.75
-328.04
-328.08
-306.00
-265.21
-213.37
-159.84
-112.42
-75.34
-48.99
-31.35
-19.59
-11.23
-4.27
2.82
10.73
18.86
25.09
26.43
20.52
6.80
-12.87
-34.74
-54.33
-67.61
-71.76
-65.67
-50.02
-27.16
-0.61
25.85
49.32
68.51
83.67
95.91
106.18
114.56
120.42
122.86
121.43
116.41
108.79
99.88
90.97
82.98
76.15
70.11
63.94
56.67
47.72
37.25
26.12
15.41
6.13
-1.03
-5.54
-6.62
-3.20
5.69
20.31
39.56
61.09
82.08
100.52
115.92
129.59
143.80
160.62
180.89
203.78
227.00
247.48
262.27
269.48
268.91
262.35
253.26
245.90
243.96
249.19
260.69
275.00
287.13
292.09
286.14
267.43
235.99
193.22
141.34
83.14
21.76
-39.47
-97.42
-149.75
-195.28
-234.21
-267.70
-297.21
-323.61
-346.73
-365.53
-378.63
-385.20
-385.60
-381.56
-375.68
-370.56
-367.85
-367.91
-370.05
-373.08
-376.23
-379.54
-383.96
-391.05
-402.68
-420.80
-446.76
-480.46
-519.23
-557.42
-587.38
-601.84
-596.81
-573.46
-537.89
-498.71
-463.71
-437.06
-418.64
-405.18
-392.41
-376.90
-356.66
-330.84
-299.08
-261.26
-217.83
-170.36
-121.50
-74.57
-32.75
1.88
28.79
49.10
65.12
79.63
95.21
113.80
136.53
163.91
196.09
233.18
275.33
322.45
373.64
426.59
477.54
521.85
555.19
574.76
580.07
572.79
556.08
533.30
507.21
479.49
450.91
421.86
392.70
364.01
336.36
309.98
284.56
259.20
233.00
205.36
176.69
148.23
121.52
97.56
76.32
56.81
37.85
19.03
1.03
-14.57
-26.29
-33.61
-37.30
-38.92
-40.01
-41.29
-42.39
-42.39
-40.49
-36.62
-31.53
-26.43
-22.54
-20.69
-21.23
-24.07
-28.83
-34.85
-41.32
-47.33
-52.08
-55.10
-56.43
-56.59
-56.34
-56.53
-57.86
-60.76
-65.35
-71.46
-78.64
-86.20
-93.37
-99.44
-104.02
-107.15
-109.17
-110.62
-111.98
-113.48
-115.15
-116.80
-118.17
-119.01
-119.11
-118.31
-116.53
-113.69
-109.71
-104.52
-97.99
-89.91
-80.06
-68.28
-54.63
-39.47
-23.50
-7.66
7.02
19.67
29.86
37.63
43.37
47.53
50.40
51.94
51.99
50.39
47.27
43.02
38.17
33.18
28.29
23.55
18.93
14.48
10.27
6.40
2.90
-0.34
-3.38
-6.28
-8.98
-11.41
-13.45
-15.06
-16.27
-17.16
-17.86
-18.36
-18.48
-17.79
-15.69
-11.68
-5.56
2.23
10.81
19.22
26.80
33.56
40.02
46.81
54.24
62.15
70.03
77.46
84.39
91.06
97.75
104.44
110.63
115.48
118.10
117.83
114.28
107.29
96.96
83.62
68.01
51.31
34.86
19.95
7.27
-3.21
-12.25
-21.00
-30.68
-42.22
-56.17
-72.51
-90.62
-109.21
-126.49
-140.47
-149.37
-152.17
-148.73
-139.96
-127.39
-112.82
-97.88
-83.77
-71.14
-60.21
-50.85
-42.75
-35.59
-29.24
-23.68
-18.96
-14.95
-11.25
-7.27
-2.43
3.46
10.10
16.87
23.19
28.88
34.28
39.99
46.34
53.09
59.26
63.73
65.68
65.08
62.65
59.44
56.16
52.84
48.81
43.11
35.10
24.70
12.28
-1.72
-16.94
-32.94
-48.68
-62.17
-70.84
-72.40
-66.10
-53.30
-37.04
-20.78
-6.88
4.07
12.97
20.96
28.57
35.37
40.69
44.48
47.70
51.99
58.64
67.83
78.36
88.28
95.63
99.36
99.53
96.94
92.80
88.30
84.44
82.02
81.69
83.70
87.97
93.94
100.59
106.68
110.66
110.82
105.44
93.21
73.58
47.14
15.72
-18.12
-51.60
-82.44
-109.10
-130.76
-147.00
-157.74
-163.10
-163.55
-159.97
-153.58
-145.66
-137.31
-129.09
-121.28
-113.91
-107.14
-101.29
-96.83
-94.01
-92.62
-91.86
-90.36
-86.63
-79.42
-67.99
-52.08
-31.89
-7.94
18.86
47.04
74.66
99.50
119.61
133.93
142.48
146.38
147.33
147.09
146.93
147.46
148.60
149.80
150.28
149.33
146.57
142.20
136.98
131.85
127.40
123.48
119.12
113.01
104.07
92.01
77.42
61.37
44.78
27.94
10.68
-7.27
-25.70
-43.67
-59.64
-72.10
-80.02
-83.02
-81.08
-74.14
-62.11
-45.51
-26.38
-8.77
1.97
0.84
-14.52
-42.46
-77.61
-112.75
-141.41
-159.74
-167.08
-165.29
-157.73
-148.39
-141.47
-140.73
-148.77
-165.92
-189.70
-215.09
-235.84
-246.42
-243.42
-226.55
-198.28
-163.03
-125.99
-91.71
-62.98
-40.04
-20.70
-1.21
22.12
51.49
87.02
127.12
169.65
213.27
258.14
305.64
357.39
413.79
473.04
531.02
582.18
621.01
643.43
647.51
633.44
602.90
558.40
502.95
440.08
373.71
307.90
246.03
190.10
140.39
95.78
54.40
14.55
-24.82
-64.07
-103.10
-141.71
-179.87
-217.66
-255.07
-291.78
-326.79
-358.25
-383.69
-400.71
-407.90
-405.61
-396.28
-383.27
-369.62
-356.78
-344.21
-329.99
-312.05
-289.39
-262.27
-232.06
-200.41
-168.62
-137.43
-106.96
-77.03
-47.50
-18.67
8.61
32.94
52.76
66.94
75.33
78.87
79.22
77.96
75.99
73.36
69.68
64.94
59.93
56.24
55.46
57.97
62.26
65.05
62.68
52.89
36.17
15.69
-4.35
-21.04
-34.42
-47.55
-64.78
-89.40
-121.81
-159.39
-197.76
-232.68
-261.45
-283.25
-298.51
-307.93
-311.84
-310.01
-302.13
-288.53
-270.78
-251.46
-233.42
-218.65
-207.30
-197.80
-187.70
-174.97
-158.97
-140.54
-121.11
-101.59
-81.66
-59.86
-34.76
-5.95
25.11
55.36
81.12
99.41
108.93
110.27
105.15
95.28
81.66
64.51
44.50
23.96
7.10
-1.29
1.98
16.49
38.01
60.60
79.59
93.63
104.63
115.50
127.61
139.79
149.25
153.67
152.60
147.32
139.24
128.60
114.31
95.42
72.56
48.19
25.09
4.40
-15.16
-36.16
-59.82
-83.91
-102.91
-110.34
-101.95
-77.98
-42.97
-3.43
34.72
68.07
95.78
118.38
136.71
151.47
163.21
172.37
178.95
182.09
180.18
171.62
155.91
134.62
111.07
89.20
71.85
59.92
52.56
48.48
47.20
49.42
56.55
69.59
88.42
111.76
137.60
163.33
186.13
202.94
210.65
207.11
191.76
165.99
132.89
95.91
57.74
19.84
-17.08
-52.22
-84.09
-110.94
-131.70
-146.77
-158.09
-168.30
-179.26
-191.05
-201.89
-209.05
-210.39
-205.45
-195.50
-182.71
-169.09
-155.64
-142.01
-126.68
-107.30
-81.32
-46.48
-1.45
53.67
116.95
184.48
250.72
309.53
355.38
384.38
394.92
387.61
364.78
329.91
287.04
239.98
191.99
145.69
103.39
67.42
39.86
21.69
11.87
6.98
1.85
-8.63
-27.47
-54.07
-84.42
-112.85
-134.58
-147.72
-153.84
-156.73
-160.34
-166.91
-176.16
-185.78
-192.84
-195.02
-191.57
-183.43
-172.76
-162.10
-153.48
-147.80
-144.49
-142.09
-138.81
-133.55
-126.31
-117.84
-108.70
-98.59
-86.33
-70.59
-51.18
-29.59
-8.68
8.45
19.90
25.69
27.52
27.93
29.36
33.60
41.95
55.38
74.62
99.78
129.83
162.28
193.52
219.64
237.29
244.41
240.37
225.64
201.54
169.91
133.06
93.82
55.44
20.99
-7.07
-27.45
-40.24
-46.80
-49.58
-51.87
-57.28
-69.01
-88.93
-117.10
-151.74
-190.00
-228.92
-266.15
-300.02
-329.26
-352.83
-370.06
-380.60
-384.28
-380.51
-367.89
-344.56
-308.97
-260.96
-202.39
-136.77
-68.17
-0.27
63.94
122.05
171.72
211.11
239.74
259.32
273.71
287.47
303.83
322.91
341.60
354.83
357.67
347.15
322.94
286.80
241.52
189.78
133.81
75.26
15.42
-44.79
-104.80
-164.16
-222.21
-277.70
-328.63
-372.63
-407.57
-432.14
-446.31
-451.25
-448.98
-441.97
-432.66
-423.15
-414.76
-407.82
-401.48
-393.99
-383.18
-367.02
-344.18
-314.47
-279.11
-240.80
-203.49
-171.69
-149.17
-137.83
-136.78
-142.57
-150.09
-154.28
-151.52
-140.38
-121.41
-96.16
-66.26
-32.56
4.90
46.71
93.48
145.35
201.96
262.36
325.16
388.60
450.52
508.19
558.81
600.28
632.21
656.48
676.64
696.52
718.07
739.76
756.38
760.76
746.49
710.36
653.24
578.77
491.08
392.95
285.69
170.58
50.93
-67.21
-176.35
-270.38
-347.15
-409.28
-462.38
-511.42
-557.68
-597.51
-623.93
-629.98
-611.83
-570.52
-511.38
-442.13
-370.82
-304.47
-248.46
-206.25
-179.06
-165.50
-161.64
-161.67
-159.43
-150.11
-131.45
-103.78
-69.09
-29.80
11.98
54.35
95.39
132.95
165.11
190.76
210.21
225.05
237.40
248.95
260.00
269.41
275.09
275.28
269.44
258.93
246.80
237.06
233.74
239.73
255.67
279.11
304.45
323.80
329.15
314.75
279.31
226.95
166.10
106.89
58.36
26.35
12.56
14.96
28.79
48.19
67.93
84.79
98.03
108.89
119.19
129.81
140.20
149.19
156.33
162.87
170.95
181.63
193.12
200.47
197.74
181.05
151.04
112.56
72.13
34.64
1.58
-28.25
-56.80
-84.72
-111.05
-134.54
-155.07
-173.92
-192.84
-212.37
-231.16
-246.49
-255.82
-257.85
-252.66
-240.85
-222.68
-198.18
-168.23
-135.47
-104.16
-78.77
-62.00
-53.60
-50.82
-50.04
-48.53
-45.32
-40.95
-36.63
-33.64
-32.84
-34.71
-39.14
-45.12
-50.73
-53.41
-50.90
-42.17
-27.96
-10.52
7.15
22.31
33.40
40.33
44.24
46.68
48.51
49.28
47.26
40.32
27.16
8.40
-13.66
-36.43
-58.72
-81.84
-108.65
-141.33
-178.94
-216.72
-247.66
-265.72
-268.48
-257.96
-238.99
-216.27
-191.94
-164.77
-131.50
-89.26
-37.85
19.62
77.80
130.93
174.91
208.07
231.17
246.59
257.60
267.72
280.16
296.92
317.91
340.57
360.37
372.39
373.59
364.37
348.38
330.90
316.34
306.45
300.18
294.88
287.86
277.66
263.84
245.96
222.63
191.95
152.58
104.95
51.65
-3.37
-55.48
-101.03
-138.52
-168.88
-194.35
-216.78
-236.60
-252.65
-263.43
-267.26
-263.50
-253.23
-239.23
-224.89
-212.94
-205.53
-204.26
-210.38
-222.91
-237.88
-248.92
-249.24
-234.25
-202.98
-159.27
-108.10
-59.73
-24.73
-8.84
-10.01
-24.03
-47.00
-74.46
-101.17
-121.05
-128.19
-117.18
-84.91
-32.47
35.61
107.29
167.84
206.35
221.07
219.02
211.37
206.98
208.72
215.71
222.86
227.13
228.64
228.98
229.02
228.01
224.12
215.42
199.79
177.12
149.41
119.40
88.44
55.12
15.30
-36.41
-103.97
-187.34
-281.13
-373.73
-450.36
-498.44
-512.47
-496.27
-460.94
-419.74
-383.24
-356.71
-338.92
-324.15
-306.28
-280.99
-246.61
-203.42
-152.90
-98.88
-48.30
-8.60
16.28
27.74
33.30
43.36
66.65
106.02
158.52
211.03
246.44
253.64
232.32
191.73
143.92
95.20
48.46
6.13
-29.08
-53.76
-62.18
-53.96
-31.25
-1.42
28.11
54.25
78.45
103.27
129.93
160.44
193.79
226.58
253.46
268.81
265.37
238.60
186.43
107.82
9.19
-98.10
-199.49
-280.39
-329.46
-341.47
-318.76
-271.36
-213.71
-158.96
-116.68
-90.80
-80.38
-81.94
-91.95
-107.85
-128.02
-151.61
-174.82
-193.17
-203.13
-203.27
-194.56
-179.52
-161.05
-141.36
-121.61
-101.09
-78.98
-55.22
-30.74
-7.40
12.61
27.96
38.71
43.36
42.97
39.58
35.41
32.26
31.03
31.67
34.01
37.71
42.51
48.81
57.52
69.81
86.80
108.92
135.65
166.11
198.63
231.06
260.99
287.09
308.90
326.67
340.33
349.15
352.84
350.75
342.28
326.56
304.55
278.54
251.67
226.87
206.78
195.03
193.85
202.76
216.34
227.58
229.42
217.80
193.07
152.38
100.13
44.27
2.76
-19.58
-25.13
-23.14
-20.61
-22.36
-30.84
-45.47
-65.28
-89.82
-121.00
-159.34
-203.11
-246.96
-283.23
-303.81
-302.34
-277.94
-235.58
-184.78
-133.48
-85.57
-41.10
0.12
35.62
60.63
69.99
62.33
42.00
19.47
6.21
9.03
26.15
48.10
62.66
60.61
39.62
3.77
-39.04
-81.72
-120.71
-155.63
-186.34
-209.46
-217.72
-202.87
-160.86
-95.99
-21.86
42.74
80.72
83.19
52.04
-2.09
-65.20
-125.06
-173.88
-207.91
-225.72
-226.76
-211.30
-181.27
-141.37
-98.81
-60.98
-32.83
-14.77
-2.79
9.33
26.60
50.35
77.98
104.63
126.01
140.05
147.07
148.69
146.75
143.00
139.84
140.81
149.91
169.40
197.43
227.15
248.68
252.94
235.53
198.30
148.19
93.93
42.83
-0.87
-35.29
-59.32
-71.25
-68.75
-50.32
-17.16
26.01
71.93
112.88
143.14
160.66
166.88
165.51
160.53
154.79
149.38
144.12
138.39
131.64
123.64
114.19
102.98
89.58
73.71
55.60
36.06
16.26
-2.79
-20.66
-37.58
-54.33
-71.93
-91.13
-111.99
-133.75
-155.03
-174.33
-190.63
-203.81
-214.77
-224.96
-235.53
-246.49
-256.61
-263.85
-266.42
-263.59
-256.08
-245.58
-233.99
-223.00
-214.03
-208.36
-206.89
-209.55
-214.38
-217.56
-214.33
-201.22
-177.95
-148.16
-118.00
-93.58
-78.12
-70.66
-66.75
-60.58
-47.39
-25.18
5.27
41.62
81.12
121.23
159.71
194.36
223.19
245.28
260.90
271.44
278.21
281.18
278.38
266.90
244.90
213.71
178.47
146.50
124.64
116.67
122.13
137.15
156.08
172.93
182.25
179.65
162.61
131.76
91.31
48.23
9.90
-18.80
-37.32
-49.12
-59.41
-72.47
-90.08
-111.88
-137.13
-165.75
-198.15
-233.91
-270.59
-303.90
-329.63
-345.82
-353.53
-355.51
-353.79
-347.71
-333.87
-307.75
-266.70
-211.95
-148.96
-85.78
-30.60
10.59
34.96
42.54
35.25
16.15
-11.02
-42.12
-72.75
-98.90
-117.88
-129.16
-134.56
-137.57
-141.87
-150.18
-163.60
-181.98
-204.44
-229.78
-256.09
-280.37
-298.43
-305.57
-298.00
-274.14
-234.97
-183.49
-123.78
-60.19
2.98
61.60
112.10
152.28
181.83
202.51
217.08
227.99
236.32
241.60
242.66
238.78
230.28
218.29
203.98
187.90
170.13
150.92
131.50
114.17
101.76
96.62
99.64
109.99
125.32
142.48
158.50
171.23
179.66
183.68
183.67
179.87
172.31
160.93
146.05
128.62
110.10
92.00
75.28
60.26
46.68
34.27
22.78
11.88
0.80
-11.74
-26.94
-45.15
-65.13
-84.39
-100.28
-111.58
-119.52
-127.37
-139.14
-157.52
-182.78
-212.47
-242.49
-268.35
-286.52
-294.97
-293.23
-281.84
-261.97
-234.95
-202.04
-164.47
-123.55
-80.75
-37.82
3.06
39.07
66.97
83.82
88.28
81.90
69.33
57.34
52.52
58.89
76.45
101.86
130.51
158.76
185.36
211.10
237.40
264.71
291.41
313.75
326.71
325.46
307.19
272.70
226.96
177.88
133.60
99.58
76.84
62.45
51.86
41.59
30.73
20.47
12.32
6.48
1.55
-4.47
-12.60
-22.11
-30.82
-36.20
-36.74
-32.44
-24.51
-14.65
-4.30
5.78
15.49
25.18
35.36
46.44
58.40
70.71
82.24
91.58
97.52
99.68
98.80
96.56
94.93
95.20
97.29
99.80
100.75
98.65
93.34
86.03
78.39
71.44
64.79
56.83
45.75
30.85
13.10
-5.22
-21.74
-35.25
-46.07
-55.61
-65.23
-75.13
-84.10
-90.17
-91.97
-89.77
-85.61
-82.21
-81.25
-82.18
-82.44
-79.01
-70.17
-56.58
-40.60
-24.53
-8.95
7.36
25.94
46.89
68.18
86.94
101.49
112.67
122.89
133.87
144.50
150.88
148.60
135.71
114.40
89.87
67.62
50.40
37.30
24.82
9.43
-10.26
-32.81
-55.05
-73.85
-87.54
-96.55
-102.88
-109.03
-116.79
-126.68
-137.94
-149.24
-159.28
-167.24
-172.68
-175.31
-174.92
-171.55
-165.80
-158.89
-152.37
-147.61
-145.23
-145.08
-146.38
-148.01
-148.73
-147.26
-142.09
-131.57
-114.13
-88.93
-56.63
-19.51
18.69
53.81
82.56
103.46
117.15
125.48
130.27
132.22
130.96
125.64
116.00
102.53
86.09
67.15
45.35
20.13
-8.56
-39.40
-70.03
-97.93
-121.25
-139.18
-151.34
-157.11
-155.32
-144.75
-124.76
-95.76
-58.97
-16.03
31.00
79.17
124.18
160.69
183.72
190.60
182.20
162.73
138.01
113.27
91.92
75.60
65.18
61.52
65.40
76.88
94.75
116.73
140.12
162.52
181.91
196.30
203.56
201.77
190.29
170.58
146.14
120.99
97.85
76.78
55.29
29.89
-1.73
-39.20
-79.26
-116.94
-147.35
-167.27
-176.00
-175.08
-167.28
-155.38
-141.20
-125.38
-107.80
-88.33
-67.51
-46.71
-27.72
-12.03
-0.30
7.89
13.63
18.11
22.09
25.72
28.52
29.90
29.30
26.44
21.31
14.17
5.52
-3.92
-13.15
-21.14
-26.96
-30.19
-31.10
-30.59
-29.69
-29.03
-28.35
-26.47
-21.79
-13.02
0.18
17.01
35.88
54.78
71.80
85.22
93.56
95.51
90.20
77.65
59.08
37.05
14.90
-4.08
-17.51
-24.47
-25.53
-22.32
-16.98
-11.68
-8.19
-7.59
-10.12
-15.11
-21.09
-26.27
-29.10
-28.72
-25.29
-19.69
-13.06
-6.30
0.24
6.65
13.15
19.79
26.31
32.23
37.04
40.42
42.29
42.72
41.61
38.67
33.47
25.75
15.81
4.62
-6.37
-15.82
-23.05
-28.28
-32.40
-36.30
-40.29
-43.98
-46.58
-47.60
-47.33
-46.69
-46.70
-47.69
-49.01
-49.16
-46.51
-40.05
-29.65
-15.97
-0.01
17.27
34.98
52.05
67.12
78.54
84.68
84.49
77.77
65.19
47.94
27.31
4.41
-19.64
-43.67
-66.45
-86.94
-104.72
-120.21
-134.46
-148.59
-163.22
-178.15
-192.43
-204.71
-213.36
-216.46
-211.83
-197.23
-171.16
-133.43
-85.62
-30.65
27.93
86.84
143.32
194.92
238.92
272.09
291.17
293.84
279.89
251.60
213.58
171.55
131.22
97.21
72.41
57.74
52.26
53.48
57.82
61.38
60.76
54.04
41.20
24.17
6.03
-9.86
-20.79
-25.32
-23.35
-15.92
-4.89
7.55
19.23
28.32
33.58
34.49
31.15
24.10
14.20
2.37
-10.39
-23.05
-34.76
-45.05
-53.88
-61.65
-68.94
-76.25
-83.74
-91.21
-98.19
-104.13
-108.72
-111.79
-113.29
-112.98
-110.55
-105.66
-98.25
-88.58
-77.27
-64.82
-51.27
-36.05
-18.05
3.62
28.92
56.36
83.20
106.12
122.29
130.28
130.31
123.97
113.49
101.07
88.32
76.11
64.63
53.52
42.26
30.33
17.48
3.87
-9.90
-22.92
-34.19
-42.89
-48.89
-52.89
-56.47
-61.59
-69.87
-81.70
-95.83
-109.56
-119.62
-123.45
-120.08
-110.41
-96.62
-81.33
-66.72
-54.16
-44.10
-36.20
-29.68
-23.46
-16.67
-8.99
-0.79
7.10
13.85
19.12
23.18
26.68
30.18
33.74
36.88
39.03
39.94
39.91
39.54
39.38
39.41
39.10
37.72
34.68
29.99
24.29
18.63
14.05
11.21
10.06
10.05
10.36
10.39
10.12
10.21
11.78
15.91
23.04
32.56
42.96
52.25
58.68
61.51
61.02
58.30
54.61
51.01
47.90
45.20
42.53
39.34
35.20
29.77
22.84
14.31
4.36
-6.67
-18.31
-30.05
-41.56
-52.62
-63.11
-72.94
-81.87
-89.34
-94.64
-97.02
-95.96
-91.23
-82.87
-71.09
-56.19
-38.69
-19.39
0.45
19.33
35.85
49.10
58.94
65.85
70.60
73.89
76.13
77.45
77.98
78.05
78.14
78.60
79.41
79.94
79.23
76.37
71.04
63.79
55.88
48.78
43.56
40.63
39.72
40.23
41.47
42.79
43.48
42.68
39.49
33.34
24.43
13.90
3.70
-4.01
-7.67
-6.96
-3.02
1.85
4.95
4.22
-1.18
-10.68
-22.82
-35.98
-48.94
-61.20
-72.70
-83.56
-93.70
-102.71
-109.90
-114.45
-115.65
-112.97
-106.26
-96.07
-83.66
-70.97
-60.10
-52.71
-49.56
-50.24
-53.62
-58.22
-62.87
-66.88
-70.12
-72.62
-74.27
-74.75
-73.63
-70.77
-66.29
-60.67
-54.45
-48.09
-41.84
-35.73
-29.66
-23.41
-16.75
-9.42
-1.18
8.12
18.40
29.36
40.52
51.27
60.97
68.95
74.58
77.32
76.86
73.26
67.05
59.09
50.41
41.95
34.30
27.62
21.72
16.22
10.80
5.33
-0.13
-5.47
-10.46
-14.95
-18.74
-21.57
-23.16
-23.32
-22.03
-19.49
-15.99
-11.73
-6.80
-1.14
5.30
12.41
19.87
27.19
33.86
39.47
43.67
46.09
46.33
43.96
38.73
30.82
21.04
10.77
1.56
-5.36
-9.55
-11.51
-12.47
-13.84
-16.55
-20.65
-25.40
-29.71
-32.74
-34.33
-34.91
-35.13
-35.42
-35.76
-35.97
-36.18
-37.14
-40.06
-46.16
-55.84
-68.37
-82.02
-94.75
-104.91
-111.64
-114.60
-113.58
-108.17
-98.08
-83.56
-65.91
-47.36
-30.16
-15.55
-2.91
10.11
26.51
48.48
76.32
108.04
140.08
168.39
189.36
200.52
200.79
190.51
171.55
147.16
121.40
98.26
80.47
68.65
61.19
55.20
47.87
37.68
24.82
10.61
-3.49
-16.81
-29.70
-43.02
-57.36
-72.37
-86.76
-98.73
-106.84
-110.33
-109.01
-103.02
-92.68
-78.71
-62.70
-47.10
-34.70
-27.37
-24.97
-24.93
-23.02
-15.10
0.88
23.68
49.16
71.98
87.83
94.99
94.47
88.74
79.86
68.29
52.93
32.91
9.39
-13.84
-31.56
-39.74
-37.73
-28.45
-16.50
-5.31
4.75
15.94
30.71
49.19
68.12
82.24
86.95
80.86
66.31
47.98
30.58
17.27
9.40
7.37
11.57
22.74
41.34
66.63
96.09
125.72
150.93
167.61
172.98
165.99
147.43
119.51
85.32
48.01
9.92
-27.79
-65.05
-102.29
-139.59
-176.40
-212.02
-246.60
-281.42
-318.01
-356.11
-391.97
-418.21
-425.97
-408.71
-365.43
-301.48
-226.64
-151.53
-83.83
-26.68
20.85
61.92
100.09
138.26
178.44
221.39
265.90
308.32
342.67
362.02
360.57
335.55
288.44
225.02
154.25
86.38
30.63
-7.12
-26.23
-31.51
-31.76
-36.62
-53.13
-83.61
-125.82
-175.26
-227.84
-281.10
-332.90
-379.79
-415.48
-432.10
-423.29
-387.41
-328.68
-255.68
-178.19
-104.23
-39.10
14.17
53.83
78.93
89.78
88.65
79.59
67.36
55.99
47.74
43.22
42.11
43.85
47.99
54.04
61.39
69.38
77.59
85.88
94.16
101.96
108.14
111.48
111.01
106.52
98.58
88.39
77.48
67.65
60.89
59.04
63.33
73.63
88.22
104.09
117.88
127.05
131.04
131.59
132.09
136.47
147.96
168.25
197.22
232.92
271.46
307.39
334.50
347.43
343.46
323.53
292.05
255.28
218.88
185.76
155.45
124.93
90.70
51.07
7.27
-36.74
-75.89
-106.09
-125.93
-137.06
-143.33
-148.88
-156.25
-165.98
-177.15
-189.07
-202.42
-219.34
-242.04
-271.10
-304.38
-337.14
-363.67
-379.01
-380.21
-366.81
-340.59
-305.11
-265.22
-226.27
-192.64
-166.35
-146.25
-128.68
-109.63
-87.14
-62.77
-40.92
-26.54
-22.23
-26.70
-35.33
-42.52
-44.41
-40.33
-32.43
-23.80
-16.50
-10.60
-4.61
3.17
13.30
24.78
35.86
45.40
53.92
63.56
76.85
95.25
118.06
142.64
165.40
183.14
193.97
197.56
194.83
187.64
178.47
170.16
165.40
165.97
171.72
180.31
187.63
189.35
182.53
166.73
144.02
118.29
94.16
75.75
65.77
64.30
68.36
72.32
69.92
57.33
36.01
13.20
-0.88
2.10
23.73
57.05
88.77
104.74
95.57
60.22
6.09
-53.88
-105.42
-137.11
-143.09
-123.80
-84.62
-33.71
20.98
73.60
120.76
160.93
193.48
218.71
238.41
256.16
276.22
301.01
328.79
352.99
364.52
355.68
323.84
272.75
210.70
147.03
88.79
39.12
-2.42
-38.17
-70.83
-102.54
-134.48
-166.92
-199.03
-229.02
-254.68
-274.21
-286.69
-292.40
-292.80
-289.68
-284.67
-278.59
-271.35
-262.34
-250.98
-237.39
-222.62
-208.72
-198.37
-194.70
-200.87
-219.19
-249.92
-289.92
-332.34
-367.65
-386.48
-382.81
-356.27
-312.33
-259.93
-208.10
-162.81
-125.99
-96.28
-70.92
-47.42
-24.06
0.51
28.01
60.46
98.99
142.16
185.04
220.09
240.09
241.86
228.64
209.87
198.05
204.00
232.68
281.38
340.95
399.23
444.77
469.60
470.34
447.81
405.97
350.61
288.10
224.29
163.57
108.64
60.42
18.60
-17.80
-49.86
-78.53
-104.63
-128.83
-151.72
-173.59
-194.39
-213.99
-232.62
-251.36
-271.93
-295.43
-320.96
-344.82
-361.58
-366.23
-356.94
-336.00
-308.60
-280.20
-253.78
-228.74
-201.89
-170.37
-134.38
-98.39
-69.49
-54.01
-54.51
-68.50
-90.27
-113.94
-136.05
-156.05
-174.69
-191.36
-202.68
-203.51
-189.71
-161.41
-123.90
-85.97
-56.47
-40.93
-40.37
-52.25
-72.58
-97.35
-123.43
-148.43
-170.08
-186.15
-194.43
-193.20
-181.55
-159.73
-128.97
-91.39
-49.40
-5.14
40.07
85.81
132.04
177.99
221.02
256.54
279.08
284.66
272.84
247.70
216.69
188.06
168.15
160.13
164.61
181.05
208.97
247.46
293.84
342.42
385.07
413.61
423.20
414.44
393.11
367.81
346.54
334.14
331.68
337.44
348.49
361.97
375.49
386.84
393.91
394.91
388.87
376.16
358.35
337.50
315.06
291.00
263.66
230.73
190.96
145.46
98.29
55.39
22.30
1.95
-6.82
-8.76
-10.40
-17.45
-33.08
-57.33
-88.06
-122.46
-158.25
-193.99
-228.64
-260.67
-287.71
-307.07
-316.70
-316.10
-306.82
-291.81
-274.24
-256.45
-239.33
-222.66
-205.85
-188.79
-172.18
-157.43
-145.98
-138.68
-135.33
-134.67
-134.79
-133.77
-130.34
-124.17
-115.96
-106.92
-98.25
-90.73
-84.55
-79.54
-75.55
-72.60
-70.87
-70.41
-70.87
-71.37
-70.77
-68.04
-62.64
-54.67
-44.77
-33.90
-23.07
-13.17
-4.89
1.31
5.29
7.25
7.71
7.36
6.82
6.38
5.91
4.90
2.77
-0.84
-5.77
-11.39
-16.76
-20.88
-23.00
-22.73
-20.08
-15.38
-9.15
-2.05
5.19
11.84
17.21
20.73
22.07
21.22
18.50
14.52
9.99
5.56
1.69
-1.43
-3.82
-5.53
-6.63
-7.10
-6.87
-6.06
-5.04
-4.47
-5.17
-7.87
-12.82
-19.67
-27.44
-34.68
-39.83
-41.68
-39.64
-33.83
-25.00
-14.25
-2.84
8.00
17.22
23.85
27.23
27.01
23.35
16.90
8.77
0.15
-7.84
-14.34
-18.80
-20.87
-20.38
-17.41
-12.42
-6.22
0.10
5.59
9.62
12.07
13.29
13.80
14.08
14.39
14.89
15.62
16.69
18.22
20.28
22.78
25.39
27.57
28.77
28.59
26.96
24.23
20.97
17.87
15.55
14.39
14.49
15.72
17.67
19.76
21.21
21.21
19.05
14.50
7.81
-0.18
-8.22
-15.03
-19.56
-21.22
-19.94
-16.16
-10.58
-4.00
2.75
9.03
14.28
18.08
20.19
20.55
19.28
16.62
12.91
8.49
3.74
-1.07
-5.62
-9.61
-12.82
-15.19
-16.82
-18.02
-19.05
-20.11
-21.17
-22.00
-22.23
-21.58
-19.94
-17.43
-14.32
-10.92
-7.44
-4.01
-0.65
2.55
5.34
7.35
8.20
7.65
5.79
3.09
0.23
-1.97
-2.88
-2.21
0.04
3.58
7.97
12.69
17.29
21.33
24.47
26.42
26.99
26.09
23.73
19.94
14.89
8.81
2.08
-4.82
-11.31
-16.84
-20.99
-23.58
-24.68
-24.63
-23.85
-22.85
-22.05
-21.67
-21.80
-22.24
-22.72
-22.83
-22.18
-20.50
-17.79
-14.28
-10.41
-6.81
-4.03
-2.42
-2.00
-2.44
-3.16
-3.57
-3.14
-1.57
1.26
5.25
10.20
15.80
21.67
27.30
32.18
35.84
37.97
38.53
37.75
36.05
33.92
31.81
30.04
28.76
27.98
27.58
27.33
26.96
26.15
24.73
22.70
20.31
18.02
16.32
15.49
15.53
16.16
16.92
17.42
17.41
16.84
15.79
14.40
12.82
11.23
9.83
8.79
8.27
8.32
8.80
9.53
10.20
10.49
10.19
9.15
7.36
4.99
2.35
-0.18
-2.26
-3.70
-4.60
-5.25
-6.08
-7.46
-9.57
-12.35
-15.57
-18.78
-21.51
-23.29
-23.74
-22.72
-20.35
-17.05
-13.48
-10.31
-7.97
-6.62
-6.11
-6.11
-6.33
-6.65
-7.10
-7.84
-8.98
-10.48
-12.21
-13.95
-15.53
-16.88
-18.05
-19.09
-19.98
-20.66
-21.00
-20.89
-20.35
-19.49
-18.54
-17.79
-17.52
-17.90
-19.00
-20.76
-23.01
-25.44
-27.65
-29.28
-29.99
-29.67
-28.32
-26.14
-23.35
-20.19
-16.83
-13.38
-9.92
-6.60
-3.53
-0.83
1.46
3.38
5.05
6.62
8.28
10.17
12.38
14.84
17.41
19.83
21.84
23.32
24.25
24.70
24.77
24.45
23.64
22.21
20.19
17.76
15.31
13.26
11.89
11.24
11.01
10.77
10.10
8.83
7.02
5.03
3.21
1.85
1.08
0.83
0.96
1.33
1.76
2.05
1.94
1.16
-0.36
-2.36
-4.25
-5.23
-4.63
-2.31
1.29
5.21
8.37
10.00
9.93
8.53
6.52
4.59
3.10
2.13
1.54
1.10
0.64
0.04
-0.72
-1.66
-2.70
-3.79
-4.79
-5.62
-6.27
-6.75
-7.05
-7.12
-6.78
-5.93
-4.50
-2.52
-0.08
2.69
5.66
8.66
11.42
13.57
14.69
14.44
12.72
9.67
5.75
1.63
-2.00
-4.53
-5.62
-5.25
-3.76
-1.72
0.22
1.60
2.20
2.15
1.79
1.51
1.71
2.56
4.02
5.78
7.46
8.64
9.07
8.67
7.55
5.88
3.76
1.22
-1.83
-5.39
-9.36
-13.41
-17.08
-19.83
-21.25
-21.16
-19.54
-16.59
-12.58
-7.82
-2.70
2.36
6.98
10.86
13.82
15.91
17.28
18.14
18.68
19.00
19.10
18.93
18.46
17.65
16.54
15.20
13.73
12.31
11.11
10.20
9.63
9.31
9.07
8.76
8.24
7.44
6.40
5.20
3.94
2.74
1.64
0.59
-0.48
-1.72
-3.22
-4.99
-6.93
-8.92
-10.76
-12.26
-13.20
-13.39
-12.70
-11.07
-8.53
-5.28
-1.61
2.10
5.49
8.18
9.95
10.72
10.65
10.17
9.83
10.18
11.55
13.85
16.63
19.17
20.77
21.06
20.20
18.77
17.52
16.94
17.00
17.08
16.23
13.52
8.52
1.47
-6.83
-15.25
-22.81
-29.00
-33.85
-37.81
-41.49
-45.39
-49.82
-54.87
-60.51
-66.58
-72.72
-78.37
-83.15
-87.48
-92.87
-101.79
-116.62
-138.34
-165.71
-195.61
-224.31
-248.97
-268.24
-281.73
-288.70
-287.23
-274.61
-249.09
-211.68
-166.96
-121.76
-82.65
-53.19
-32.62
-16.59
0.79
24.35
56.26
95.49
138.50
180.20
214.77
236.77
242.25
230.19
203.54
169.49
137.97
118.63
117.10
132.26
155.92
175.64
179.94
162.81
126.23
78.39
29.62
-12.45
-45.22
-70.36
-90.81
-107.54
-118.79
-121.62
-114.75
-100.24
-82.74
-66.69
-53.53
-41.05
-25.05
-2.33
26.89
58.77
87.68
108.93
120.71
124.44
123.43
121.11
119.48
118.87
118.32
116.49
112.56
106.60
99.67
93.17
88.48
86.17
85.77
85.90
84.65
80.25
71.62
58.71
42.47
24.81
8.03
-5.54
-14.09
-16.56
-12.67
-2.78
12.31
31.60
53.87
77.73
101.79
124.83
146.09
165.47
183.30
200.22
216.64
232.56
247.45
260.42
270.53
277.05
279.74
278.69
274.26
266.56
255.07
238.57
215.51
184.79
146.55
102.67
56.68
13.03
-23.93
-51.12
-67.49
-74.37
-75.11
-74.10
-75.42
-81.52
-92.52
-106.29
-119.47
-128.75
-132.14
-129.42
-122.08
-112.82
-105.01
-102.10
-106.99
-121.01
-143.06
-169.31
-193.85
-210.38
-214.22
-203.81
-181.02
-150.21
-116.69
-85.35
-59.82
-42.33
-33.96
-34.66
-43.22
-57.33
-73.78
-89.18
-100.67
-106.54
-106.45
-101.28
-92.61
-82.18
-71.41
-61.21
-52.08
-44.34
-38.34
-34.36
-32.63
-33.01
-35.03
-37.95
-41.08
-44.02
-46.72
-49.48
-52.65
-56.35
-60.34
-64.01
-66.63
-67.63
-66.85
-64.63
-61.71
-58.91
-56.89
-55.90
-55.79
-56.09
-56.11
-55.24
-53.08
-49.82
-46.28
-43.72
-43.14
-44.39
-45.71
-43.84
-35.30
-17.97
7.53
37.62
66.80
89.49
101.88
102.92
94.48
80.44
65.55
54.30
50.03
54.47
67.34
86.49
108.19
127.96
141.52
145.69
139.14
122.55
98.50
70.73
43.34
19.85
2.51
-8.01
-12.46
-12.60
-10.53
-8.16
-6.81
-7.05
-8.72
-11.15
-13.53
-15.09
-15.33
-14.09
-11.55
-8.10
-4.23
-0.45
2.84
5.34
6.89
7.51
7.32
6.53
5.40
4.11
2.83
1.63
0.61
-0.10
-0.39
-0.15
0.56
1.53
2.42
2.83
2.57
1.63
0.19
-1.45
-3.08
-4.61
-6.07
-7.47
-8.76
-9.77
-10.30
-10.28
-9.86
-9.45
-9.53
-10.48
-12.41
-14.97
-17.54
-19.39
-19.87
-18.56
-15.40
-10.59
-4.65
1.55
6.75
9.50
8.45
2.92
-6.62
-18.54
-30.18
-38.66
-41.81
-38.77
-30.20
-18.00
-4.71
7.15
15.42
18.62
16.10
8.11
-3.99
-17.98
-31.03
-40.46
-44.32
-41.99
-34.29
-23.23
-11.54
-1.99
3.21
2.92
-2.59
-11.66
-21.66
-29.66
-33.34
-31.59
-24.72
-14.32
-2.60
8.23
16.50
21.34
22.73
21.26
17.94
13.91
10.17
7.47
6.18
6.24
7.28
8.69
9.82
10.18
9.52
7.95
5.78
3.43
1.22
-0.65
-2.20
-3.57
-4.89
-6.28
-7.71
-9.04
-10.09
-10.59
-10.28
-8.99
-6.70
-3.57
0.09
3.80
7.19
9.99
12.18
13.99
15.65
17.34
19.03
20.54
21.61
22.07
21.88
21.17
20.12
18.90
17.64
16.45
15.41
14.54
13.86
13.26
12.59
11.65
10.25
8.37
6.10
3.64
1.19
-1.05
-3.06
-4.92
-6.79
-8.81
-11.01
-13.32
-15.58
-17.66
-19.46
-20.94
-22.12
-23.00
-23.56
-23.71
-23.27
-22.08
-20.06
-17.34
-14.29
-11.63
-10.16
-10.47
-12.60
-15.83
-18.94
-20.69
-20.38
-18.23
-15.46
-13.89
-15.09
-19.61
-26.53
-33.69
-38.59
-39.33
-35.58
-29.11
-23.14
-20.79
-23.23
-28.51
-31.94
-27.88
-11.62
18.87
62.03
112.89
163.97
206.93
234.26
241.08
226.68
196.32
160.40
130.80
116.46
119.42
133.98
149.30
153.91
140.37
109.53
70.82
37.65
21.84
28.91
56.76
97.93
143.52
186.42
219.21
238.45
242.97
233.02
210.12
177.55
140.56
110.23
90.47
81.13
79.50
80.53
78.71
69.87
50.33
20.02
-19.55
-67.51
-123.48
-187.24
-258.17
-333.31
-405.91
-465.90
-502.22
-506.93
-478.78
-422.88
-349.12
-269.60
-195.69
-135.75
-94.03
-70.35
-61.03
-60.52
-62.61
-62.39
-57.79
-49.60
-39.91
-29.96
-18.85
-4.57
14.06
35.90
57.29
73.59
81.51
80.94
74.93
68.40
65.89
70.24
82.36
101.56
125.77
151.61
174.60
189.95
194.09
186.07
168.10
144.28
118.52
92.50
65.22
34.31
-1.66
-41.51
-81.29
-115.84
-141.19
-156.14
-162.44
-163.46
-162.30
-160.41
-157.33
-151.55
-141.91
-128.78
-114.27
-101.55
-93.33
-90.59
-91.95
-94.26
-94.02
-88.99
-79.10
-66.21
-52.98
-41.38
-31.77
-22.89
-12.56
0.90
17.98
37.56
57.56
75.81
90.93
102.64
111.42
118.13
123.66
128.94
135.07
143.20
154.02
166.88
179.44
187.95
188.55
178.85
158.99
131.42
99.63
66.35
32.41
-3.23
-42.13
-84.78
-129.32
-171.66
-206.80
-230.89
-242.59
-243.43
-236.60
-225.24
-210.81
-192.90
-170.16
-142.17
-111.17
-82.15
-61.35
-53.68
-60.44
-78.77
-103.15
-128.04
-150.16
-169.06
-185.70
-199.98
-209.04
-207.73
-191.22
-158.10
-112.04
-60.66
-12.23
27.78
58.58
83.14
105.76
129.31
154.24
179.28
202.91
224.54
244.21
261.14
272.62
274.38
262.45
235.75
197.66
155.57
118.51
94.01
85.55
91.92
108.30
128.45
146.60
158.52
161.65
155.01
139.08
116.14
90.33
67.09
51.70
47.16
52.65
63.17
71.00
68.17
49.50
14.49
-32.49
-83.63
-130.20
-164.95
-183.71
-185.91
-174.15
-153.02
-127.71
-102.69
-80.78
-62.81
-47.94
-34.72
-22.19
-10.48
-0.68
5.86
8.31
6.98
3.08
-1.78
-6.33
-9.97
-12.71
-14.74
-16.02
-16.25
-14.98
-12.22
-8.52
-4.96
-2.69
-2.42
-4.04
-6.76
-9.53
-11.54
-12.58
-13.03
-13.58
-14.82
-16.98
-19.85
-22.93
-25.65
-27.60
-28.59
-28.61
-27.70
-25.86
-23.11
-19.45
-14.99
-10.06
-5.08
-0.57
3.06
5.61
7.15
7.96
8.29
8.35
8.19
7.85
7.32
6.73
6.25
6.04
6.14
6.45
6.71
6.68
6.18
5.17
3.67
1.81
-0.33
-2.71
-5.34
-8.23
-11.31
-14.42
-17.34
-19.83
-21.78
-23.26
-24.46
-25.62
-26.91
-28.30
-29.69
-30.94
-31.97
-32.81
-33.51
-34.07
-34.34
-34.03
-32.76
-30.29
-26.55
-21.75
-16.28
-10.61
-5.12
-0.11
4.21
7.68
10.21
11.70
12.22
11.99
11.35
10.69
10.38
10.64
11.54
12.92
14.54
16.10
17.42
18.38
18.99
19.31
19.38
19.18
18.62
17.56
15.93
13.75
11.17
8.37
5.59
2.99
0.66
-1.34
-2.99
-4.27
-5.22
-5.92
-6.55
-7.32
-8.48
-10.10
-12.10
-14.23
-16.08
-17.23
-17.26
-15.98
-13.39
-9.74
-5.44
-0.97
3.26
6.98
10.08
12.58
14.53
16.00
17.00
17.54
17.71
17.57
17.26
16.89
16.55
16.26
16.02
15.79
15.48
15.05
14.51
13.96
13.48
13.14
12.87
12.54
12.02
11.18
10.02
8.66
7.18
5.64
4.00
2.22
0.30
-1.69
-3.62
-5.44
-7.18
-9.01
-11.16
-13.75
-16.74
-19.86
-22.62
-24.53
-25.21
-24.54
-22.69
-19.97
-16.76
-13.35
-10.01
-6.92
-4.32
-2.42
-1.37
-1.12
-1.36
-1.68
-1.69
-1.22
-0.27
0.89
2.02
2.93
3.53
3.85
3.93
3.78
3.39
2.77
1.98
1.11
0.29
-0.46
-1.16
-1.85
-2.61
-3.42
-4.18
-4.75
-5.02
-4.99
-4.80
-4.62
-4.63
-4.94
-5.58
-6.56
-7.78
-9.08
-10.17
-10.72
-10.39
-9.00
-6.62
-3.47
0.12
3.86
7.59
11.16
14.44
17.21
19.24
20.40
20.80
20.72
20.51
20.51
20.84
21.47
22.24
22.94
23.38
23.46
23.10
22.35
21.26
19.96
18.50
16.88
15.03
12.88
10.44
7.80
5.15
2.69
0.52
-1.37
-3.13
-4.99
-7.15
-9.69
-12.59
-15.70
-18.83
-21.83
-24.43
-26.32
-27.12
-26.44
-24.09
-20.15
-15.08
-9.56
-4.26
0.40
4.27
7.47
10.14
12.35
14.07
15.26
15.93
16.22
16.31
16.33
16.34
16.27
16.06
15.72
15.30
14.97
14.74
14.58
14.29
13.69
12.62
11.03
9.04
6.84
4.69
2.82
1.31
0.13
-0.90
-1.98
-3.34
-5.06
-7.14
-9.42
-11.66
-13.63
-15.23
-16.44
-17.41
-18.35
-19.44
-20.80
-22.38
-24.00
-25.34
-26.02
-25.67
-24.05
-21.16
-17.32
-13.16
-9.41
-6.70
-5.29
-4.99
-5.25
-5.43
-5.05
-3.96
-2.23
-0.05
2.46
5.25
8.31
11.54
14.64
17.26
19.05
19.84
19.71
18.92
17.84
16.77
15.87
15.12
14.41
13.59
12.55
11.35
10.17
9.18
8.48
7.96
7.37
6.40
4.88
2.85
0.57
-1.60
-3.38
-4.70
-5.67
-6.50
-7.36
-8.32
-9.36
-10.49
-11.80
-13.39
-15.27
-17.30
-19.05
-20.03
-19.79
-18.18
-15.38
-11.85
-8.13
-4.68
-1.79
0.38
1.82
2.53
2.61
2.25
1.65
1.05
0.61
0.43
0.49
0.72
1.04
1.38
1.67
1.84
1.86
1.79
1.73
1.81
2.07
2.51
3.02
3.46
3.73
3.79
3.62
3.24
2.69
1.92
0.90
-0.40
-2.01
-3.86
-5.81
-7.64
-9.16
-10.25
-10.92
-11.30
-11.62
-12.09
-12.86
-13.98
-15.38
-16.89
-18.24
-19.07
-19.04
-17.89
-15.56
-12.24
-8.32
-4.28
-0.52
2.68
5.22
7.17
8.64
9.73
10.52
11.05
11.37
11.57
11.78
12.13
12.68
13.44
14.34
15.31
16.22
17.01
17.57
17.83
17.68
17.04
15.94
14.43
12.69
10.94
9.30
7.85
6.65
5.67
4.89
4.26
3.67
3.01
2.11
0.86
-0.77
-2.68
-4.62
-6.33
-7.62
-8.48
-9.03
-9.52
-10.20
-11.24
-12.68
-14.35
-15.98
-17.22
-17.74
-17.26
-15.69
-13.05
-9.50
-5.31
-0.81
3.69
7.85
11.39
14.13
16.03
17.19
17.83
18.19
18.45
18.67
18.86
19.05
19.31
19.71
20.32
21.13
21.99
22.74
23.20
23.29
23.01
22.40
21.45
20.16
18.49
16.39
13.88
11.04
8.05
5.13
2.55
0.52
-0.84
-1.65
-2.12
-2.56
-3.20
-4.19
-5.50
-6.97
-8.45
-9.81
-10.99
-12.02
-12.94
-13.85
-14.92
-16.34
-18.24
-20.61
-23.13
-25.29
-26.45
-26.13
-24.15
-20.71
-16.29
-11.50
-6.83
-2.63
0.89
3.60
5.44
6.44
6.74
6.60
6.33
6.16
6.21
6.42
6.66
6.82
6.86
6.84
6.84
6.91
7.03
7.08
6.96
6.60
5.95
5.00
3.72
2.16
0.47
-1.11
-2.25
-2.72
-2.45
-1.63
-0.65
0.08
0.27
-0.12
-0.94
-1.96
-2.97
-3.89
-4.73
-5.53
-6.30
-7.06
-7.84
-8.68
-9.69
-10.96
-12.45
-13.99
-15.13
-15.40
-14.45
-12.14
-8.75
-4.80
-0.86
2.65
5.54
7.88
9.81
11.37
12.56
13.28
13.54
13.46
13.18
12.82
12.38
11.76
10.86
9.71
8.51
7.58
7.22
7.56
8.48
9.65
10.69
11.23
11.12
10.34
9.05
7.52
5.97
4.61
3.53
2.74
2.13
1.55
0.84
-0.16
-1.44
-2.96
-4.56
-6.06
-7.41
-8.61
-9.78
-11.06
-12.61
-14.48
-16.62
-18.83
-20.79
-22.14
-22.51
-21.67
-19.56
-16.39
-12.53
-8.42
-4.42
-0.84
2.20
4.62
6.44
7.69
8.44
8.82
8.96
8.95
8.85
8.64
8.34
8.01
7.76
7.64
7.67
7.79
7.89
7.91
7.81
7.64
7.43
7.19
6.90
6.50
5.98
5.32
4.54
3.59
2.45
1.08
-0.47
-2.10
-3.67
-5.07
-6.28
-7.30
-8.18
-8.99
-9.76
-10.52
-11.26
-12.04
-12.87
-13.79
-14.65
-15.28
-15.43
-14.89
-13.61
-11.63
-9.16
-6.37
-3.50
-0.58
2.30
5.03
7.48
9.49
10.96
11.89
12.42
12.65
12.73
12.73
12.65
12.56
12.52
12.57
12.70
12.83
12.86
12.74
12.48
12.17
11.91
11.68
11.41
10.95
10.20
9.15
7.93
6.75
5.77
5.09
4.60
4.15
3.57
2.75
1.67
0.38
-1.06
-2.62
-4.24
-5.92
-7.58
-9.14
-10.55
-11.83
-13.04
-14.23
-15.39
-16.34
-16.82
-16.58
-15.41
-13.35
-10.58
-7.45
-4.34
-1.58
0.65
2.32
3.48
4.26
4.71
4.90
4.81
4.46
3.89
3.21
2.53
1.96
1.57
1.31
1.15
1.03
0.94
0.90
0.94
1.06
1.25
1.40
1.33
0.91
0.08
-1.04
-2.23
-3.30
-4.16
-4.87
-5.59
-6.47
-7.54
-8.68
-9.69
-10.43
-10.95
-11.37
-11.90
-12.64
-13.56
-14.52
-15.32
-15.78
-15.73
-15.03
-13.58
-11.43
-8.70
-5.60
-2.37
0.77
3.65
6.22
8.40
10.17
11.40
12.01
11.99
11.45
10.61
9.72
9.07
8.76
8.85
9.21
9.67
10.04
10.20
10.16
9.94
9.69
9.43
9.14
8.75
8.20
7.48
6.67
5.83
4.97
4.05
2.92
1.52
-0.11
-1.82
-3.41
-4.79
-5.94
-7.01
-8.19
-9.63
-11.40
-13.38
-15.37
-17.02
-18.03
-18.16
-17.30
-15.50
-12.90
-9.75
-6.31
-2.88
0.28
2.96
5.04
6.52
7.52
8.21
8.81
9.40
10.03
10.68
11.28
11.77
12.18
12.55
12.99
13.58
14.32
15.08
15.75
16.15
16.13
15.61
14.52
12.89
10.72
8.14
5.30
2.46
-0.17
-2.46
-4.40
-6.05
-7.47
-8.68
-9.68
-10.40
-10.82
-10.96
-10.90
-10.81
-10.89
-11.37
-12.37
-13.91
-15.73
-17.42
-18.50
-18.53
-17.34
-15.06
-12.00
-8.56
-5.08
-1.69
1.55
4.62
7.43
9.85
11.65
12.79
13.30
13.40
13.39
13.47
13.77
14.26
14.86
15.47
16.01
16.42
16.66
16.63
16.26
15.51
14.43
13.12
11.70
10.29
8.93
7.62
6.33
5.03
3.76
2.64
1.79
1.26
1.05
0.92
0.61
-0.12
-1.43
-3.20
-5.16
-6.96
-8.30
-9.00
-9.18
-9.16
-9.35
-10.15
-11.74
-14.02
-16.67
-19.19
-21.07
-21.89
-21.42
-19.65
-16.81
-13.27
-9.52
-6.07
-3.27
-1.29
-0.09
0.56
0.94
1.23
1.51
1.74
1.86
1.90
1.95
2.14
2.51
3.05
3.63
4.12
4.44
4.58
4.63
4.65
4.66
4.59
4.35
3.82
2.97
1.84
0.58
-0.60
-1.49
-1.94
-1.92
-1.52
-0.98
-0.54
-0.41
-0.66
-1.26
-2.12
-3.10
-4.14
-5.20
-6.37
-7.74
-9.34
-11.14
-13.00
-14.72
-15.99
-16.50
-15.96
-14.28
-11.57
-8.10
-4.24
-0.32
3.35
6.63
9.36
11.49
12.94
13.71
13.90
13.68
13.27
12.85
12.53
12.27
12.00
11.69
11.36
11.07
10.93
11.02
11.36
11.87
12.37
12.70
12.76
12.51
11.97
11.22
10.31
9.31
8.22
7.02
5.77
4.50
3.28
2.18
1.18
0.22
-0.79
-1.94
-3.26
-4.64
-5.94
-6.98
-7.70
-8.19
-8.68
-9.42
-10.61
-12.32
-14.45
-16.80
-19.06
-20.89
-21.95
-21.99
-20.91
-18.73
-15.66
-11.97
-8.04
-4.22
-0.75
2.22
4.68
6.72
8.44
9.91
11.20
12.30
13.23
14.04
14.78
15.54
16.30
17.02
17.57
17.89
17.88
17.58
17.01
16.24
15.33
14.32
13.30
12.33
11.53
10.92
10.52
10.25
9.98
9.62
9.12
8.51
7.85
7.15
6.35
5.35
4.07
2.47
0.64
-1.29
-3.16
-4.87
-6.40
-7.80
-9.14
-10.45
-11.76
-13.08
-14.45
-15.88
-17.30
-18.49
-19.11
-18.86
-17.53
-15.18
-12.10
-8.72
-5.46
-2.62
-0.32
1.45
2.72
3.49
3.74
3.45
2.67
1.51
0.13
-1.30
-2.61
-3.68
-4.44
-4.91
-5.13
-5.14
-5.00
-4.75
-4.42
-4.06
-3.76
-3.59
-3.62
-3.84
-4.13
-4.34
-4.34
-4.02
-3.43
-2.66
-1.86
-1.20
-0.82
-0.82
-1.19
-1.85
-2.63
-3.31
-3.75
-3.93
-4.01
-4.25
-4.87
-6.05
-7.80
-10.02
-12.45
-14.82
-16.73
-17.84
-17.84
-16.62
-14.25
-11.04
-7.39
-3.70
-0.30
2.63
5.03
6.93
8.38
9.46
10.27
10.92
11.58
12.33
13.22
14.20
15.14
15.89
16.35
16.51
16.44
16.30
16.18
16.08
15.93
15.55
14.77
13.54
11.83
9.82
7.72
5.75
4.08
2.77
1.75
0.87
-0.04
-1.05
-2.18
-3.32
-4.40
-5.38
-6.24
-7.03
-7.78
-8.56
-9.45
-10.55
-11.94
-13.59
-15.39
-16.98
-17.99
-18.06
-17.00
-14.92
-12.12
-8.96
-5.70
-2.40
0.99
4.51
8.09
11.54
14.52
16.78
18.22
18.97
19.33
19.69
20.33
21.35
22.69
24.09
25.25
25.93
25.96
25.31
24.07
22.45
20.72
19.26
18.28
17.78
17.31
16.02
12.89
7.22
-1.02
-11.10
-21.61
-31.05
-38.21
-42.55
-44.18
-43.60
-41.40
-38.09
-34.07
-29.71
-25.41
-21.59
-18.55
-16.38
-14.88
-13.63
-12.15
-10.08
-7.26
-3.79
0.09
4.12
8.07
11.82
15.30
18.40
20.96
22.79
23.71
23.66
22.75
21.26
19.51
17.83
16.45
15.44
14.82
14.53
14.50
14.63
14.84
15.02
15.10
14.99
14.61
13.89
12.80
11.29
9.36
7.10
4.61
2.09
-0.28
-2.38
-4.15
-5.58
-6.72
-7.59
-8.18
-8.56
-8.79
-9.01
-9.37
-9.99
-10.92
-12.15
-13.59
-15.09
-16.48
-17.54
-18.03
-17.74
-16.57
-14.61
-12.09
-9.34
-6.67
-4.36
-2.57
-1.41
-0.91
-1.01
-1.50
-2.07
-2.39
-2.15
-1.25
0.24
2.04
3.85
5.38
6.45
6.96
6.94
6.53
5.90
5.27
4.77
4.41
4.09
3.69
3.11
2.40
1.67
1.06
0.64
0.33
-0.01
-0.54
-1.42
-2.69
-4.29
-6.09
-7.97
-9.75
-11.26
-12.30
-12.67
-12.16
-10.68
-8.26
-5.08
-1.51
2.02
5.08
7.37
8.81
9.48
9.58
9.39
9.12
9.00
9.16
9.63
10.18
10.35
9.43
6.76
2.04
-4.45
-11.83
-18.86
-24.41
-27.81
-28.98
-28.34
-26.46
-23.78
-20.58
-16.99
-13.25
-9.68
-6.71
-4.64
-3.54
-3.20
-3.26
-3.40
-3.43
-3.39
-3.44
-3.73
-4.26
-4.77
-4.85
-4.04
-2.06
1.11
5.13
9.46
13.53
16.98
19.67
21.67
23.09
23.97
24.22
23.80
22.74
21.31
19.90
18.91
18.54
18.73
19.22
19.65
19.77
19.49
18.83
17.81
16.48
14.88
13.01
10.96
8.80
6.63
4.49
2.47
0.58
-1.09
-2.53
-3.73
-4.81
-5.89
-7.07
-8.45
-10.05
-11.89
-13.98
-16.31
-18.72
-20.95
-22.56
-23.10
-22.18
-19.73
-16.01
-11.51
-6.86
-2.57
1.08
4.01
6.30
8.11
9.57
10.82
11.96
13.14
14.41
15.71
16.83
17.39
17.07
15.79
13.78
11.63
10.05
9.68
10.72
12.97
15.79
18.36
20.02
20.40
19.59
17.92
15.89
13.84
11.94
10.11
8.21
6.19
4.09
2.07
0.21
-1.53
-3.36
-5.53
-8.23
-11.49
-15.17
-19.09
-23.04
-26.88
-30.47
-33.66
-36.19
-37.77
-38.16
-37.24
-35.18
-32.33
-29.18
-26.20
-23.68
-21.74
-20.33
-19.24
-18.25
-17.10
-15.57
-13.50
-10.77
-7.33
-3.27
1.19
5.75
10.06
13.83
16.86
19.06
20.44
21.10
21.10
20.59
19.65
18.33
16.72
14.86
12.79
10.55
8.26
6.00
3.90
2.04
0.44
-0.92
-2.14
-3.39
-4.82
-6.53
-8.54
-10.71
-12.80
-14.50
-15.48
-15.43
-14.17
-11.66
-8.11
-3.88
0.59
4.95
9.03
12.93
16.79
20.65
24.38
27.54
29.58
30.12
29.05
26.55
23.08
19.17
15.29
11.85
9.13
7.29
6.37
6.23
6.54
6.91
6.95
6.43
5.41
4.25
3.44
3.47
4.46
6.17
7.98
9.10
8.87
6.93
3.34
-1.44
-6.73
-11.88
-16.36
-19.83
-22.27
-23.90
-25.12
-26.35
-27.80
-29.42
-30.88
-31.69
-31.43
-29.87
-27.04
-23.09
-18.23
-12.70
-6.78
-0.86
4.59
9.12
12.44
14.55
15.71
16.33
16.75
17.17
17.65
18.14
18.58
18.94
19.27
19.59
19.90
20.15
20.25
20.11
19.72
19.11
18.35
17.44
16.34
14.90
13.00
10.70
8.13
5.54
3.21
1.29
-0.18
-1.25
-2.01
-2.65
-3.32
-4.22
-5.50
-7.18
-9.14
-11.15
-13.01
-14.63
-16.00
-17.27
-18.56
-20.03
-21.74
-23.72
-25.87
-27.91
-29.42
-29.82
-28.66
-25.71
-21.13
-15.39
-9.16
-3.09
2.31
6.78
10.24
12.74
14.39
15.32
15.72
15.73
15.57
15.41
15.42
15.66
16.12
16.65
17.05
17.17
16.93
16.38
15.72
15.12
14.67
14.30
13.79
12.92
11.52
9.62
7.39
5.09
2.94
1.01
-0.79
-2.62
-4.61
-6.76
-8.92
-10.91
-12.62
-14.10
-15.51
-17.06
-18.91
-21.03
-23.30
-25.53
-27.61
-29.52
-31.31
-32.90
-34.08
-34.50
-33.72
-31.46
-27.63
-22.41
-16.17
-9.34
-2.33
4.46
10.69
16.03
20.24
23.20
24.97
25.75
25.85
25.53
24.96
24.15
23.06
21.64
19.93
18.03
16.05
14.10
12.18
10.27
8.35
6.51
4.87
3.58
2.71
2.16
1.75
1.22
0.39
-0.79
-2.23
-3.78
-5.33
-6.81
-8.23
-9.62
-11.04
-12.54
-14.18
-16.08
-18.33
-20.92
-23.63
-25.98
-27.37
-27.26
-25.39
-21.85
-17.09
-11.75
-6.40
-1.41
3.05
6.98
10.38
13.19
15.35
16.76
17.47
17.59
17.37
17.03
16.74
16.56
16.44
16.23
15.78
14.95
13.73
12.22
10.56
8.95
7.53
6.37
5.34
4.19
2.53
0.06
-3.32
-7.45
-11.83
-15.89
-19.15
-21.40
-22.81
-23.70
-24.46
-25.31
-26.30
-27.28
-27.93
-27.89
-26.80
-24.34
-20.40
-15.07
-8.72
-1.91
4.72
10.59
15.33
18.79
21.09
22.45
23.11
23.27
23.05
22.53
21.74
20.77
19.76
18.82
17.98
17.24
16.49
15.69
14.81
13.92
13.12
12.42
11.79
11.06
9.98
8.39
6.26
3.69
0.87
-1.95
-4.55
-6.81
-8.71
-10.45
-12.45
-15.34
-19.73
-25.97
-33.83
-42.37
-50.14
-55.51
-57.23
-54.75
-48.33
-38.84
-27.46
-15.41
-3.74
6.69
15.23
21.40
25.11
26.60
26.44
25.40
24.20
23.35
23.08
23.35
23.92
24.55
25.03
25.17
24.93
24.31
23.41
22.38
21.35
20.35
19.31
18.12
16.63
14.81
12.65
10.24
7.64
4.86
1.94
-1.12
-4.23
-7.28
-10.10
-12.63
-14.92
-17.06
-19.16
-21.31
-23.47
-25.51
-27.10
-27.83
-27.27
-25.20
-21.67
-17.07
-11.95
-6.88
-2.30
1.60
4.81
7.36
9.27
10.52
11.07
11.00
10.55
10.00
9.62
9.52
9.62
9.73
9.63
9.18
8.36
7.32
6.24
5.26
4.42
3.69
3.02
2.41
1.89
1.44
1.02
0.50
-0.31
-1.56
-3.29
-5.40
-7.71
-9.99
-12.08
-13.88
-15.42
-16.87
-18.42
-20.28
-22.48
-24.81
-26.81
-27.88
-27.46
-25.24
-21.30
-16.11
-10.38
-4.83
0.05
4.00
6.98
9.13
10.66
11.89
13.23
15.11
17.77
21.11
24.64
27.71
29.71
30.41
30.02
29.00
27.81
26.65
25.42
23.79
21.48
18.45
14.81
10.81
6.75
2.77
-1.09
-4.82
-8.45
-11.98
-15.40
-18.74
-22.10
-25.54
-29.13
-32.75
-36.06
-38.48
-39.44
-38.47
-35.42
-30.53
-24.25
-17.25
-10.14
-3.45
2.45
7.21
10.64
12.62
13.30
12.98
12.09
11.08
10.27
9.80
9.63
9.66
9.72
9.74
9.71
9.59
9.39
9.11
8.68
8.05
7.17
5.92
4.29
2.34
0.17
-2.06
-4.21
-6.22
-8.05
-9.80
-11.56
-13.49
-15.69
-18.15
-20.72
-22.98
-24.39
-24.35
-22.48
-18.69
-13.31
-6.92
-0.22
6.10
11.55
15.78
18.71
20.40
21.09
21.14
20.94
20.80
20.86
21.07
21.24
21.16
20.65
19.73
18.54
17.30
16.24
15.44
14.87
14.39
13.77
12.79
11.26
9.08
6.27
2.95
-0.65
-4.25
-7.59
-10.52
-13.00
-15.13
-17.03
-18.84
-20.61
-22.35
-24.07
-25.79
-27.61
-29.55
-31.49
-33.04
-33.62
-32.61
-29.58
-24.54
-17.92
-10.46
-2.95
3.97
9.91
14.77
18.57
21.42
23.36
24.44
24.81
24.62
24.15
23.65
23.30
23.16
23.21
23.30
23.35
23.28
23.09
22.81
22.42
21.89
21.09
19.94
18.37
16.40
14.15
11.83
9.61
7.63
5.86
4.19
2.46
0.53
-1.60
-3.84
-6.07
-8.17
-10.15
-12.07
-14.03
-16.06
-18.11
-20.06
-21.79
-23.28
-24.57
-25.84
-27.30
-29.13
-31.38
-33.99
-36.73
-39.25
-41.10
-41.81
-40.99
-38.45
-34.33
-29.00
-23.01
-16.71
-9.97
-2.28
7.01
18.11
30.46
42.71
53.19
60.52
64.15
64.44
62.23
58.44
53.63
48.03
41.75
35.11
28.60
22.82
18.21
14.78
12.22
9.98
7.53
4.58
1.11
-2.67
-6.39
-9.70
-12.36
-14.27
-15.50
-16.22
-16.63
-16.85
-16.92
-16.80
-16.43
-15.85
-15.22
-14.83
-14.92
-15.63
-16.88
-18.48
-20.19
-21.81
-23.28
-24.61
-25.84
-27.01
-28.16
-29.32
-30.56
-31.84
-32.96
-33.50
-32.92
-30.71
-26.64
-20.89
-13.99
-6.71
0.21
6.20
10.98
14.56
17.09
18.75
19.76
20.26
20.46
20.52
20.59
20.79
21.15
21.62
22.10
22.51
22.73
22.67
22.21
21.19
19.57
17.39
14.88
12.36
10.15
8.46
7.34
6.67
6.23
5.82
5.25
4.39
3.13
1.39
-0.86
-3.58
-6.57
-9.59
-12.32
-14.51
-15.99
-16.72
-16.81
-16.51
-16.22
-16.31
-17.06
-18.47
-20.26
-21.88
-22.74
-22.33
-20.47
-17.29
-13.15
-8.50
-3.74
0.84
5.05
8.76
11.83
14.16
15.70
16.45
16.55
16.23
15.69
15.15
14.72
14.45
14.34
14.35
14.47
14.66
14.96
15.39
15.92
16.45
16.84
16.91
16.53
15.67
14.38
12.80
11.05
9.27
7.49
5.67
3.75
1.61
-0.83
-3.49
-6.28
-8.94
-11.19
-12.87
-13.97
-14.66
-15.23
-15.94
-16.97
-18.32
-19.85
-21.38
-22.64
-23.35
-23.16
-21.81
-19.06
-14.94
-9.65
-3.63
2.53
8.26
13.11
16.84
19.44
21.18
22.46
23.70
25.22
27.11
29.19
31.15
32.66
33.52
33.79
33.69
33.44
33.28
33.31
33.59
34.10
34.62
34.53
32.77
28.09
19.45
6.72
-9.13
-26.10
-41.84
-54.42
-62.85
-67.11
-67.79
-65.63
-61.17
-54.81
-47.04
-38.64
-30.62
-23.95
-19.14
-16.11
-14.30
-12.82
-11.03
-8.82
-6.68
-5.74
-7.25
-12.05
-20.07
-30.17
-40.36
-48.58
-53.52
-55.03
-54.11
-52.12
-50.07
-47.96
-44.98
-40.04
-32.66
-23.34
-13.36
-4.29
2.74
7.26
9.46
10.02
10.00
10.77
13.90
20.68
31.49
45.20
59.32
70.61
76.39
75.47
68.49
57.37
44.34
31.13
18.62
7.15
-2.98
-11.28
-17.19
-20.41
-21.27
-20.67
-19.84
-19.79
-20.92
-22.87
-24.70
-25.27
-23.82
-20.27
-15.19
-9.58
-4.39
-0.13
3.20
5.94
8.57
11.27
13.88
16.01
17.26
17.52
17.00
16.20
15.61
15.55
16.00
16.69
17.23
17.37
17.07
16.45
15.67
14.80
13.79
12.52
10.95
9.13
7.13
5.11
3.13
1.26
-0.45
-1.93
-3.11
-3.98
-4.59
-5.22
-6.11
-7.53
-9.60
-12.31
-15.47
-18.75
-21.69
-23.75
-24.47
-23.57
-21.08
-17.23
-12.45
-7.23
-1.97
3.00
7.39
10.96
13.57
15.20
15.96
16.10
15.87
15.46
15.02
14.58
14.19
13.87
13.59
13.23
12.68
11.82
10.65
9.27
7.83
6.50
5.31
4.20
3.01
1.67
0.18
-1.31
-2.63
-3.62
-4.26
-4.67
-5.06
-5.64
-6.50
-7.61
-8.88
-10.28
-11.84
-13.72
-15.99
-18.61
-21.26
-23.43
-24.58
-24.31
-22.49
-19.31
-15.22
-10.72
-6.20
-1.92
2.03
5.59
8.68
11.22
13.08
14.18
14.60
14.50
14.12
13.66
13.25
12.94
12.76
12.68
12.63
12.49
12.00
10.99
9.39
7.38
5.35
3.70
2.73
2.46
2.68
3.04
3.21
3.02
2.40
1.46
0.41
-0.51
-1.05
-1.09
-0.76
-0.40
-0.48
-1.45
-3.43
-6.32
-9.79
-13.52
-17.16
-20.34
-22.64
-23.55
-22.65
-19.81
-15.28
-9.68
-3.79
1.64
6.21
9.78
12.40
14.23
15.36
15.86
15.84
15.43
14.80
14.14
13.53
13.01
12.53
12.08
11.67
11.31
11.03
10.70
10.20
9.39
8.21
6.76
5.18
3.66
2.23
0.90
-0.46
-1.95
-3.61
-5.42
-7.21
-8.82
-10.07
-10.90
-11.35
-11.61
-11.98
-12.68
-13.87
-15.51
-17.46
-19.49
-21.31
-22.64
-23.23
-22.84
-21.34
-18.75
-15.27
-11.27
-7.13
-3.16
0.43
3.55
6.17
8.30
9.94
11.11
11.86
12.25
12.43
12.50
12.55
12.56
12.54
12.43
12.25
12.03
11.81
11.65
11.51
11.32
10.99
10.40
9.53
8.42
7.15
5.86
4.66
3.67
2.92
2.41
2.04
1.70
1.32
0.88
0.42
-0.07
-0.61
-1.31
-2.30
-3.70
-5.59
-7.97
-10.74
-13.78
-16.93
-19.95
-22.55
-24.42
-25.30
-25.06
-23.73
-21.53
-18.73
-15.62
-12.37
-9.05
-5.71
-2.33
0.98
4.06
6.74
8.93
10.64
11.96
12.97
13.76
14.34
14.69
14.82
14.79
14.69
14.64
14.70
14.88
15.11
15.30
15.32
15.02
14.34
13.25
11.84
10.26
8.66
7.19
5.87
4.70
3.58
2.47
1.26
-0.10
-1.68
-3.51
-5.52
-7.55
-9.42
-10.97
-12.21
-13.30
-14.51
-16.11
-18.21
-20.65
-23.12
-25.17
-26.37
-26.39
-25.08
-22.55
-19.05
-15.01
-10.82
-6.83
-3.26
-0.16
2.43
4.52
6.05
7.03
7.45
7.46
7.22
6.89
6.61
6.40
6.23
6.08
5.99
5.98
6.12
6.40
6.73
6.98
6.91
6.40
5.43
4.17
2.81
1.55
0.53
-0.30
-1.02
-1.75
-2.55
-3.40
-4.21
-4.95
-5.63
-6.25
-6.87
-7.45
-8.01
-8.59
-9.30
-10.28
-11.63
-13.30
-15.05
-16.49
-17.14
-16.62
-14.75
-11.59
-7.45
-2.79
1.90
6.23
9.89
12.75
14.73
15.85
16.15
15.78
14.94
13.88
12.87
12.10
11.62
11.37
11.22
11.08
10.93
10.76
10.62
10.48
10.25
9.87
9.28
8.50
7.51
6.30
4.84
3.14
1.30
-0.50
-2.07
-3.34
-4.40
-5.43
-6.67
-8.20
-9.96
-11.69
-13.19
-14.37
-15.43
-16.64
-18.26
-20.32
-22.62
-24.71
-26.11
-26.40
-25.36
-23.02
-19.52
-15.11
-10.07
-4.77
0.43
5.14
9.04
12.02
14.08
15.44
16.30
16.83
17.13
17.25
17.19
16.97
16.62
16.16
15.60
14.94
14.21
13.48
12.81
12.19
11.54
10.71
9.58
8.09
6.30
4.35
2.42
0.71
-0.66
-1.67
-2.37
-2.94
-3.59
-4.48
-5.70
-7.17
-8.72
-10.13
-11.26
-12.15
-13.04
-14.25
-16.02
-18.33
-20.87
-23.10
-24.38
-24.24
-22.54
-19.45
-15.39
-10.84
-6.20
-1.73
2.40
6.10
9.30
11.96
14.08
15.69
16.89
17.71
18.25
18.58
18.70
18.68
18.51
18.16
17.56
16.66
15.44
13.95
12.34
10.74
9.24
7.84
6.50
5.14
3.74
2.34
1.02
-0.09
-0.91
-1.46
-1.84
-2.19
-2.67
-3.41
-4.47
-5.85
-7.49
-9.33
-11.31
-13.36
-15.45
-17.56
-19.71
-21.93
-24.20
-26.37
-28.10
-28.89
-28.25
-25.90
-21.88
-16.58
-10.61
-4.58
1.08
6.11
10.41
13.91
16.54
18.23
19.02
19.09
18.73
18.33
18.13
18.20
18.37
18.36
17.87
16.75
15.10
13.18
11.36
9.89
8.85
8.12
7.48
6.75
5.87
4.92
3.97
3.12
2.29
1.36
0.19
-1.29
-2.98
-4.70
-6.22
-7.42
-8.33
-9.15
-10.10
-11.36
-13.01
-14.98
-17.17
-19.51
-21.94
-24.32
-26.36
-27.63
-27.63
-26.08
-22.96
-18.65
-13.73
-8.83
-4.41
-0.69
2.28
4.52
6.08
7.01
7.40
7.45
7.40
7.49
7.85
8.43
9.10
9.68
10.03
10.16
10.21
10.32
10.55
10.84
10.98
10.78
10.13
9.08
7.81
6.59
5.60
4.89
4.42
3.99
3.45
2.68
1.59
0.20
-1.41
-3.13
-4.80
-6.26
-7.46
-8.48
-9.52
-10.81
-12.42
-14.21
-15.81
-16.68
-16.38
-14.66
-11.55
-7.39
-2.68
2.06
6.32
9.77
12.30
13.96
14.94
15.50
15.79
15.94
15.97
15.89
15.69
15.40
15.01
14.57
14.13
13.78
13.60
13.61
13.75
13.86
13.69
13.04
11.79
9.93
7.64
5.20
2.86
0.84
-0.75
-1.95
-2.94
-3.95
-5.19
-6.75
-8.57
-10.46
-12.21
-13.64
-14.71
-15.53
-16.35
-17.41
-18.88
-20.76
-22.89
-24.85
-26.16
-26.32
-25.01
-22.23
-18.25
-13.52
-8.49
-3.55
1.09
5.30
8.96
11.97
14.21
15.60
16.20
16.23
15.90
15.42
14.86
14.23
13.50
12.66
11.77
10.90
10.16
9.56
9.04
8.50
7.86
7.10
6.26
5.42
4.62
3.85
3.07
2.24
1.27
0.11
-1.24
-2.78
-4.41
-6.00
-7.41
-8.56
-9.48
-10.31
-11.25
-12.41
-13.87
-15.58
-17.45
-19.33
-21.05
-22.33
-22.92
-22.50
-20.82
-17.86
-13.78
-9.02
-4.08
0.51
4.45
7.60
9.98
11.72
12.93
13.66
13.92
13.80
13.42
13.00
12.73
12.74
13.03
13.43
13.79
13.97
13.95
13.82
13.64
13.39
12.94
12.13
10.79
8.98
6.93
4.90
3.13
1.71
0.54
-0.60
-1.88
-3.35
-4.90
-6.34
-7.53
-8.39
-9.00
-9.51
-10.14
-11.05
-12.36
-14.14
-16.40
-19.04
-21.79
-24.15
-25.59
-25.63
-23.99
-20.77
-16.39
-11.40
-6.36
-1.63
2.62
6.31
9.43
11.91
13.65
14.64
14.97
14.88
14.68
14.64
14.87
15.33
15.82
16.17
16.30
16.26
16.18
16.15
16.17
16.16
15.99
15.56
14.82
13.80
12.55
11.12
9.56
7.93
6.28
4.61
2.92
1.10
-0.87
-2.99
-5.13
-7.06
-8.57
-9.56
-10.08
-10.34
-10.65
-11.26
-12.35
-13.95
-15.96
-18.18
-20.31
-21.98
-22.81
-22.52
-20.98
-18.35
-14.98
-11.30
-7.73
-4.51
-1.78
0.41
2.03
3.05
3.49
3.41
3.00
2.48
2.09
1.91
1.96
2.13
2.34
2.54
2.76
3.13
3.74
4.70
6.02
7.61
9.26
10.71
11.66
11.88
11.30
10.00
8.19
6.18
4.23
2.49
1.03
-0.15
-1.05
-1.68
-2.11
-2.51
-3.17
-4.44
-6.64
-9.90
-14.03
-18.54
-22.68
-25.65
-26.80
-25.72
-22.45
-17.30
-10.94
-4.11
2.48
8.34
13.24
17.17
20.27
22.65
24.33
25.18
24.98
23.47
20.54
16.20
10.71
4.54
-1.66
-7.14
-11.14
-13.15
-12.99
-10.91
-7.45
-3.35
0.70
4.19
6.83
8.49
9.16
8.81
7.48
5.29
2.50
-0.52
-3.41
-5.87
-7.81
-9.28
-10.44
-11.41
-12.33
-13.28
-14.34
-15.60
-17.07
-18.68
-20.24
-21.42
-21.84
-21.17
-19.24
-16.12
-12.14
-7.82
-3.67
-0.07
2.84
5.17
7.10
8.79
10.32
11.67
12.85
13.98
15.22
16.64
18.12
19.38
20.08
20.00
19.16
17.82
16.34
15.01
13.91
12.94
11.89
10.62
9.06
7.35
5.63
4.08
2.78
1.70
0.69
-0.43
-1.83
-3.56
-5.52
-7.46
-9.18
-10.53
-11.55
-12.40
-13.33
-14.58
-16.31
-18.47
-20.86
-23.16
-24.87
-25.56
-24.92
-22.89
-19.70
-15.76
-11.49
-7.20
-3.07
0.83
4.41
7.53
10.05
11.88
13.09
13.85
14.40
14.90
15.43
15.93
16.32
16.55
16.64
16.66
16.68
16.70
16.67
16.53
16.14
15.45
14.48
13.30
12.02
10.74
9.52
8.41
7.41
6.47
5.57
4.65
3.69
2.64
1.42
-0.05
-1.81
-3.83
-5.97
-7.96
-9.58
-10.71
-11.40
-11.86
-12.33
-13.08
-14.24
-15.80
-17.63
-19.49
-21.04
-21.92
-21.79
-20.39
-17.75
-14.06
-9.69
-5.03
-0.39
4.08
8.31
12.18
15.51
18.05
19.63
20.25
20.16
19.74
19.44
19.57
20.15
21.05
21.98
22.60
22.70
22.20
21.19
19.92
18.69
17.78
17.29
16.91
15.94
13.36
8.17
-0.25
-11.76
-25.33
-39.25
-51.55
-60.54
-65.14
-65.14
-60.98
-53.66
-44.40
-34.53
-25.33
-17.87
-12.90
-10.59
-10.59
-12.11
-14.21
-16.11
-17.39
-18.02
-18.20
-18.10
-17.66
-16.64
-14.75
-11.80
-7.93
-3.41
1.38
6.06
10.41
14.22
17.32
19.55
20.87
21.34
21.24
20.91
20.64
20.59
20.73
20.93
21.01
20.90
20.61
20.18
19.62
18.92
18.04
16.98
15.73
14.32
12.78
11.12
9.33
7.45
5.51
3.63
1.91
0.41
-0.82
-1.80
-2.60
-3.29
-4.00
-4.80
-5.77
-6.98
-8.41
-10.01
-11.66
-13.29
-14.87
-16.38
-17.81
-19.00
-19.72
-19.58
-18.28
-15.69
-12.00
-7.63
-3.11
1.07
4.66
7.56
9.84
11.58
12.83
13.62
14.00
14.08
14.00
13.91
13.89
13.96
14.09
14.23
14.37
14.45
14.44
14.21
13.67
12.80
11.64
10.32
8.97
7.69
6.44
5.22
4.00
2.81
1.71
0.72
-0.26
-1.41
-2.91
-4.88
-7.26
-9.87
-12.46
-14.78
-16.71
-18.28
-19.66
-21.06
-22.67
-24.51
-26.43
-28.10
-29.05
-28.86
-27.28
-24.29
-20.13
-15.21
-9.95
-4.75
0.13
4.52
8.29
11.39
13.80
15.55
16.70
17.38
17.69
17.73
17.55
17.21
16.82
16.45
16.18
16.02
15.95
15.88
15.77
15.57
15.24
14.81
14.29
13.68
12.95
12.10
11.12
10.04
8.88
7.63
6.34
5.02
3.74
2.51
1.34
0.20
-0.97
-2.25
-3.65
-5.17
-6.75
-8.31
-9.81
-11.16
-12.36
-13.46
-14.59
-15.91
-17.59
-19.65
-21.91
-24.01
-25.46
-25.85
-24.91
-22.66
-19.34
-15.37
-11.19
-7.15
-3.51
-0.45
2.04
4.01
5.60
6.98
8.24
9.40
10.43
11.19
11.54
11.47
11.03
10.39
9.77
9.27
8.91
8.63
8.27
7.72
6.90
5.85
4.66
3.44
2.23
1.03
-0.14
-1.25
-2.22
-2.96
-3.43
-3.64
-3.68
-3.71
-3.89
-4.27
-4.88
-5.65
-6.49
-7.36
-8.21
-9.00
-9.70
-10.31
-10.79
-11.22
-11.70
-12.41
-13.49
-14.96
-16.57
-17.86
-18.25
-17.26
-14.71
-10.74
-5.78
-0.44
4.78
9.49
13.43
16.44
18.46
19.46
19.62
19.25
18.72
18.38
18.33
18.52
18.74
18.82
18.68
18.33
17.82
17.18
16.36
15.31
14.10
12.88
11.88
11.31
11.23
11.57
12.11
12.66
13.04
13.19
13.13
12.92
12.60
12.17
11.63
10.88
9.85
8.40
6.39
3.69
0.29
-3.73
-8.12
-12.52
-16.58
-20.03
-22.75
-24.82
-26.43
-27.78
-28.97
-29.97
-30.62
-30.66
-29.81
-27.79
-24.42
-19.74
-14.01
-7.80
-1.82
3.22
6.83
8.91
9.68
9.61
9.19
8.75
8.46
8.35
8.42
8.67
9.17
9.95
10.97
12.12
13.23
14.16
14.88
15.41
15.84
16.20
16.47
16.56
16.32
15.70
14.69
13.38
11.90
10.33
8.78
7.32
6.01
4.90
3.96
3.12
2.27
1.30
0.16
-1.15
-2.62
-4.19
-5.86
-7.64
-9.57
-11.63
-13.85
-16.22
-18.74
-21.38
-24.01
-26.39
-28.07
-28.65
-27.78
-25.30
-21.40
-16.49
-11.20
-6.15
-1.77
1.72
4.33
6.14
7.25
7.76
7.76
7.43
6.99
6.68
6.63
6.86
7.19
7.42
7.40
7.15
6.78
6.50
6.45
6.66
7.05
7.39
7.42
6.97
5.96
4.46
2.66
0.79
-0.97
-2.51
-3.86
-5.11
-6.43
-7.94
-9.65
-11.49
-13.34
-15.09
-16.66
-18.07
-19.37
-20.65
-22.05
-23.67
-25.55
-27.66
-29.82
-31.72
-32.96
-33.17
-32.06
-29.60
-25.92
-21.35
-16.28
-11.14
-6.28
-2.02
1.45
4.05
5.81
6.95
7.70
8.33
9.04
9.92
10.89
11.78
12.35
12.38
11.80
10.68
9.29
8.09
7.45
7.60
8.47
9.77
11.05
11.94
12.27
12.04
11.41
10.46
9.15
7.33
4.87
1.78
-1.65
-4.95
-7.68
-9.58
-10.67
-11.27
-11.70
-12.12
-12.40
-12.15
-10.95
-8.59
-5.15
-1.06
3.12
6.92
10.06
12.54
14.50
16.10
17.40
18.36
18.91
19.06
18.95
18.87
19.14
20.00
21.52
23.50
25.55
27.16
27.89
27.42
25.72
22.93
19.38
15.40
11.27
7.17
3.28
-0.25
-3.27
-5.70
-7.60
-9.13
-10.49
-11.82
-13.12
-14.29
-15.20
-15.79
-16.12
-16.44
-16.97
-17.87
-19.12
-20.42
-21.39
-21.56
-20.61
-18.36
-14.93
-10.65
-5.92
-1.22
3.14
6.91
10.00
12.41
14.18
15.35
16.02
16.30
16.40
16.52
16.80
17.29
17.81
18.15
18.06
17.50
16.51
15.26
13.93
12.60
11.28
9.93
8.52
7.07
5.64
4.29
3.06
1.94
0.86
-0.29
-1.61
-3.20
-5.10
-7.26
-9.59
-12.00
-14.39
-16.76
-19.10
-21.40
-23.60
-25.50
-26.79
-27.09
-26.12
-23.69
-19.86
-14.93
-9.37
-3.76
1.36
5.61
8.84
11.11
12.62
13.62
14.27
14.68
14.85
14.82
14.66
14.49
14.39
14.38
14.37
14.19
13.78
13.08
12.18
11.24
10.40
9.72
9.12
8.51
7.75
6.74
5.49
4.02
2.48
0.97
-0.39
-1.59
-2.68
-3.75
-4.94
-6.32
-7.90
-9.59
-11.25
-12.66
-13.63
-14.00
-13.75
-13.02
-12.10
-11.39
-11.26
-12.03
-13.73
-16.07
-18.52
-20.39
-21.06
-20.17
-17.73
-14.08
-9.78
-5.37
-1.33
1.98
4.31
5.50
5.60
4.78
3.44
2.08
1.18
1.00
1.55
2.60
3.86
4.99
5.80
6.14
6.00
5.42
4.57
3.61
2.71
1.98
1.37
0.83
0.27
-0.24
-0.55
-0.52
-0.06
0.72
1.60
2.23
2.38
1.91
0.87
-0.56
-2.16
-3.74
-5.15
-6.33
-7.36
-8.35
-9.49
-10.90
-12.60
-14.43
-16.10
-17.25
-17.57
-16.86
-15.06
-12.30
-8.80
-4.86
-0.83
3.02
6.41
9.24
11.51
13.26
14.50
15.16
15.23
14.74
13.91
12.98
12.22
11.73
11.53
11.50
11.54
11.62
11.78
12.09
12.49
12.86
12.99
12.76
12.04
10.86
9.32
7.51
5.58
3.67
1.89
0.28
-1.16
-2.51
-3.86
-5.24
-6.60
-7.79
-8.72
-9.38
-9.91
-10.58
-11.62
-13.20
-15.29
-17.68
-19.93
-21.60
-22.26
-21.64
-19.69
-16.61
-12.78
-8.62
-4.55
-0.81
2.44
5.14
7.25
8.77
9.70
10.14
10.27
10.33
10.64
11.42
12.72
14.36
15.99
17.27
17.94
17.92
17.25
16.11
14.70
13.18
11.68
10.22
8.87
7.63
6.53
5.61
4.92
4.48
4.22
3.99
3.57
2.80
1.62
0.11
-1.53
-3.17
-4.77
-6.40
-8.24
-10.42
-12.96
-15.80
-18.76
-21.66
-24.34
-26.63
-28.22
-28.80
-28.03
-25.74
-21.95
-16.99
-11.37
-5.63
-0.25
4.46
8.31
11.21
13.13
14.11
14.21
13.63
12.60
11.38
10.18
9.15
8.38
7.95
7.93
8.39
9.26
10.36
11.38
11.97
11.90
11.11
9.75
8.04
6.25
4.56
3.06
1.76
0.71
-0.06
-0.55
-0.81
-0.98
-1.21
-1.68
-2.46
-3.55
-4.84
-6.17
-7.42
-8.51
-9.48
-10.44
-11.54
-12.92
-14.72
-17.01
-19.75
-22.77
-25.67
-27.94
-29.00
-28.40
-26.00
-22.05
-17.08
-11.80
-6.79
-2.46
1.04
3.70
5.56
6.70
7.17
7.13
6.74
6.25
5.81
5.51
5.38
5.35
5.38
5.44
5.52
5.61
5.73
5.85
5.93
5.93
5.74
5.23
4.34
3.05
1.54
0.18
-0.66
-0.78
-0.24
0.61
1.28
1.35
0.60
-1.00
-3.31
-6.20
-9.63
-13.61
-18.12
-23.05
-28.10
-32.82
-36.71
-39.25
-40.07
-39.01
-36.19
-32.00
-26.89
-21.27
-15.45
-9.63
-3.93
1.44
6.28
10.38
13.56
15.78
17.13
17.78
17.94
17.90
17.98
18.44
19.49
21.14
23.13
25.04
26.40
26.84
26.29
24.93
23.11
21.17
19.28
17.45
15.55
13.50
11.25
8.88
6.44
4.13
2.21
1.08
1.12
2.54
5.17
8.42
11.45
13.42
13.81
12.56
9.92
6.29
2.08
-2.46
-7.18
-11.92
-16.51
-20.74
-24.34
-27.08
-28.74
-29.19
-28.36
-26.38
-23.46
-19.95
-16.25
-12.68
-9.58
-7.23
-5.83
-5.37
-5.44
-5.15
-3.35
1.02
8.32
17.96
28.43
37.83
44.54
47.74
47.54
44.78
40.56
35.80
31.08
26.71
22.76
19.19
15.84
12.46
8.79
4.63
-0.03
-4.93
-9.58
-13.33
-15.49
-15.61
-13.64
-10.05
-5.73
-1.75
1.05
2.20
1.68
-0.17
-2.91
-6.22
-9.85
-13.59
-17.07
-19.78
-21.19
-20.92
-18.92
-15.46
-11.14
-6.62
-2.48
0.96
3.65
5.66
7.15
8.19
8.83
9.08
9.00
8.74
8.49
8.36
8.35
8.37
8.25
7.90
7.33
6.67
6.06
5.54
5.03
4.37
3.49
2.46
1.49
0.84
0.64
0.83
1.06
1.03
0.45
-0.70
-2.29
-4.02
-5.69
-7.20
-8.53
-9.80
-11.08
-12.45
-13.96
-15.61
-17.26
-18.66
-19.48
-19.40
-18.23
-15.95
-12.80
-9.11
-5.34
-1.78
1.38
4.06
6.27
8.04
9.41
10.42
11.14
11.59
11.80
11.78
11.56
11.15
10.57
9.86
9.10
8.32
7.56
6.83
6.14
5.49
4.87
4.23
3.48
2.55
1.38
-0.03
-1.63
-3.30
-4.96
-6.52
-7.94
-9.16
-10.05
-10.49
-10.40
-9.85
-9.06
-8.43
-8.31
-8.95
-10.33
-12.12
-13.78
-14.74
-14.55
-13.04
-10.32
-6.73
-2.75
1.21
4.82
7.88
10.33
12.16
13.38
14.06
14.26
14.10
13.71
13.24
12.83
12.50
12.23
11.94
11.60
11.25
10.97
10.85
10.89
10.97
10.90
10.47
9.58
8.28
6.78
5.33
4.13
3.24
2.59
2.06
1.50
0.81
-0.11
-1.31
-2.83
-4.69
-6.87
-9.27
-11.73
-14.04
-16.02
-17.65
-19.04
-20.45
-22.10
-24.03
-25.98
-27.38
-27.58
-26.15
-23.04
-18.60
-13.44
-8.16
-3.18
1.35
5.41
9.03
12.15
14.59
16.23
17.00
17.10
16.80
16.45
16.24
16.20
16.22
16.15
15.87
15.42
14.95
14.59
14.39
14.33
14.23
13.93
13.37
12.54
11.49
10.30
9.03
7.68
6.32
4.95
3.63
2.40
1.22
0.05
-1.19
-2.57
-4.11
-5.78
-7.50
-9.17
-10.72
-12.16
-13.58
-15.18
-17.15
-19.57
-22.32
-25.04
-27.24
-28.40
-28.16
-26.33
-22.98
-18.45
-13.15
-7.62
-2.39
2.10
5.54
7.85
9.15
9.75
10.04
10.32
10.80
11.52
12.43
13.39
14.32
15.15
15.88
16.52
17.05
17.42
17.61
17.55
17.21
16.54
15.47
13.95
11.96
9.64
7.19
4.92
3.06
1.75
0.87
0.19
-0.58
-1.67
-3.10
-4.70
-6.25
-7.50
-8.23
-8.37
-7.97
-7.17
-6.23
-5.55
-5.53
-6.51
-8.64
-11.84
-15.76
-19.85
-23.47
-25.98
-26.94
-26.19
-23.91
-20.53
-16.62
-12.75
-9.31
-6.45
-4.12
-2.13
-0.28
1.54
3.38
5.17
6.84
8.31
9.58
10.63
11.54
12.31
12.94
13.35
13.49
13.27
12.68
11.73
10.50
9.08
7.56
6.05
4.63
3.35
2.26
1.35
0.56
-0.22
-1.06
-2.04
-3.18
-4.38
-5.56
-6.66
-7.68
-8.68
-9.77
-11.07
-12.58
-14.20
-15.66
-16.65
-16.81
-15.87
-13.76
-10.60
-6.68
-2.42
1.76
5.52
8.63
11.01
12.69
13.80
14.50
14.94
15.17
15.20
15.02
14.62
14.06
13.50
13.08
12.89
12.94
13.11
13.21
13.12
12.70
11.93
10.85
9.51
8.02
6.46
4.94
3.49
2.16
0.87
-0.48
-2.00
-3.75
-5.66
-7.55
-9.28
-10.70
-11.79
-12.63
-13.37
-14.18
-15.23
-16.56
-18.07
-19.54
-20.62
-20.96
-20.28
-18.49
-15.73
-12.30
-8.53
-4.71
-1.10
2.12
4.83
6.92
8.34
9.13
9.39
9.30
9.01
8.58
8.03
7.33
6.49
5.58
4.74
4.18
4.03
4.32
4.93
5.61
6.03
5.93
5.18
3.84
2.19
0.56
-0.67
-1.27
-1.20
-0.70
-0.15
0.02
-0.52
-1.91
-4.02
-6.55
-9.15
-11.55
-13.71
-15.69
-17.56
-19.35
-20.91
-21.95
-22.16
-21.31
-19.32
-16.25
-12.24
-7.47
-2.08
3.74
9.68
15.31
20.11
23.57
25.39
25.58
24.43
22.46
20.26
18.23
16.64
15.48
14.64
14.00
13.43
12.92
12.45
12.05
11.72
11.47
11.32
11.27
11.27
11.21
10.99
10.56
10.02
9.51
9.15
8.91
8.57
7.85
6.52
4.56
2.12
-0.51
-2.98
-5.06
-6.61
-7.70
-8.59
-9.78
-11.94
-15.67
-21.23
-28.26
-35.79
-42.44
-46.83
-47.96
-45.55
-39.98
-32.12
-23.10
-13.95
-5.50
1.75
7.56
11.96
15.08
17.14
18.40
19.13
19.58
20.01
20.51
21.03
21.36
21.29
20.71
19.74
18.65
17.72
17.10
16.71
16.24
15.32
13.72
11.41
8.65
5.72
2.94
0.44
-1.81
-3.93
-5.99
-7.94
-9.55
-10.61
-11.01
-10.94
-10.74
-10.85
-11.54
-12.86
-14.65
-16.73
-18.92
-21.06
-22.95
-24.26
-24.58
-23.60
-21.21
-17.72
-13.71
-9.82
-6.54
-4.02
-2.17
-0.79
0.24
0.95
1.27
1.12
0.52
-0.40
-1.48
-2.52
-3.38
-3.99
-4.33
-4.43
-4.38
-4.21
-3.91
-3.49
-2.94
-2.34
-1.80
-1.42
-1.31
-1.47
-1.84
-2.26
-2.58
-2.69
-2.60
-2.39
-2.20
-2.16
-2.40
-2.96
-3.89
-5.21
-6.89
-8.85
-10.89
-12.67
-13.72
-13.67
-12.24
-9.52
-5.83
-1.58
2.77
6.85
10.47
13.49
15.75
17.16
17.60
17.14
16.06
14.79
13.75
13.26
13.36
13.90
14.62
15.25
15.65
15.76
15.59
15.13
14.38
13.31
11.91
10.23
8.30
6.17
3.88
1.48
-0.95
-3.26
-5.33
-7.08
-8.53
-9.83
-11.16
-12.70
-14.53
-16.56
-18.56
-20.18
-21.11
-21.00
-19.70
-17.18
-13.64
-9.44
-4.99
-0.68
3.18
6.42
9.03
11.02
12.41
13.25
13.58
13.52
13.18
12.72
12.28
11.96
11.74
11.55
11.30
10.92
10.40
9.83
9.31
8.91
8.61
8.33
7.88
7.16
6.07
4.59
2.78
0.72
-1.45
-3.64
-5.74
-7.73
-9.64
-11.55
-13.55
-15.73
-18.06
-20.42
-22.56
-24.21
-25.04
-24.79
-23.32
-20.62
-16.90
-12.53
-7.89
-3.39
0.69
4.17
7.00
9.23
10.96
12.32
13.40
14.30
15.00
15.47
15.63
15.45
14.97
14.33
13.70
13.22
12.89
12.68
12.47
12.17
11.71
11.02
10.13
9.05
7.84
6.57
5.35
4.23
3.30
2.49
1.75
0.97
0.02
-1.09
-2.39
-3.84
-5.42
-7.06
-8.71
-10.31
-11.82
-13.25
-14.72
-16.33
-18.19
-20.25
-22.29
-23.87
-24.52
-23.88
-21.81
-18.51
-14.38
-9.93
-5.58
-1.52
2.20
5.62
8.73
11.41
13.53
15.02
15.97
16.65
17.33
18.21
19.27
20.33
21.14
21.49
21.37
20.87
20.18
19.45
18.75
18.06
17.33
16.54
15.69
14.81
13.90
12.96
11.97
10.83
9.53
8.07
6.50
4.92
3.46
2.24
1.37
0.84
0.51
0.16
-0.43
-1.38
-2.71
-4.28
-5.92
-7.50
-8.94
-10.28
-11.58
-12.90
-14.32
-15.95
-17.86
-20.05
-22.33
-24.26
-25.33
-25.09
-23.37
-20.39
-16.66
-12.82
-9.40
-6.71
-4.78
-3.52
-2.79
-2.51
-2.62
-3.03
-3.58
-4.04
-4.23
-4.05
-3.49
-2.71
-1.86
-1.12
-0.51
-0.02
0.47
1.02
1.63
2.20
2.59
2.70
2.50
2.01
1.32
0.54
-0.24
-0.90
-1.27
-1.28
-0.87
-0.20
0.49
0.87
0.69
-0.09
-1.29
-2.59
-3.66
-4.27
-4.43
-4.36
-4.39
-4.82
-5.82
-7.35
-9.17
-10.97
-12.41
-13.21
-13.18
-12.17
-10.13
-7.10
-3.28
0.97
5.23
9.13
12.43
15.01
16.89
18.09
18.71
18.79
18.43
17.77
17.02
16.34
15.82
15.48
15.19
14.81
14.23
13.42
12.49
11.59
10.89
10.41
10.08
9.72
9.17
8.42
7.60
6.90
6.45
6.21
6.03
5.67
4.94
3.75
2.15
0.24
-1.86
-4.03
-6.17
-8.14
-9.84
-11.24
-12.37
-13.39
-14.52
-15.96
-17.73
-19.65
-21.34
-22.28
-21.98
-20.14
-16.69
-11.92
-6.35
-0.57
4.82
9.42
13.08
15.88
18.01
19.71
21.15
22.38
23.40
24.13
24.37
23.82
22.05
18.75
13.89
7.87
1.50
-4.25
-8.57
-11.16
-12.28
-12.63
-12.96
-13.73
-14.97
-16.27
-17.01
-16.69
-15.12
-12.42
-9.06
-5.57
-2.48
-0.22
0.86
0.54
-1.37
-4.84
-9.54
-14.89
-20.14
-24.53
-27.60
-29.26
-29.79
-29.59
-29.00
-28.05
-26.58
-24.27
-20.88
-16.36
-10.89
-4.92
1.07
6.59
11.25
14.82
17.28
18.82
19.70
20.23
20.62
20.90
21.00
20.85
20.39
19.71
18.91
18.03
17.08
16.02
14.82
13.46
11.98
10.41
8.72
6.92
4.96
2.93
1.00
-0.62
-1.82
-2.56
-2.93
-3.07
-3.09
-3.06
-2.97
-2.83
-2.69
-2.68
-2.92
-3.51
-4.51
-5.88
-7.59
-9.55
-11.62
-13.59
-15.15
-15.97
-15.82
-14.67
-12.68
-10.17
-7.45
-4.74
-2.08
0.57
3.33
6.20
9.05
11.69
13.90
15.56
16.66
17.28
17.49
17.30
16.69
15.58
14.00
12.08
10.03
8.07
6.34
4.85
3.55
2.29
1.03
-0.25
-1.55
-2.81
-4.01
-5.09
-6.05
-6.89
-7.67
-8.41
-9.14
-9.84
-10.47
-11.04
-11.56
-12.12
-12.81
-13.66
-14.63
-15.67
-16.78
-17.97
-19.26
-20.53
-21.44
-21.62
-20.67
-18.48
-15.25
-11.45
-7.57
-4.10
-1.25
0.89
2.39
3.31
3.76
3.83
3.68
3.56
3.60
3.91
4.48
5.20
6.03
6.89
7.80
8.72
9.57
10.22
10.54
10.45
9.98
9.21
8.29
7.32
6.38
5.47
4.58
3.72
2.86
1.97
0.98
-0.16
-1.48
-2.94
-4.47
-6.04
-7.61
-9.26
-11.08
-13.08
-15.15
-16.96
-18.12
-18.27
-17.20
-14.94
-11.73
-7.93
-3.86
0.22
4.22
8.09
11.84
15.38
18.49
20.94
22.50
23.12
22.90
22.13
21.17
20.27
19.58
19.01
18.42
17.63
16.52
15.06
13.30
11.39
9.40
7.44
5.54
3.73
2.01
0.46
-0.80
-1.74
-2.41
-3.02
-3.86
-5.20
-7.07
-9.31
-11.63
-13.73
-15.49
-16.96
-18.32
-19.73
-21.22
-22.61
-23.60
-23.80
-22.94
-20.86
-17.66
-13.62
-9.17
-4.74
-0.70
2.70
5.35
7.24
8.45
9.14
9.43
9.45
9.36
9.28
9.36
9.72
10.35
11.15
11.89
12.32
12.26
11.68
10.75
9.73
8.78
7.96
7.17
6.32
5.27
4.04
2.68
1.23
-0.28
-1.86
-3.47
-5.07
-6.55
-7.86
-8.94
-9.88
-10.79
-11.78
-12.93
-14.25
-15.67
-17.12
-18.48
-19.56
-20.14
-19.94
-18.67
-16.20
-12.57
-8.14
-3.40
1.09
4.89
7.81
9.83
11.09
11.61
11.43
10.63
9.45
8.34
7.72
7.82
8.59
9.72
10.88
12.00
13.30
15.13
17.73
20.86
23.93
26.20
27.14
26.66
25.05
22.76
20.10
17.19
13.94
10.28
6.25
2.08
-1.87
-5.31
-8.06
-10.18
-11.77
-13.01
-13.98
-14.68
-15.12
-15.30
-15.35
-15.50
-16.07
-17.24
-19.11
-21.51
-24.12
-26.48
-28.12
-28.66
-27.83
-25.52
-21.83
-17.01
-11.47
-5.70
-0.15
4.82
9.00
12.32
14.83
16.60
17.71
18.21
18.20
17.80
17.19
16.52
15.93
15.47
15.12
14.83
14.49
14.08
13.58
12.99
12.30
11.44
10.34
9.00
7.48
5.94
4.59
3.59
2.99
2.74
2.63
2.49
2.26
2.01
1.82
1.72
1.58
1.17
0.26
-1.26
-3.31
-5.64
-8.00
-10.21
-12.26
-14.28
-16.42
-18.74
-21.24
-23.77
-26.04
-27.67
-28.25
-27.46
-25.10
-21.24
-16.21
-10.50
-4.75
0.50
4.81
7.96
9.89
10.68
10.51
9.66
8.45
7.16
6.02
5.15
4.58
4.23
4.01
3.84
3.69
3.57
3.49
3.51
3.66
4.01
4.56
5.27
6.01
6.64
7.08
7.29
7.36
7.36
7.28
7.04
6.44
5.28
3.55
1.39
-0.93
-3.13
-5.02
-6.53
-7.73
-8.74
-9.68
-10.64
-11.73
-13.02
-14.42
-15.73
-16.55
-16.49
-15.25
-12.77
-9.34
-5.39
-1.39
2.34
5.68
8.61
11.14
13.19
14.68
15.50
15.71
15.46
15.01
14.55
14.15
13.82
13.43
12.97
12.46
12.04
11.82
11.83
11.94
11.94
11.55
10.56
8.93
6.79
4.37
1.91
-0.38
-2.42
-4.22
-5.80
-7.19
-8.35
-9.30
-10.05
-10.64
-11.14
-11.54
-11.82
-11.96
-12.02
-12.13
-12.51
-13.27
-14.33
-15.41
-16.07
-15.88
-14.59
-12.20
-8.97
-5.36
-1.87
1.10
3.33
4.76
5.58
6.08
6.53
7.13
7.97
9.00
10.13
11.25
12.31
13.28
14.16
14.88
15.36
15.55
15.41
14.98
14.33
13.50
12.43
11.00
9.09
6.71
4.06
1.54
-0.45
-1.67
-2.10
-1.98
-1.72
-1.68
-2.12
-3.10
-4.50
-6.14
-7.84
-9.49
-11.02
-12.46
-13.89
-15.39
-16.99
-18.64
-20.11
-21.12
-21.28
-20.30
-18.05
-14.62
-10.31
-5.57
-0.85
3.47
7.12
9.95
11.90
12.98
13.28
12.97
12.32
11.58
11.03
10.81
10.98
11.49
12.23
13.06
13.87
14.58
15.11
15.43
15.50
15.20
14.39
12.89
10.59
7.52
3.95
0.38
-2.63
-4.66
-5.57
-5.64
-5.35
-5.24
-5.66
-6.65
-7.96
-9.26
-10.28
-10.93
-11.28
-11.49
-11.67
-11.94
-12.36
-13.07
-14.17
-15.72
-17.65
-19.71
-21.50
-22.56
-22.46
-20.97
-18.14
-14.22
-9.62
-4.88
-0.47
3.24
6.07
8.04
9.30
10.03
10.43
10.68
10.84
10.98
11.13
11.32
11.56
11.89
12.28
12.73
13.18
13.54
13.79
13.90
13.90
13.78
13.48
12.90
11.97
10.61
8.90
7.05
5.28
3.79
2.65
1.73
0.81
-0.34
-1.88
-3.77
-5.83
-7.82
-9.54
-10.92
-12.06
-13.11
-14.24
-15.57
-17.21
-19.18
-21.40
-23.55
-25.12
-25.44
-23.92
-20.34
-14.95
-8.44
-1.72
4.32
9.11
12.33
13.99
14.25
13.39
11.76
9.79
7.92
6.51
5.72
5.49
5.57
5.67
5.54
5.11
4.49
3.85
3.38
3.11
3.02
2.92
2.65
2.09
1.21
-0.01
-1.51
-3.28
-5.25
-7.35
-9.44
-11.34
-12.75
-13.37
-12.93
-11.30
-8.61
-5.27
-1.89
0.87
2.45
2.55
1.21
-1.28
-4.39
-7.61
-10.48
-12.73
-14.27
-15.22
-15.69
-15.77
-15.40
-14.55
-13.23
-11.66
-10.16
-9.05
-8.57
-8.83
-9.77
-11.06
-12.03
-11.56
-8.30
-1.19
9.85
23.57
37.52
48.85
55.44
56.66
53.45
47.70
41.26
35.21
29.76
24.62
19.53
14.59
10.21
6.71
4.14
2.16
0.28
-1.88
-4.39
-7.05
-9.49
-11.47
-13.02
-14.41
-16.09
-18.41
-21.42
-24.78
-27.82
-29.69
-29.79
-27.87
-24.18
-19.35
-14.14
-9.15
-4.69
-0.76
2.71
5.81
8.41
10.34
11.40
11.55
10.96
9.89
8.61
7.32
6.12
5.08
4.34
4.08
4.41
5.37
6.83
8.52
10.12
11.34
11.96
11.91
11.18
9.81
7.94
5.80
3.67
1.86
0.53
-0.37
-1.06
-1.87
-3.09
-4.86
-7.06
-9.49
-11.89
-14.10
-16.10
-17.98
-19.68
-21.04
-21.71
-21.27
-19.50
-16.41
-12.31
-7.71
-3.15
0.92
4.29
6.92
8.87
10.24
11.19
11.81
12.22
12.50
12.72
12.92
13.11
13.25
13.31
13.32
13.33
13.37
13.47
13.55
13.48
13.15
12.50
11.56
10.47
9.36
8.36
7.53
6.85
6.25
5.61
4.74
3.51
1.82
-0.31
-2.69
-5.09
-7.30
-9.21
-10.89
-12.52
-14.26
-16.19
-18.21
-20.06
-21.35
-21.73
-20.95
-18.94
-15.88
-12.09
-8.02
-4.17
-0.92
1.44
2.80
3.20
2.83
2.05
1.23
0.75
0.79
1.40
2.43
3.61
4.68
5.42
5.77
5.79
5.60
5.32
4.98
4.51
3.81
2.79
1.43
-0.24
-2.11
-4.06
-5.94
-7.65
-9.14
-10.36
-11.32
-12.09
-12.81
-13.63
-14.64
-15.85
-17.10
-18.23
-19.07
-19.52
-19.56
-19.28
-18.64
-17.53
-15.73
-13.00
-9.26
-4.65
0.46
5.61
10.30
14.21
17.15
19.10
20.16
20.49
20.30
19.83
19.30
18.88
18.65
18.59
18.60
18.61
18.55
18.38
18.03
17.42
16.48
15.18
13.62
11.97
10.41
9.05
7.84
6.62
5.18
3.42
1.36
-0.84
-3.00
-4.98
-6.72
-8.25
-9.64
-10.98
-12.35
-13.82
-15.45
-17.22
-18.95
-20.32
-20.92
-20.36
-18.45
-15.28
-11.20
-6.77
-2.51
1.18
4.08
6.20
7.67
8.66
9.30
9.69
9.88
9.90
9.78
9.59
9.42
9.38
9.54
9.87
10.28
10.62
10.73
10.50
9.97
9.24
8.46
7.73
6.97
6.05
4.82
3.22
1.42
-0.32
-1.71
-2.66
-3.24
-3.73
-4.34
-5.19
-6.26
-7.39
-8.42
-9.30
-10.07
-10.82
-11.70
-12.82
-14.25
-16.05
-18.20
-20.53
-22.70
-24.23
-24.57
-23.36
-20.50
-16.26
-11.27
-6.19
-1.56
2.35
5.67
8.74
11.93
15.36
18.91
22.16
24.70
26.25
26.76
26.52
25.95
25.50
25.48
25.89
26.51
27.01
27.06
26.48
25.32
23.79
22.18
20.68
19.36
18.10
16.77
15.19
13.27
10.97
8.22
4.93
1.05
-3.33
-7.90
-12.22
-15.76
-18.18
-19.44
-19.88
-20.00
-20.27
-20.91
-21.87
-22.98
-24.05
-25.08
-26.15
-27.38
-28.75
-30.01
-30.81
-30.76
-29.65
-27.47
-24.36
-20.50
-16.09
-11.29
-6.32
-1.43
3.05
6.81
9.64
11.53
12.74
13.64
14.64
16.05
17.95
20.15
22.32
24.02
24.91
24.82
23.79
21.97
19.67
17.19
14.77
12.61
10.75
9.17
7.85
6.74
5.82
5.06
4.35
3.56
2.53
1.23
-0.28
-1.75
-2.96
-3.80
-4.37
-4.94
-5.77
-7.02
-8.66
-10.47
-12.20
-13.70
-14.95
-16.13
-17.47
-19.21
-21.43
-24.02
-26.63
-28.73
-29.76
-29.27
-27.10
-23.47
-18.81
-13.73
-8.76
-4.30
-0.50
2.73
5.60
8.39
11.27
14.20
16.93
19.04
20.12
19.94
18.55
16.27
13.61
11.04
8.88
7.24
6.11
5.38
4.95
4.75
4.67
4.55
4.21
3.51
2.42
1.08
-0.30
-1.52
-2.45
-3.16
-3.79
-4.51
-5.38
-6.38
-7.39
-8.29
-8.98
-9.43
-9.67
-9.83
-10.12
-10.74
-11.90
-13.59
-15.57
-17.39
-18.46
-18.31
-16.69
-13.70
-9.69
-5.21
-0.77
3.28
6.73
9.53
11.64
13.01
13.60
13.48
12.83
12.04
11.48
11.46
12.05
13.08
14.21
15.11
15.53
15.39
14.73
13.66
12.27
10.65
8.89
7.09
5.39
3.90
2.67
1.70
0.89
0.12
-0.69
-1.62
-2.68
-3.86
-5.14
-6.47
-7.80
-9.16
-10.62
-12.26
-14.21
-16.50
-19.05
-21.60
-23.75
-25.09
-25.31
-24.26
-22.01
-18.81
-14.98
-10.87
-6.75
-2.87
0.58
3.39
5.40
6.61
7.11
7.16
7.05
7.00
7.07
7.22
7.27
7.13
6.78
6.24
5.58
4.86
4.07
3.22
2.36
1.59
1.04
0.86
1.13
1.80
2.74
3.71
4.49
4.89
4.83
4.40
3.72
2.94
2.17
1.41
0.62
-0.29
-1.38
-2.69
-4.25
-6.07
-8.17
-10.47
-12.75
-14.61
-15.59
-15.29
-13.58
-10.72
-7.13
-3.44
-0.11
2.59
4.55
5.74
6.18
5.83
4.71
3.03
1.17
-0.41
-1.23
-1.05
0.15
2.15
4.61
7.19
9.67
11.91
13.82
15.33
16.32
16.70
16.41
15.42
13.82
11.72
9.28
6.70
4.23
2.08
0.31
-1.05
-2.19
-3.35
-4.71
-6.34
-8.17
-10.03
-11.85
-13.58
-15.21
-16.75
-18.18
-19.42
-20.33
-20.74
-20.46
-19.32
-17.23
-14.22
-10.50
-6.43
-2.34
1.45
4.79
7.63
9.95
11.76
13.04
13.80
14.07
14.03
13.82
13.68
13.75
14.07
14.54
14.94
15.05
14.79
14.23
13.63
13.22
13.16
13.36
13.63
13.68
13.34
12.58
11.52
10.33
9.16
8.03
6.87
5.53
3.88
1.84
-0.54
-3.15
-5.76
-8.19
-10.29
-12.03
-13.50
-14.82
-16.09
-17.34
-18.54
-19.58
-20.30
-20.50
-19.96
-18.45
-15.84
-12.15
-7.56
-2.47
2.66
7.35
11.24
14.18
16.25
17.61
18.53
19.23
19.83
20.37
20.78
21.05
21.21
21.36
21.58
21.89
22.22
22.44
22.39
21.99
21.23
20.15
18.84
17.38
15.79
14.12
12.40
10.68
9.03
7.47
5.96
4.37
2.53
0.31
-2.32
-5.23
-8.20
-11.01
-13.57
-15.91
-18.11
-20.28
-22.39
-24.36
-26.09
-27.52
-28.73
-29.88
-31.23
-32.93
-35.05
-37.42
-39.64
-41.16
-41.43
-40.06
-37.01
-32.59
-27.36
-21.94
-16.89
-12.60
-9.24
-6.83
-5.24
-4.22
-3.48
-2.75
-1.80
-0.53
1.05
2.88
4.87
6.95
9.05
11.04
12.82
14.27
15.38
16.20
16.80
17.23
17.42
17.25
16.58
15.38
13.76
11.94
10.17
8.64
7.41
6.44
5.59
4.72
3.68
2.37
0.74
-1.13
-3.05
-4.80
-6.20
-7.23
-8.06
-8.96
-10.11
-11.52
-12.87
-13.65
-13.32
-11.58
-8.42
-4.21
0.50
5.11
9.20
12.44
14.74
16.11
16.60
16.35
15.53
14.43
13.42
12.84
12.91
13.62
14.77
15.99
16.98
17.50
17.49
17.05
16.26
15.30
14.26
13.23
12.23
11.31
10.38
9.33
8.07
6.53
4.80
3.06
1.48
0.08
-1.16
-2.39
-3.72
-5.15
-6.62
-7.96
-9.07
-9.92
-10.61
-11.28
-12.10
-13.15
-14.51
-16.19
-18.15
-20.22
-22.09
-23.31
-23.44
-22.16
-19.44
-15.62
-11.30
-7.13
-3.65
-1.03
0.80
2.09
3.01
3.67
4.00
3.94
3.48
2.76
1.91
1.03
0.11
-0.94
-2.16
-3.49
-4.76
-5.72
-6.13
-5.93
-5.18
-4.09
-3.00
-2.23
-2.09
-2.75
-4.19
-6.17
-8.26
-9.99
-10.90
-10.65
-9.16
-6.62
-3.45
-0.29
2.13
3.17
2.50
0.25
-2.96
-6.17
-8.47
-9.23
-8.29
-6.00
-2.97
0.14
2.77
4.56
5.36
5.24
4.52
3.67
3.23
3.61
4.94
6.99
9.34
11.61
13.58
15.37
17.26
19.55
22.35
25.50
28.64
31.40
33.52
34.98
35.98
36.83
37.71
38.65
39.47
39.90
39.65
38.56
36.61
33.87
30.41
26.34
21.79
16.98
12.20
7.80
4.06
1.12
-1.11
-2.84
-4.37
-5.93
-7.58
-9.29
-10.95
-12.46
-13.80
-14.98
-16.09
-17.20
-18.35
-19.53
-20.72
-21.87
-22.96
-24.06
-25.26
-26.63
-28.10
-29.42
-30.18
-29.90
-28.27
-25.25
-21.16
-16.52
-11.91
-7.74
-4.23
-1.46
0.57
1.98
2.93
3.69
4.60
6.00
8.05
10.67
13.53
16.26
18.49
20.05
20.89
21.09
20.75
19.90
18.60
16.98
15.15
13.24
11.27
9.12
6.64
3.71
0.41
-3.02
-6.20
-8.84
-10.77
-12.05
-12.80
-13.19
-13.31
-13.17
-12.86
-12.49
-12.33
-12.64
-13.58
-15.13
-17.11
-19.16
-20.89
-21.91
-21.95
-20.86
-18.68
-15.65
-12.17
-8.75
-5.90
-3.93
-3.00
-3.02
-3.80
-5.15
-6.84
-8.70
-10.56
-12.19
-13.33
-13.79
-13.48
-12.49
-11.02
-9.30
-7.50
-5.73
-4.05
-2.46
-1.13
-0.16
0.34
0.38
0.14
-0.12
-0.18
0.09
0.62
1.15
1.44
1.26
0.52
-0.73
-2.30
-3.92
-5.23
-5.87
-5.56
-4.09
-1.49
1.98
5.92
9.82
13.25
15.97
17.84
18.90
19.23
18.93
18.04
16.64
14.81
12.71
10.54
8.53
6.85
5.58
4.76
4.29
4.07
3.96
3.80
3.44
2.81
1.89
0.70
-0.68
-2.15
-3.67
-5.22
-6.80
-8.38
-9.90
-11.23
-12.34
-13.25
-14.10
-15.01
-15.98
-16.79
-17.08
-16.41
-14.57
-11.64
-7.99
-4.12
-0.51
2.58
5.05
6.94
8.30
9.14
9.45
9.27
8.73
7.99
7.26
6.66
6.23
5.95
5.76
5.64
5.59
5.68
5.97
6.49
7.14
7.72
7.98
7.64
6.58
4.77
2.42
-0.16
-2.62
-4.71
-6.38
-7.70
-8.88
-10.15
-11.66
-13.43
-15.31
-17.06
-18.32
-18.76
-18.10
-16.21
-13.14
-9.18
-4.73
-0.32
3.60
6.77
9.09
10.63
11.58
12.13
12.46
12.71
12.89
13.02
13.12
13.22
13.33
13.54
13.89
14.36
14.85
15.23
15.37
15.19
14.68
13.84
12.73
11.37
9.82
8.16
6.55
5.09
3.83
2.72
1.68
0.64
-0.42
-1.48
-2.52
-3.57
-4.70
-5.96
-7.33
-8.71
-10.00
-11.12
-12.11
-13.11
-14.32
-15.93
-18.01
-20.44
-22.88
-24.85
-25.76
-25.19
-22.94
-19.20
-14.43
-9.27
-4.28
0.12
3.72
6.44
8.31
9.39
9.80
9.73
9.45
9.22
9.25
9.61
10.22
10.89
11.46
11.85
12.06
12.21
12.41
12.71
13.09
13.42
13.52
13.25
12.53
11.40
9.97
8.41
6.89
5.52
4.34
3.35
2.53
1.84
1.21
0.60
-0.02
-0.69
-1.43
-2.29
-3.29
-4.47
-5.83
-7.38
-9.03
-10.64
-12.06
-13.19
-14.04
-14.69
-15.29
-15.96
-16.85
-18.00
-19.41
-20.91
-22.20
-22.84
-22.44
-20.73
-17.70
-13.67
-9.11
-4.58
-0.54
2.72
5.10
6.67
7.60
8.07
8.31
8.55
8.98
9.73
10.86
12.27
13.74
14.99
15.78
16.04
15.84
15.43
15.01
14.71
14.46
14.09
13.42
12.37
11.02
9.57
8.22
7.10
6.25
5.62
5.11
4.61
4.01
3.25
2.31
1.25
0.17
-0.80
-1.60
-2.33
-3.15
-4.22
-5.63
-7.30
-8.99
-10.47
-11.56
-12.27
-12.79
-13.36
-14.27
-15.67
-17.60
-19.92
-22.35
-24.44
-25.71
-25.73
-24.15
-21.01
-16.57
-11.38
-6.03
-1.05
3.24
6.72
9.44
11.52
12.99
13.89
14.23
14.13
13.72
13.25
12.88
12.73
12.80
13.03
13.37
13.78
14.26
14.79
15.25
15.47
15.27
14.54
13.27
11.63
9.85
8.15
6.70
5.52
4.58
3.78
3.05
2.33
1.66
1.08
0.64
0.37
0.23
0.15
-0.04
-0.49
-1.38
-2.76
-4.58
-6.72
-8.93
-11.02
-12.81
-14.25
-15.36
-16.27
-17.14
-18.17
-19.46
-20.99
-22.57
-23.86
-24.45
-23.94
-22.10
-18.95
-14.76
-9.97
-5.14
-0.76
2.84
5.52
7.33
8.44
9.06
9.37
9.53
9.65
9.83
10.14
10.65
11.33
12.12
12.84
13.36
13.59
13.54
13.28
12.89
12.37
11.69
10.80
9.69
8.45
7.19
6.01
4.99
4.10
3.31
2.64
2.13
1.82
1.73
1.80
1.85
1.80
1.50
0.92
0.04
-1.07
-2.33
-3.63
-4.89
-6.06
-7.09
-8.02
-8.95
-10.04
-11.49
-13.48
-16.04
-18.96
-21.75
-23.71
-24.22
-22.92
-19.85
-15.39
-10.17
-4.78
0.22
4.56
8.03
10.57
12.14
12.81
12.77
12.30
11.72
11.27
11.10
11.15
11.32
11.50
11.64
11.77
12.01
12.40
12.96
13.60
14.15
14.45
14.41
13.97
13.12
11.93
10.46
8.85
7.20
5.70
4.42
3.39
2.53
1.63
0.55
-0.78
-2.31
-3.93
-5.51
-6.96
-8.29
-9.50
-10.61
-11.60
-12.51
-13.44
-14.64
-16.37
-18.70
-21.40
-23.92
-25.59
-25.83
-24.43
-21.62
-17.93
-13.98
-10.28
-7.06
-4.38
-2.24
-0.63
0.44
0.96
1.09
1.01
0.94
1.07
1.49
2.15
2.96
3.81
4.59
5.23
5.69
6.01
6.25
6.51
6.77
6.93
6.79
6.22
5.21
3.90
2.59
1.55
0.89
0.53
0.27
-0.09
-0.67
-1.43
-2.24
-3.02
-3.72
-4.41
-5.20
-6.17
-7.35
-8.71
-10.16
-11.64
-13.05
-14.26
-14.94
-14.72
-13.27
-10.49
-6.58
-2.00
2.61
6.68
9.87
12.06
13.34
13.90
13.90
13.54
12.98
12.36
11.75
11.16
10.54
9.83
9.07
8.34
7.78
7.50
7.49
7.63
7.71
7.54
6.99
6.09
4.98
3.89
3.03
2.48
2.20
1.96
1.45
0.43
-1.17
-3.23
-5.49
-7.70
-9.65
-11.32
-12.80
-14.22
-15.71
-17.29
-18.95
-20.56
-21.95
-22.84
-22.92
-21.95
-19.75
-16.38
-12.05
-7.22
-2.35
2.07
5.72
8.44
10.24
11.26
11.69
11.70
11.48
11.21
11.04
11.04
11.27
11.65
12.10
12.49
12.74
12.86
12.88
12.86
12.78
12.58
12.11
11.27
10.00
8.34
6.48
4.62
2.94
1.49
0.19
-1.13
-2.62
-4.31
-6.11
-7.83
-9.32
-10.51
-11.43
-12.21
-13.00
-13.98
-15.23
-16.84
-18.73
-20.62
-22.15
-22.79
-22.08
-19.80
-16.01
-11.07
-5.58
-0.14
4.80
8.91
12.11
14.38
15.74
16.16
15.73
14.53
12.87
11.15
9.74
8.94
8.82
9.23
9.97
10.80
11.60
12.29
12.92
13.44
13.82
13.95
13.67
12.89
11.57
9.79
7.76
5.77
4.08
2.80
1.89
1.12
0.28
-0.83
-2.26
-3.91
-5.62
-7.25
-8.62
-9.71
-10.54
-11.17
-11.80
-12.63
-13.89
-15.65
-17.84
-20.12
-22.01
-23.00
-22.63
-20.70
-17.29
-12.71
-7.47
-2.12
2.85
7.07
10.26
12.35
13.37
13.46
12.86
11.84
10.69
9.66
8.97
8.73
9.04
9.84
11.03
12.41
13.72
14.71
15.22
15.16
14.59
13.62
12.37
10.93
9.34
7.60
5.73
3.79
1.94
0.33
-0.87
-1.67
-2.20
-2.69
-3.40
-4.46
-5.85
-7.39
-8.87
-10.17
-11.30
-12.39
-13.65
-15.23
-17.10
-19.15
-21.15
-22.81
-23.83
-23.96
-22.95
-20.67
-17.19
-12.71
-7.64
-2.43
2.47
6.75
10.24
12.89
14.69
15.66
15.88
15.48
14.69
13.76
12.88
12.22
11.79
11.55
11.42
11.31
11.13
10.87
10.52
10.10
9.64
9.13
8.49
7.63
6.51
5.12
3.57
2.03
0.66
-0.44
-1.27
-1.86
-2.26
-2.51
-2.70
-2.92
-3.27
-3.80
-4.52
-5.42
-6.46
-7.62
-8.95
-10.51
-12.33
-14.41
-16.66
-18.90
-20.88
-22.26
-22.66
-21.74
-19.34
-15.53
-10.67
-5.31
-0.05
4.60
8.34
11.05
12.73
13.56
13.74
13.49
13.04
12.56
12.14
11.85
11.67
11.55
11.46
11.35
11.20
11.03
10.89
10.79
10.77
10.73
10.57
10.19
9.56
8.70
7.71
6.71
5.80
4.99
4.22
3.40
2.37
1.05
-0.61
-2.51
-4.50
-6.44
-8.18
-9.70
-11.00
-12.12
-13.17
-14.23
-15.41
-16.89
-18.71
-20.73
-22.61
-23.84
-23.91
-22.48
-19.46
-15.10
-9.81
-4.11
1.50
6.57
10.76
13.82
15.64
16.29
15.93
14.87
13.47
12.06
10.89
10.11
9.75
9.71
9.86
10.06
10.25
10.42
10.55
10.64
10.64
10.46
10.00
9.19
7.99
6.47
4.71
2.87
1.06
-0.59
-2.06
-3.38
-4.62
-5.86
-7.10
-8.33
-9.49
-10.58
-11.62
-12.71
-13.96
-15.43
-17.13
-18.93
-20.61
-21.90
-22.52
-22.21
-20.77
-18.07
-14.17
-9.32
-3.98
1.27
5.89
9.48
11.90
13.22
13.68
13.54
13.06
12.42
11.78
11.24
10.87
10.68
10.63
10.70
10.81
10.95
11.12
11.29
11.39
11.31
10.93
10.16
9.01
7.56
5.90
4.13
2.25
0.27
-1.86
-4.09
-6.32
-8.38
-10.12
-11.42
-12.31
-12.91
-13.44
-14.14
-15.18
-16.68
-18.55
-20.54
-22.13
-22.73
-21.82
-19.12
-14.79
-9.34
-3.59
1.69
5.95
8.96
10.82
11.77
12.14
12.16
11.98
11.68
11.38
11.16
11.11
11.27
11.61
12.05
12.54
13.00
13.37
13.57
13.46
12.90
11.84
10.32
8.50
6.53
4.54
2.56
0.57
-1.39
-3.24
-4.81
-6.02
-6.86
-7.47
-8.03
-8.72
-9.64
-10.85
-12.42
-14.36
-16.67
-19.14
-21.43
-22.97
-23.19
-21.68
-18.35
-13.51
-7.81
-2.05
3.06
7.04
9.71
11.20
11.74
11.64
11.11
10.35
9.49
8.70
8.08
7.74
7.73
7.95
8.28
8.56
8.68
8.64
8.52
8.38
8.26
8.09
7.70
6.99
5.93
4.62
3.27
2.04
0.94
-0.15
-1.38
-2.85
-4.45
-6.00
-7.30
-8.26
-8.95
-9.58
-10.36
-11.47
-13.01
-14.93
-17.13
-19.37
-21.26
-22.31
-22.07
-20.25
-16.86
-12.27
-7.02
-1.73
3.13
7.27
10.55
12.92
14.37
14.91
14.59
13.63
12.33
11.01
9.98
9.40
9.30
9.58
10.11
10.73
11.30
11.76
12.01
11.99
11.64
10.97
10.02
8.85
7.46
5.91
4.23
2.52
0.90
-0.53
-1.71
-2.68
-3.55
-4.44
-5.40
-6.42
-7.41
-8.29
-8.99
-9.58
-10.17
-10.92
-11.96
-13.40
-15.27
-17.44
-19.66
-21.57
-22.76
-22.84
-21.52
-18.71
-14.53
-9.36
-3.73
1.83
6.79
10.78
13.68
15.54
16.49
16.74
16.44
15.80
15.01
14.27
13.76
13.59
13.73
14.03
14.27
14.27
13.89
13.15
12.12
10.94
9.75
8.66
7.70
6.86
6.06
5.17
4.11
2.88
1.58
0.32
-0.75
-1.60
-2.30
-3.00
-3.86
-4.92
-6.15
-7.39
-8.52
-9.44
-10.15
-10.70
-11.22
-11.83
-12.67
-13.88
-15.57
-17.65
-19.79
-21.38
-21.74
-20.35
-17.07
-12.22
-6.49
-0.73
4.36
8.37
11.17
12.89
13.74
13.97
13.80
13.45
13.06
12.75
12.56
12.49
12.54
12.71
12.95
13.21
13.36
13.31
13.02
12.53
11.94
11.36
10.81
10.16
9.30
8.11
6.63
4.98
3.39
2.02
0.96
0.15
-0.60
-1.50
-2.71
-4.25
-6.04
-7.88
-9.57
-10.96
-12.05
-12.95
-13.85
-14.88
-16.18
-17.76
-19.57
-21.44
-23.11
-24.19
-24.28
-23.07
-20.47
-16.67
-12.08
-7.20
-2.55
1.47
4.61
6.73
7.83
8.05
7.60
6.82
6.01
5.39
5.05
5.00
5.15
5.44
5.84
6.35
7.03
7.89
8.88
9.85
10.69
11.18
11.21
10.67
9.53
7.88
5.89
3.77
1.75
-0.03
-1.53
-2.83
-4.10
-5.48
-7.00
-8.55
-10.00
-11.24
-12.24
-13.10
-13.99
-15.09
-16.54
-18.35
-20.35
-22.18
-23.37
-23.41
-21.95
-18.91
-14.49
-9.15
-3.45
2.08
7.03
11.11
14.15
16.03
16.76
16.50
15.47
14.05
12.65
11.58
11.05
11.11
11.61
12.36
13.20
14.02
14.73
15.27
15.50
15.31
14.57
13.22
11.36
9.17
6.86
4.59
2.48
0.58
-1.12
-2.66
-4.09
-5.47
-6.85
-8.26
-9.69
-11.07
-12.33
-13.40
-14.33
-15.27
-16.43
-17.98
-19.98
-22.19
-24.16
-25.29
-25.04
-23.07
-19.39
-14.33
-8.43
-2.34
3.33
8.10
11.68
13.94
14.98
15.00
14.25
13.04
11.68
10.43
9.55
9.23
9.51
10.38
11.67
13.12
14.46
15.48
16.04
16.08
15.61
14.63
13.17
11.28
9.06
6.65
4.26
2.09
0.28
-1.10
-2.13
-2.96
-3.75
-4.65
-5.71
-6.91
-8.20
-9.54
-10.95
-12.51
-14.34
-16.48
-18.86
-21.12
-22.80
-23.34
-22.34
-19.68
-15.52
-10.34
-4.69
0.81
5.71
9.71
12.72
14.80
16.08
16.76
17.00
16.96
16.68
16.24
15.72
15.21
14.83
14.58
14.42
14.23
13.91
13.38
12.61
11.64
10.51
9.23
7.77
6.13
4.33
2.52
0.88
-0.51
-1.64
-2.65
-3.73
-5.07
-6.75
-8.73
-10.84
-12.88
-14.71
-16.27
-17.62
-18.88
-20.18
-21.62
-23.15
-24.59
-25.63
-25.93
-25.21
-23.36
-20.46
-16.72
-12.51
-8.21
-4.18
-0.68
2.12
4.21
5.65
6.62
7.33
7.93
8.52
9.17
9.88
10.67
11.53
12.35
13.03
13.42
13.38
12.93
12.07
10.92
9.59
8.15
6.64
5.10
3.52
1.90
0.27
-1.32
-2.79
-4.02
-4.99
-5.71
-6.29
-6.85
-7.51
-8.33
-9.38
-10.75
-12.57
-14.91
-17.62
-20.29
-22.27
-22.89
-21.66
-18.54
-13.91
-8.43
-2.85
2.27
6.62
10.09
12.73
14.61
15.79
16.32
16.33
15.96
15.40
14.82
14.34
14.09
14.16
14.58
15.28
16.09
16.76
17.10
16.97
16.34
15.27
13.79
11.91
9.67
7.23
4.89
2.96
1.64
0.86
0.31
-0.40
-1.58
-3.27
-5.30
-7.39
-9.31
-11.01
-12.49
-13.87
-15.27
-16.82
-18.63
-20.78
-23.17
-25.46
-27.06
-27.32
-25.76
-22.27
-17.25
-11.39
-5.47
-0.08
4.47
8.15
11.01
13.14
14.60
15.41
15.67
15.64
15.57
15.71
16.17
16.89
17.71
18.42
18.89
19.03
18.90
18.51
17.88
17.01
15.92
14.64
13.31
12.04
10.94
10.00
9.08
8.09
6.91
5.52
4.02
2.51
1.06
-0.29
-1.60
-2.91
-4.27
-5.65
-7.07
-8.48
-9.88
-11.29
-12.74
-14.20
-15.67
-17.15
-18.71
-20.50
-22.62
-25.11
-27.77
-30.14
-31.60
-31.54
-29.55
-25.61
-20.07
-13.54
-6.77
-0.42
4.98
9.20
12.21
14.23
15.56
16.51
17.32
18.07
18.75
19.30
19.66
19.84
19.86
19.78
19.64
19.52
19.45
19.45
19.46
19.32
18.86
17.94
16.54
14.78
12.89
11.10
9.53
8.25
7.17
6.22
5.30
4.38
3.42
2.42
1.39
0.34
-0.71
-1.78
-2.92
-4.23
-5.73
-7.42
-9.20
-10.93
-12.55
-14.06
-15.57
-17.22
-19.13
-21.31
-23.59
-25.73
-27.31
-27.86
-26.92
-24.20
-19.70
-13.77
-7.07
-0.34
5.68
10.50
13.83
15.67
16.08
15.23
13.34
10.72
7.76
4.92
2.73
1.55
1.57
2.70
4.54
6.58
8.31
9.37
9.66
9.31
8.49
7.39
6.11
4.72
3.25
1.76
0.32
-1.00
-2.16
-3.15
-4.03
-4.77
-5.40
-5.92
-6.40
-6.92
-7.51
-8.20
-9.01
-9.91
-10.87
-11.85
-12.79
-13.72
-14.69
-15.78
-17.11
-18.67
-20.26
-21.47
-21.75
-20.62
-17.83
-13.48
-8.01
-2.03
3.82
9.05
13.32
16.42
18.31
19.00
18.63
17.42
15.70
13.85
12.23
11.15
10.72
10.92
11.54
12.28
12.89
13.21
13.23
12.97
12.44
11.56
10.25
8.46
6.26
3.89
1.64
-0.26
-1.74
-2.90
-3.91
-4.95
-6.05
-7.19
-8.26
-9.20
-10.01
-10.76
-11.56
-12.49
-13.66
-15.20
-17.21
-19.64
-22.24
-24.49
-25.67
-25.16
-22.57
-17.96
-11.79
-4.83
2.14
8.44
13.61
17.47
19.97
21.25
21.52
21.09
20.26
19.28
18.30
17.37
16.47
15.61
14.81
14.21
13.90
13.90
14.06
14.17
13.97
13.32
12.20
10.72
9.07
7.37
5.68
3.97
2.15
0.16
-2.01
-4.31
-6.67
-9.02
-11.29
-13.43
-15.41
-17.21
-18.86
-20.48
-22.23
-24.20
-26.37
-28.39
-29.71
-29.69
-27.83
-23.96
-18.34
-11.56
-4.38
2.43
8.30
12.80
15.78
17.25
17.44
16.71
15.50
14.26
13.37
13.01
13.24
13.95
14.97
16.08
17.11
17.90
18.34
18.33
17.79
16.76
15.33
13.61
11.75
9.82
7.87
5.92
3.95
2.01
0.17
-1.51
-3.06
-4.58
-6.21
-8.06
-10.12
-12.32
-14.51
-16.55
-18.38
-20.09
-21.81
-23.66
-25.60
-27.34
-28.40
-28.19
-26.21
-22.29
-16.66
-9.92
-2.95
3.41
8.57
12.21
14.35
15.18
14.99
14.08
12.75
11.21
9.71
8.49
7.68
7.38
7.53
7.98
8.48
8.86
8.95
8.74
8.30
7.70
6.96
6.06
4.95
3.63
2.20
0.80
-0.48
-1.58
-2.59
-3.64
-4.86
-6.26
-7.72
-9.12
-10.34
-11.38
-12.33
-13.37
-14.67
-16.32
-18.31
-20.50
-22.63
-24.30
-25.05
-24.35
-21.87
-17.53
-11.64
-4.88
1.86
7.71
12.06
14.64
15.59
15.30
14.23
12.84
11.42
10.13
9.09
8.40
8.13
8.31
8.90
9.75
10.69
11.57
12.28
12.80
13.12
13.17
12.80
11.89
10.38
8.40
6.21
4.16
2.54
1.39
0.58
-0.20
-1.22
-2.72
-4.64
-6.82
-9.02
-11.04
-12.81
-14.38
-15.96
-17.75
-19.94
-22.51
-25.20
-27.49
-28.70
-28.23
-25.75
-21.33
-15.39
-8.62
-1.71
4.70
10.19
14.50
17.53
19.33
20.01
19.82
19.04
17.97
16.94
16.15
15.72
15.66
15.85
16.12
16.29
16.22
15.88
15.32
14.60
13.75
12.75
11.51
9.99
8.20
6.30
4.43
2.77
1.36
0.14
-1.08
-2.47
-4.12
-5.99
-8.01
-10.08
-12.09
-14.01
-15.82
-17.51
-19.13
-20.78
-22.54
-24.50
-26.52
-28.18
-28.91
-28.06
-25.24
-20.47
-14.20
-7.20
-0.27
5.90
10.92
14.61
17.03
18.33
18.78
18.65
18.26
17.92
17.79
17.90
18.14
18.39
18.53
18.54
18.51
18.56
18.73
18.96
19.07
18.89
18.33
17.37
16.13
14.73
13.27
11.81
10.31
8.76
7.10
5.31
3.34
1.19
-1.14
-3.56
-5.93
-8.12
-10.05
-11.71
-13.25
-14.85
-16.71
-19.01
-21.80
-24.92
-28.01
-30.48
-31.66
-30.98
-28.15
-23.26
-16.78
-9.50
-2.22
4.28
9.47
13.07
15.06
15.66
15.21
14.04
12.49
10.83
9.27
8.01
7.22
6.97
7.25
7.91
8.75
9.54
10.14
10.40
10.25
9.63
8.46
6.74
4.53
1.96
-0.81
-3.60
-6.24
-8.59
-10.56
-12.19
-13.55
-14.79
-16.03
-17.28
-18.51
-19.60
-20.46
-21.16
-21.89
-22.87
-24.24
-25.90
-27.47
-28.39
-28.04
-26.05
-22.44
-17.63
-12.34
-7.30
-3.06
0.16
2.40
3.90
4.86
5.43
5.69
5.72
5.58
5.40
5.35
5.52
6.06
7.02
8.47
10.43
12.78
15.26
17.49
19.07
19.68
19.23
17.87
15.86
13.53
11.09
8.64
6.22
3.92
1.79
-0.05
-1.57
-2.89
-4.16
-5.59
-7.27
-9.15
-11.13
-13.12
-15.08
-17.04
-19.05
-20.97
-22.49
-23.15
-22.44
-20.03
-15.95
-10.62
-4.65
1.24
6.58
11.08
14.69
17.52
19.64
21.11
21.97
22.29
22.15
21.76
21.27
20.75
20.24
19.67
18.97
18.12
17.16
16.18
15.26
14.41
13.51
12.51
11.34
10.05
8.73
7.44
6.10
4.62
2.90
0.91
-1.21
-3.35
-5.39
-7.29
-9.15
-11.02
-12.92
-14.83
-16.73
-18.66
-20.75
-23.10
-25.67
-28.25
-30.32
-31.23
-30.37
-27.44
-22.52
-16.18
-9.22
-2.43
3.54
8.42
12.18
14.93
16.80
17.89
18.26
18.03
17.44
16.74
16.20
15.95
16.02
16.27
16.55
16.73
16.73
16.52
16.11
15.50
14.66
13.61
12.38
11.00
9.56
8.15
6.81
5.64
4.68
3.93
3.32
2.70
1.80
0.45
-1.46
-3.88
-6.62
-9.41
-12.03
-14.34
-16.33
-18.14
-19.89
-21.74
-23.76
-25.95
-28.21
-30.28
-31.77
-32.14
-30.92
-27.78
-22.75
-16.20
-8.78
-1.27
5.60
11.37
15.78
18.80
20.55
21.19
20.94
20.04
18.79
17.46
16.29
15.48
15.05
14.97
15.09
15.26
15.39
15.41
15.38
15.35
15.32
15.20
14.86
14.11
12.82
11.06
8.96
6.85
4.98
3.49
2.32
1.36
0.40
-0.75
-2.11
-3.72
-5.52
-7.48
-9.54
-11.62
-13.57
-15.23
-16.55
-17.58
-18.49
-19.54
-20.99
-22.97
-25.43
-28.04
-30.22
-31.31
-30.72
-28.13
-23.66
-17.84
-11.48
-5.34
-0.10
3.91
6.56
7.94
8.25
7.76
6.78
5.63
4.69
4.22
4.37
5.13
6.30
7.61
8.81
9.76
10.37
10.71
10.81
10.71
10.35
9.68
8.68
7.39
5.97
4.52
3.12
1.74
0.35
-1.13
-2.70
-4.31
-5.84
-7.14
-8.14
-8.80
-9.24
-9.54
-9.91
-10.53
-11.57
-13.18
-15.32
-17.76
-19.99
-21.36
-21.21
-19.12
-15.10
-9.58
-3.32
2.87
8.33
12.71
15.91
18.01
19.18
19.54
19.27
18.51
17.53
16.53
15.71
15.14
14.82
14.62
14.42
14.16
13.81
13.45
13.08
12.69
12.21
11.56
10.68
9.53
8.13
6.49
4.65
2.58
0.24
-2.35
-5.13
-7.96
-10.65
-12.97
-14.83
-16.22
-17.31
-18.35
-19.65
-21.44
-23.79
-26.56
-29.33
-31.52
-32.44
-31.52
-28.51
-23.54
-17.14
-10.09
-3.24
2.74
7.43
10.71
12.74
13.91
14.65
15.39
16.39
17.72
19.23
20.65
21.71
22.25
22.26
21.91
21.34
20.71
20.01
19.16
18.05
16.57
14.72
12.54
10.19
7.83
5.58
3.49
1.50
-0.49
-2.57
-4.75
-6.97
-9.08
-11.01
-12.75
-14.35
-15.92
-17.54
-19.28
-21.16
-23.19
-25.28
-27.22
-28.59
-28.85
-27.53
-24.34
-19.42
-13.23
-6.45
0.25
6.28
11.30
15.06
17.47
18.57
18.49
17.50
15.90
13.97
11.91
9.92
8.14
6.78
5.99
5.82
6.17
6.84
7.53
8.01
8.11
7.81
7.12
6.11
4.85
3.39
1.78
0.07
-1.67
-3.46
-5.28
-7.22
-9.28
-11.52
-13.83
-16.13
-18.29
-20.21
-21.90
-23.42
-24.90
-26.35
-27.71
-28.66
-28.80
-27.69
-24.99
-20.68
-15.03
-8.62
-2.14
3.77
8.67
12.33
14.74
16.02
16.37
16.03
15.24
14.25
13.36
12.77
12.65
13.08
14.00
15.23
16.51
17.58
18.20
18.27
17.75
16.70
15.15
13.16
10.80
8.24
5.72
3.51
1.78
0.51
-0.47
-1.39
-2.44
-3.65
-4.93
-6.16
-7.32
-8.50
-9.89
-11.65
-13.87
-16.57
-19.67
-22.98
-26.17
-28.68
-29.82
-28.94
-25.71
-20.23
-13.13
-5.30
2.30
8.95
14.26
18.10
20.51
21.60
21.57
20.65
19.22
17.68
16.40
15.63
15.45
15.77
16.37
17.03
17.50
17.61
17.35
16.75
15.90
14.89
13.75
12.47
10.97
9.22
7.27
5.24
3.28
1.57
0.16
-0.97
-1.98
-3.04
-4.32
-5.93
-7.82
-9.86
-11.87
-13.72
-15.36
-16.83
-18.20
-19.62
-21.25
-23.24
-25.63
-28.30
-30.89
-32.79
-33.32
-31.89
-28.31
-22.83
-16.07
-8.84
-1.89
4.23
9.28
13.16
15.98
17.83
18.86
19.24
19.11
18.72
18.28
17.96
17.88
18.05
18.40
18.78
19.07
19.13
18.94
18.54
17.94
17.17
16.21
15.03
13.63
12.07
10.39
8.67
6.95
5.29
3.69
2.23
0.92
-0.20
-1.13
-1.94
-2.71
-3.56
-4.60
-5.90
-7.47
-9.26
-11.11
-12.84
-14.31
-15.49
-16.47
-17.49
-18.80
-20.59
-22.91
-25.58
-28.20
-30.22
-30.98
-29.95
-26.85
-21.81
-15.36
-8.30
-1.49
4.40
8.99
12.25
14.36
15.56
16.09
16.16
16.01
15.85
15.91
16.28
16.90
17.60
18.18
18.49
18.53
18.37
18.13
17.90
17.62
17.21
16.55
15.61
14.42
13.11
11.75
10.44
9.17
7.94
6.73
5.48
4.16
2.70
1.07
-0.72
-2.60
-4.43
-6.10
-7.61
-9.03
-10.49
-12.03
-13.59
-15.07
-16.43
-17.71
-19.06
-20.66
-22.64
-24.95
-27.36
-29.48
-30.83
-30.91
-29.34
-25.92
-20.75
-14.23
-7.05
0.08
6.43
11.53
15.16
17.36
18.34
18.37
17.72
16.66
15.40
14.17
13.19
12.61
12.52
12.84
13.39
13.87
14.04
13.68
12.78
11.44
9.82
8.08
6.28
4.45
2.56
0.70
-1.06
-2.53
-3.60
-4.27
-4.64
-4.87
-5.06
-5.31
-5.62
-6.05
-6.65
-7.44
-8.41
-9.41
-10.29
-10.96
-11.44
-11.92
-12.68
-13.94
-15.77
-18.01
-20.20
-21.78
-22.18
-21.00
-18.11
-13.70
-8.25
-2.32
3.50
8.80
13.29
16.76
19.08
20.20
20.15
19.14
17.52
15.64
13.84
12.36
11.32
10.77
10.68
10.93
11.37
11.81
12.03
11.95
11.59
10.99
10.24
9.35
8.28
6.99
5.53
3.99
2.52
1.22
0.12
-0.85
-1.76
-2.73
-3.81
-5.01
-6.32
-7.67
-9.03
-10.35
-11.66
-13.05
-14.65
-16.60
-18.99
-21.74
-24.63
-27.26
-29.16
-29.85
-28.94
-26.29
-22.02
-16.48
-10.25
-3.94
1.86
6.78
10.63
13.36
15.04
15.75
15.60
14.71
13.35
11.89
10.77
10.32
10.70
11.79
13.26
14.69
15.68
16.07
15.85
15.20
14.26
13.16
11.90
10.42
8.74
6.85
4.90
3.00
1.26
-0.31
-1.78
-3.21
-4.65
-6.08
-7.43
-8.66
-9.74
-10.74
-11.70
-12.69
-13.72
-14.82
-16.02
-17.41
-19.12
-21.23
-23.67
-26.13
-28.11
-29.03
-28.37
-25.84
-21.55
-15.86
-9.39
-2.81
3.34
8.68
13.03
16.30
18.46
19.53
19.62
18.95
17.88
16.83
16.16
16.09
16.58
17.42
18.24
18.71
18.65
18.05
17.07
15.89
14.66
13.36
11.91
10.18
8.11
5.70
3.05
0.33
-2.26
-4.50
-6.23
-7.31
-7.81
-7.89
-7.85
-7.95
-8.41
-9.33
-10.67
-12.30
-14.08
-15.95
-17.86
-19.85
-21.95
-24.10
-26.02
-27.29
-27.38
-25.82
-22.43
-17.39
-11.20
-4.62
1.63
6.99
11.16
14.05
15.78
16.53
16.52
15.95
15.02
13.91
12.79
11.83
11.11
10.71
10.63
10.84
11.23
11.67
11.97
11.97
11.51
10.56
9.15
7.34
5.32
3.22
1.21
-0.54
-1.93
-2.96
-3.66
-4.24
-4.97
-6.09
-7.70
-9.71
-11.83
-13.76
-15.23
-16.17
-16.68
-17.01
-17.35
-17.83
-18.37
-18.79
-18.88
-18.30
-16.81
-14.15
-10.25
-5.18
0.63
6.53
11.79
15.78
18.16
18.97
18.55
17.35
15.86
14.28
12.75
11.34
10.09
9.16
8.67
8.73
9.36
10.46
11.78
13.00
13.84
13.98
13.22
11.46
8.71
5.21
1.37
-2.25
-4.99
-6.38
-6.34
-5.15
-3.43
-1.87
-0.91
-0.73
-1.17
-1.98
-3.07
-4.62
-6.90
-10.21
-14.57
-19.55
-24.26
-27.52
-28.14
-25.42
-19.47
-11.25
-2.37
5.49
11.08
14.02
14.71
14.06
12.99
12.04
11.35
10.69
9.77
8.51
7.15
6.12
5.86
6.58
8.20
10.30
12.37
13.96
14.95
15.42
15.62
15.71
15.66
15.32
14.42
12.83
10.56
7.90
5.20
2.81
0.92
-0.49
-1.62
-2.78
-4.23
-6.18
-8.71
-11.80
-15.32
-19.09
-22.76
-25.88
-27.89
-28.20
-26.45
-22.61
-17.11
-10.71
-4.27
1.51
6.25
9.87
12.44
14.06
14.74
14.48
13.42
11.89
10.37
9.34
9.07
9.51
10.34
11.18
11.77
12.09
12.28
12.52
12.82
12.95
12.57
11.38
9.34
6.74
4.02
1.69
-0.01
-1.13
-1.98
-2.93
-4.31
-6.20
-8.46
-10.81
-12.87
-14.44
-15.51
-16.31
-17.21
-18.63
-20.87
-23.97
-27.68
-31.36
-34.19
-35.28
-34.05
-30.37
-24.75
-18.17
-11.71
-6.29
-2.25
0.54
2.54
4.23
5.82
7.26
8.34
8.93
9.05
8.95
8.95
9.38
10.39
11.94
13.83
15.73
17.34
18.39
18.78
18.44
17.45
15.92
13.98
11.78
9.44
7.06
4.73
2.54
0.53
-1.28
-2.90
-4.40
-5.86
-7.39
-9.06
-10.83
-12.61
-14.28
-15.76
-17.03
-18.16
-19.14
-19.99
-20.72
-21.36
-21.98
-22.62
-23.21
-23.51
-23.14
-21.68
-18.84
-14.61
-9.32
-3.50
2.23
7.33
11.49
14.56
16.65
17.89
18.44
18.46
18.14
17.67
17.31
17.32
17.76
18.52
19.25
19.50
18.94
17.45
15.22
12.59
9.96
7.60
5.62
4.00
2.65
1.53
0.67
0.16
0.12
0.58
1.47
2.50
3.23
3.12
1.78
-0.91
-4.68
-8.90
-12.89
-16.09
-18.28
-19.60
-20.48
-21.37
-22.61
-24.26
-26.11
-27.72
-28.56
-28.14
-26.08
-22.32
-17.04
-10.77
-4.15
2.17
7.72
12.23
15.62
17.98
19.45
20.20
20.38
20.17
19.78
19.36
19.06
18.98
19.14
19.51
20.02
20.53
20.91
21.07
20.92
20.45
19.63
18.50
17.11
15.53
13.80
11.97
10.11
8.26
6.53
5.00
3.74
2.72
1.82
0.85
-0.41
-2.06
-4.12
-6.44
-8.84
-11.16
-13.26
-15.08
-16.65
-18.05
-19.47
-21.12
-23.11
-25.45
-27.88
-29.92
-30.98
-30.46
-28.01
-23.61
-17.67
-10.85
-3.93
2.40
7.74
11.90
14.96
17.15
18.71
19.83
20.58
20.89
20.62
19.66
18.00
15.85
13.56
11.48
9.81
8.55
7.56
6.64
5.70
4.78
4.01
3.54
3.38
3.46
3.59
3.67
3.63
3.52
3.47
3.56
3.79
4.07
4.18
3.90
3.07
1.60
-0.47
-3.00
-5.80
-8.63
-11.24
-13.48
-15.25
-16.60
-17.70
-18.75
-19.98
-21.56
-23.50
-25.61
-27.56
-28.82
-28.81
-27.13
-23.64
-18.60
-12.59
-6.38
-0.64
4.14
7.82
10.46
12.24
13.40
14.09
14.43
14.55
14.58
14.65
14.84
15.13
15.46
15.76
16.00
16.14
16.19
16.09
15.81
15.29
14.52
13.50
12.28
10.92
9.49
8.05
6.68
5.46
4.35
3.32
2.23
1.05
-0.26
-1.61
-2.94
-4.23
-5.53
-6.89
-8.32
-9.77
-11.17
-12.46
-13.56
-14.48
-15.30
-16.20
-17.37
-19.04
-21.30
-24.02
-26.80
-28.98
-29.86
-28.88
-25.88
-21.06
-14.91
-8.09
-1.23
5.17
10.71
15.10
18.19
19.94
20.49
20.11
19.16
18.02
17.01
16.34
16.07
16.19
16.59
17.13
17.64
17.98
18.05
17.80
17.23
16.35
15.23
13.87
12.34
10.65
8.83
6.94
5.01
3.11
1.31
-0.29
-1.68
-2.86
-3.88
-4.88
-5.94
-7.16
-8.55
-10.11
-11.71
-13.30
-14.83
-16.42
-18.27
-20.58
-23.47
-26.83
-30.26
-33.06
-34.50
-33.98
-31.21
-26.39
-20.02
-12.84
-5.60
1.10
6.86
11.45
14.78
16.91
17.94
18.12
17.69
16.99
16.30
15.95
16.06
16.66
17.60
18.57
19.27
19.47
19.13
18.36
17.37
16.28
15.09
13.72
12.02
9.94
7.62
5.25
3.10
1.34
-0.03
-1.11
-2.03
-2.89
-3.70
-4.50
-5.28
-6.09
-6.96
-7.90
-8.94
-10.05
-11.33
-12.79
-14.48
-16.41
-18.55
-20.83
-23.23
-25.68
-28.00
-29.89
-30.91
-30.57
-28.54
-24.65
-18.88
-11.44
-2.77
6.43
15.22
22.63
27.92
30.75
31.32
30.23
28.24
25.95
23.74
21.74
20.00
18.54
17.34
16.38
15.50
14.53
13.34
11.93
10.34
8.73
7.23
5.91
4.80
3.83
2.87
1.89
0.84
-0.24
-1.30
-2.34
-3.38
-4.50
-5.79
-7.30
-9.03
-10.96
-12.98
-14.99
-16.90
-18.57
-19.97
-21.14
-22.24
-23.50
-25.11
-27.02
-28.95
-30.26
-30.27
-28.40
-24.48
-18.76
-11.92
-4.79
1.84
7.43
11.67
14.49
15.99
16.34
15.82
14.73
13.40
12.15
11.24
10.84
11.03
11.71
12.69
13.74
14.59
15.04
14.98
14.37
13.24
11.64
9.65
7.39
5.04
2.77
0.67
-1.23
-3.00
-4.71
-6.42
-8.09
-9.67
-11.03
-12.10
-12.88
-13.40
-13.78
-14.15
-14.68
-15.53
-16.85
-18.61
-20.62
-22.51
-23.74
-23.75
-22.14
-18.81
-14.02
-8.27
-2.25
3.43
8.31
12.11
14.73
16.20
16.62
16.22
15.26
14.11
13.07
12.38
12.10
12.15
12.36
12.51
12.52
12.29
11.83
11.17
10.35
9.37
8.24
6.86
5.16
3.12
0.74
-1.81
-4.29
-6.49
-8.27
-9.64
-10.84
-12.12
-13.70
-15.70
-18.06
-20.62
-23.16
-25.32
-26.65
-26.69
-25.05
-21.56
-16.43
-10.18
-3.50
2.86
8.33
12.61
15.60
17.34
17.98
17.66
16.62
15.13
13.49
12.03
11.03
10.61
10.63
10.83
10.89
10.65
10.22
9.84
9.69
9.71
9.54
8.67
6.82
4.05
0.82
-2.26
-4.71
-6.38
-7.42
-8.16
-8.95
-10.00
-11.51
-13.58
-16.19
-19.17
-22.00
-24.04
-24.61
-23.29
-20.05
-15.30
-9.71
-3.98
1.28
5.71
9.13
11.44
12.70
13.03
12.70
12.01
11.27
10.69
10.37
10.26
10.28
10.36
10.43
10.52
10.60
10.61
10.44
9.98
9.06
7.65
5.80
3.62
1.28
-1.04
-3.24
-5.28
-7.15
-8.88
-10.49
-12.06
-13.76
-15.77
-18.19
-20.83
-23.26
-24.81
-24.82
-22.96
-19.34
-14.51
-9.18
-4.06
0.41
4.07
6.91
9.04
10.62
11.74
12.54
13.16
13.64
13.97
14.13
14.04
13.70
13.19
12.65
12.16
11.77
11.39
10.80
9.74
7.96
5.37
2.06
-1.72
-5.64
-9.37
-12.65
-15.38
-17.56
-19.38
-21.12
-23.04
-25.23
-27.47
-29.19
