1529691023.00
64.000000
-0.00
-0.00
-0.00
-0.00
-0.00
-0.00
-0.00
-0.00
-0.00
-0.00
0.00
0.01
0.01
-0.00
-0.03
-0.05
-0.05
0.00
0.13
0.36
0.66
1.01
1.37
1.72
2.06
2.40
2.79
3.24
3.80
4.42
5.06
5.66
6.20
6.68
7.15
7.68
8.31
9.14
10.09
11.04
11.88
12.56
13.14
13.76
14.65
15.96
17.91
20.32
22.90
25.38
27.58
29.57
31.68
34.32
37.81
42.54
48.15
54.10
59.83
64.97
69.58
74.14
79.34
85.71
93.76
103.00
112.62
121.73
129.77
136.75
143.30
150.75
157.77
166.64
177.95
191.79
206.97
220.57
228.25
225.36
208.53
176.87
132.76
80.05
23.07
-34.94
-92.44
-149.16
-205.23
-260.37
-313.74
-363.87
-409.83
-450.91
-486.50
-515.74
-537.23
-549.22
-549.96
-538.37
-514.21
-478.67
-433.88
-382.45
-327.02
-269.84
-212.63
-156.66
-102.95
-52.37
-5.90
35.58
71.43
101.35
125.50
144.38
158.69
169.15
176.37
180.75
182.57
182.07
179.51
175.23
169.65
163.18
156.15
148.81
141.30
133.69
126.02
118.33
110.69
103.16
95.80
88.68
81.83
75.25
68.95
62.95
57.25
51.86
46.78
42.03
37.59
33.45
29.61
26.07
22.81
19.83
17.11
14.67
12.48
10.54
8.83
7.35
6.07
4.97
4.05
3.27
2.62
2.09
1.65
1.30
1.01
0.79
0.61
0.48
0.37
0.29
0.22
0.18
0.14
0.11
0.09
0.08
0.07
0.06
0.05
0.05
0.04
0.04
0.04
0.03
0.03
0.03
0.03
0.03
0.03
0.02
0.02
0.03
0.03
0.04
0.06
0.08
0.11
0.15
0.20
0.26
0.32
0.39
0.47
0.56
0.64
0.72
0.81
0.89
0.97
1.05
1.14
1.23
1.32
1.42
1.54
1.67
1.81
1.98
2.17
2.38
2.63
2.90
3.21
3.56
3.95
4.37
4.85
5.37
5.94
6.55
7.22
7.94
8.71
9.54
10.42
11.38
12.39
13.48
14.63
15.82
17.06
18.36
19.71
21.13
22.64
24.26
26.00
27.84
29.78
31.79
33.82
35.81
37.63
39.13
40.09
40.27
39.40
37.25
33.64
28.47
21.79
13.80
4.81
-4.78
-14.50
-23.92
-32.59
-40.16
-46.26
-50.64
-53.11
-53.63
-52.36
-49.65
-46.00
-42.01
-38.23
-35.06
-32.72
-31.25
-30.62
-30.74
-31.62
-33.35
-36.03
-39.69
-44.17
-49.17
-54.21
-58.82
-62.59
-65.21
-66.49
-66.40
-65.02
-62.58
-59.60
-56.57
-53.63
-50.17
-44.93
-36.60
-24.57
-9.35
7.45
23.86
38.22
49.75
58.41
64.46
68.00
68.95
67.27
63.41
58.32
53.03
48.25
44.13
40.38
36.74
33.34
30.70
29.43
30.48
33.95
39.18
44.89
49.72
52.64
53.20
51.62
48.53
44.80
41.28
38.76
38.00
39.57
43.67
49.98
57.52
64.82
70.39
73.06
72.45
69.02
63.81
57.89
51.87
45.79
39.30
32.02
24.01
15.83
8.43
2.69
-1.03
-3.01
-3.98
-4.68
-5.55
-6.63
-7.69
-8.49
-8.83
-8.59
-7.66
-5.92
-3.40
-0.36
2.73
5.36
7.11
7.82
7.54
6.44
4.69
2.42
-0.22
-2.97
-5.37
-6.81
-6.67
-4.56
-0.63
4.31
9.12
12.66
14.52
15.16
15.74
17.46
20.76
25.20
30.00
35.11
41.67
51.57
66.03
84.35
103.65
119.98
130.07
132.62
128.38
119.04
106.04
89.98
71.20
50.59
30.11
12.20
-1.47
-10.92
-17.89
-24.58
-32.32
-40.89
-49.01
-55.63
-60.90
-66.29
-73.75
-84.44
-97.86
-111.99
-124.18
-132.30
-135.66
-135.00
-132.00
-128.44
-125.49
-123.45
-121.88
-119.90
-116.65
-111.74
-105.31
-98.09
-91.04
-84.80
-79.56
-75.29
-72.19
-70.83
-71.79
-75.07
-79.69
-84.00
-86.56
-86.93
-85.68
-83.36
-79.45
-72.05
-58.90
-39.01
-13.93
12.52
35.75
52.32
61.07
62.94
59.81
53.45
45.03
35.29
24.58
13.19
1.55
-9.74
-19.88
-27.99
-33.05
-34.36
-31.98
-27.09
-21.48
-16.85
-14.32
-14.33
-17.24
-23.21
-32.18
-43.65
-57.01
-71.31
-85.21
-97.33
-106.64
-113.45
-118.30
-121.72
-123.79
-125.65
-128.64
-133.45
-139.80
-146.56
-153.71
-160.42
-165.09
-165.27
-161.35
-155.26
-149.38
-145.78
-146.03
-153.23
-168.18
-188.49
-208.52
-225.61
-238.87
-248.21
-253.65
-255.52
-257.50
-261.55
-266.66
-268.42
-266.64
-262.99
-258.64
-252.78
-223.83
-163.76
-81.38
-6.18
59.77
119.97
176.46
227.64
272.33
310.54
339.81
359.47
371.55
381.23
389.64
396.81
403.64
412.27
424.54
438.01
449.01
454.75
454.25
444.16
421.80
387.23
343.27
294.56
244.65
197.62
159.61
136.10
126.84
127.39
132.06
135.99
137.07
134.46
128.75
123.35
120.27
117.46
111.26
99.77
83.77
66.90
52.49
42.72
41.35
49.46
63.71
78.28
88.18
90.18
84.47
72.50
37.75
-22.46
-95.03
-160.72
-208.91
-236.48
-254.16
-268.82
-283.19
-297.09
-307.04
-309.46
-304.04
-293.32
-280.14
-266.33
-250.54
-230.40
-203.60
-166.82
-119.83
-66.79
-14.02
33.59
74.26
110.46
146.45
186.64
235.54
294.33
359.18
422.11
473.66
505.55
513.78
499.04
466.22
423.12
376.69
330.49
284.58
237.24
187.01
134.33
80.99
29.12
-19.86
-66.45
-113.02
-162.95
-219.47
-284.60
-358.21
-437.70
-517.97
-591.86
-651.22
-688.28
-697.16
-675.36
-625.15
-553.99
-473.55
-396.77
-333.96
-289.46
-260.58
-239.50
-217.29
-188.00
-150.72
-108.84
-67.30
-29.66
3.21
32.59
60.00
86.12
110.83
134.30
158.06
185.07
218.36
259.31
306.23
354.32
397.27
429.75
449.60
458.52
461.01
462.03
464.57
468.62
471.79
471.30
465.79
456.12
444.65
433.76
424.41
415.78
405.94
393.06
376.35
356.48
335.06
313.91
294.45
277.32
262.34
248.61
234.59
218.47
198.62
174.02
144.59
111.15
75.17
38.20
1.67
-33.27
-65.58
-94.25
-118.42
-137.68
-152.37
-163.60
-173.00
-182.17
-192.14
-203.12
-214.58
-225.68
-235.86
-245.16
-254.30
-264.53
-277.30
-293.88
-315.11
-340.96
-370.20
-400.28
-427.67
-448.75
-461.09
-464.36
-460.53
-453.08
-445.56
-440.34
-437.99
-437.66
-437.90
-437.36
-435.20
-430.82
-423.68
-413.23
-399.18
-381.77
-361.77
-340.27
-318.26
-296.38
-274.93
-254.11
-234.08
-215.08
-197.32
-180.79
-165.24
-150.26
-135.33
-119.87
-103.23
-84.61
-63.00
-37.17
-5.83
31.83
75.62
123.84
173.22
219.49
258.52
287.34
304.72
311.08
308.02
297.67
282.39
264.68
247.09
232.06
221.46
216.11
215.54
218.12
221.56
223.60
222.73
218.59
212.03
204.67
198.06
192.92
188.87
184.64
178.81
170.54
159.72
146.74
132.10
116.32
100.13
84.70
71.41
61.27
54.37
49.77
46.08
42.28
38.11
34.08
30.93
28.93
27.73
26.72
25.44
23.80
21.75
18.76
13.95
6.74
-2.60
-12.83
-22.07
-28.48
-31.05
-29.96
-26.82
-23.97
-23.47
-26.43
-32.60
-40.06
-45.64
-45.78
-37.96
-22.78
-3.24
16.38
31.81
39.61
38.33
28.33
11.70
-8.52
-30.68
-52.79
-71.61
-83.72
-87.26
-82.37
-71.53
-57.49
-42.10
-28.21
-16.60
-5.22
8.37
23.96
39.13
49.34
51.15
42.85
20.82
-16.67
-66.73
-122.68
-176.49
-219.75
-247.12
-256.52
-229.99
-167.26
-89.47
-23.62
17.31
31.29
32.61
30.68
29.36
28.40
26.80
22.73
17.83
15.79
18.69
26.79
37.28
47.68
56.70
61.81
61.93
59.12
56.80
56.97
59.96
63.73
66.35
66.74
63.28
55.50
45.29
35.60
28.56
25.05
24.23
24.91
25.95
25.76
23.25
18.79
13.66
9.04
5.53
2.56
-0.86
-5.69
-12.48
-20.89
-29.37
-36.03
-39.72
-40.56
-39.96
-39.76
-41.34
-45.00
-50.04
-55.34
-60.16
-64.78
-70.55
-79.17
-91.81
-108.21
-126.41
-143.26
-155.43
-160.39
-157.56
-148.43
-135.81
-122.59
-110.76
-100.80
-92.21
-84.14
-75.87
-67.43
-59.45
-52.56
-46.78
-41.63
-36.42
-31.08
-26.30
-22.45
-19.55
-17.02
-13.78
-8.87
-2.40
4.62
10.46
14.08
17.79
24.93
37.78
56.08
77.39
97.89
115.49
130.09
143.63
161.98
188.10
218.92
246.12
260.47
255.26
230.88
192.50
148.06
111.30
92.15
92.86
108.99
134.44
163.96
198.04
238.33
285.63
345.48
418.01
495.12
563.67
612.85
636.97
640.55
630.87
571.79
449.80
282.61
108.86
-39.91
-140.32
-208.95
-260.06
-303.68
-346.23
-383.35
-406.84
-411.76
-397.47
-365.73
-322.21
-272.09
-223.41
-184.53
-155.64
-134.68
-122.04
-118.17
-119.40
-118.94
-106.98
-78.87
-37.83
9.30
50.92
71.65
60.40
16.78
-50.15
-125.14
-194.56
-249.41
-284.00
-284.77
-249.27
-190.46
-127.13
-71.01
-23.23
18.54
54.77
83.32
100.74
102.27
86.26
57.66
25.40
-2.80
-24.54
-42.30
-60.77
-80.59
-102.97
-127.18
-148.53
-161.55
-164.76
-162.23
-160.28
-163.02
-170.34
-179.48
-185.03
-178.02
-150.15
-97.95
-24.17
64.27
159.38
253.07
337.51
395.67
414.68
399.11
370.76
350.82
345.13
344.64
334.29
303.39
251.86
192.01
139.93
106.27
91.78
87.37
85.01
80.78
75.50
71.99
74.45
82.68
92.61
98.56
96.65
86.65
70.35
54.28
42.26
36.46
31.87
22.45
5.04
-18.88
-44.79
-68.02
-85.00
-95.27
-99.85
-108.67
-129.95
-164.91
-207.61
-250.06
-286.46
-313.89
-333.86
-349.33
-373.67
-417.28
-481.73
-560.67
-646.01
-731.04
-808.73
-873.28
-861.28
-742.28
-540.53
-319.19
-132.98
-4.74
69.49
108.42
125.65
136.94
140.93
132.66
111.88
84.40
56.43
31.66
16.96
13.84
24.20
45.10
76.31
122.02
187.40
268.17
342.56
403.61
449.82
469.25
453.30
402.18
326.26
242.76
169.11
118.33
97.94
105.03
129.89
158.74
177.97
178.23
156.05
112.99
54.59
-10.08
-73.55
-129.07
-170.01
-190.90
-187.90
-159.60
-108.12
-38.94
40.42
119.71
188.76
240.95
273.52
287.30
285.55
272.03
249.75
221.14
187.77
151.92
117.74
89.72
70.71
60.61
56.39
53.63
48.62
39.27
25.15
7.04
-13.89
-36.01
-57.03
-74.23
-85.31
-89.45
-87.86
-83.24
-78.37
-74.81
-72.33
-69.52
-65.06
-58.61
-50.93
-43.25
-36.29
-29.69
-21.90
-10.99
4.45
24.47
47.45
70.39
89.64
101.67
103.45
92.75
68.26
30.13
-19.30
-74.92
-129.22
-173.95
-202.47
-211.86
-203.42
-181.65
-151.82
-118.19
-83.51
-49.92
-20.07
2.70
15.32
16.57
8.03
-6.29
-21.37
-33.10
-39.29
-39.63
-34.75
-25.18
-10.99
7.79
30.45
54.94
78.09
96.41
107.22
109.60
104.57
94.56
82.08
68.55
53.72
36.29
15.31
-8.38
-31.59
-49.62
-58.14
-55.16
-42.02
-22.78
-2.37
15.34
28.67
37.92
44.30
48.83
51.71
52.52
50.71
46.16
39.36
31.33
23.48
17.32
14.14
14.72
19.17
26.88
36.81
47.78
58.54
67.77
73.96
75.53
71.17
60.25
43.24
21.63
-2.42
-26.70
-49.41
-69.41
-86.14
-99.52
-109.57
-116.30
-119.83
-120.39
-118.41
-114.39
-108.83
-102.19
-94.97
-87.69
-80.91
-75.23
-71.14
-68.65
-66.80
-63.45
-55.55
-40.37
-16.58
14.73
49.50
81.31
102.99
108.66
95.51
64.45
18.95
-35.37
-91.83
-143.80
-185.46
-212.25
-221.58
-213.70
-192.51
-166.61
-145.43
-135.90
-140.37
-156.35
-177.80
-197.10
-206.91
-201.43
-179.55
-142.61
-93.93
-39.32
12.88
54.17
78.84
86.01
79.51
62.13
36.60
6.00
-25.99
-55.71
-79.45
-94.22
-98.68
-77.77
-31.02
26.76
77.17
111.66
131.88
142.88
148.77
155.34
169.06
192.34
225.53
268.04
318.87
370.54
412.16
434.36
422.21
375.58
308.10
240.69
189.01
157.68
141.79
131.06
116.03
94.55
71.56
51.04
33.36
15.69
-3.44
-25.88
-57.03
-100.78
-156.80
-220.28
-287.70
-358.15
-431.17
-503.57
-540.54
-516.92
-433.95
-318.26
-200.29
-100.58
-27.49
20.11
49.19
68.07
78.55
79.91
72.73
61.06
50.06
43.55
43.17
48.60
58.04
65.58
66.07
58.47
46.09
33.63
24.60
20.55
21.26
25.37
28.73
27.80
21.61
11.97
1.78
-6.54
-11.64
-13.14
-11.46
-8.58
-6.40
-5.60
-5.64
-5.40
-3.90
-0.54
4.69
11.83
19.91
27.73
34.27
38.94
41.55
42.35
42.00
41.40
41.49
42.74
45.05
47.71
49.79
50.57
49.92
48.41
47.05
47.01
49.21
54.19
61.86
71.22
80.15
85.65
84.57
74.75
56.29
31.69
5.24
-18.54
-36.43
-47.30
-51.92
-52.04
-49.67
-46.23
-42.54
-39.05
-36.03
-33.57
-31.59
-29.92
-27.68
-24.52
-20.03
-13.58
-4.63
6.70
18.89
29.14
34.36
32.93
25.73
16.28
9.10
7.53
12.07
20.30
28.41
33.03
32.68
27.59
19.04
8.21
-4.29
-18.15
-32.91
-47.50
-60.40
-70.06
-75.42
-76.05
-72.10
-64.16
-53.17
-40.41
-27.36
-15.41
-5.50
2.26
8.51
14.41
21.13
29.40
39.27
50.17
61.28
71.79
81.17
89.02
94.71
97.07
94.50
85.56
70.12
49.93
28.44
9.59
-3.81
-11.16
-14.01
-15.12
-17.00
-21.16
-28.12
-38.12
-51.57
-69.08
-90.82
-115.98
-142.71
-168.89
-193.01
-214.72
-234.27
-251.42
-264.53
-270.84
-267.92
-255.54
-236.62
-216.34
-199.70
-188.93
-182.17
-174.55
-160.83
-138.34
-108.48
-76.12
-47.09
-25.59
-12.79
-6.84
-4.29
-1.61
4.24
15.69
34.87
63.12
99.84
141.38
181.22
211.44
225.75
222.41
205.24
182.62
164.55
159.60
172.62
204.02
249.99
303.24
354.41
393.98
414.60
413.04
390.99
353.82
308.31
260.19
213.10
168.97
128.80
93.48
63.49
38.18
15.54
-7.37
-33.02
-62.65
-95.99
-131.65
-167.38
-200.63
-228.53
-248.36
-258.40
-258.17
-249.74
-237.41
-226.06
-218.76
-215.41
-212.60
-206.15
-193.80
-175.28
-153.03
-130.20
-108.39
-86.41
-61.77
-32.07
1.97
36.01
66.16
89.76
106.89
120.82
137.00
160.06
192.54
231.50
268.36
294.58
302.85
290.16
259.89
221.15
184.42
158.81
146.67
129.40
93.88
37.02
-32.19
-99.05
-145.35
-169.12
-171.45
-154.88
-122.69
-77.71
-25.29
24.23
57.34
62.76
35.99
-15.68
-76.54
-127.46
-148.29
-127.95
-68.59
16.02
106.99
186.66
244.91
278.82
278.49
245.36
191.44
133.49
83.91
47.41
23.16
9.47
4.03
3.96
8.04
14.06
18.95
20.18
17.54
12.90
9.36
8.37
8.72
9.75
10.28
8.95
5.07
-0.56
-6.06
-9.33
-10.36
-10.55
-11.04
-13.13
-18.04
-26.61
-39.17
-56.45
-74.73
-93.63
-114.30
-138.33
-167.53
-203.29
-245.31
-290.70
-333.90
-367.95
-387.45
-389.62
-375.10
-347.53
-312.25
-274.14
-236.46
-200.73
-167.54
-138.10
-113.75
-95.39
-82.38
-72.73
-63.51
-52.19
-37.88
-21.75
-6.88
3.80
8.89
10.06
10.94
16.11
29.68
54.16
90.30
136.84
190.22
244.02
290.13
319.49
325.68
307.90
271.92
228.07
186.92
155.00
128.47
102.13
70.57
32.55
-7.83
-44.32
-72.59
-92.51
-107.27
-120.86
-134.53
-147.54
-157.70
-162.74
-162.06
-156.87
-149.60
-142.94
-139.28
-137.83
-137.08
-135.25
-130.98
-124.08
-115.26
-106.08
-98.36
-93.68
-91.84
-92.08
-92.96
-92.81
-90.23
-83.60
-71.85
-54.42
-34.91
-15.13
3.88
22.04
39.93
58.19
78.56
101.93
127.97
155.51
184.01
212.95
241.39
267.05
286.30
297.83
301.42
298.25
290.61
281.52
273.16
266.07
259.57
253.30
251.97
261.11
283.89
318.55
358.84
396.63
425.18
441.53
426.48
372.32
284.06
177.71
71.55
-21.65
-95.96
-150.32
-186.60
-208.75
-218.83
-219.59
-214.67
-208.15
-203.83
-204.02
-208.76
-216.49
-223.13
-221.12
-204.85
-174.09
-134.64
-95.43
-63.40
-40.53
-23.96
-8.64
10.40
33.70
57.23
75.45
82.59
78.21
66.40
52.54
39.24
25.36
6.48
-21.68
-59.35
-100.90
-135.82
-153.45
-148.13
-121.78
-82.16
-38.89
1.19
36.46
69.63
104.80
143.68
184.02
220.47
247.96
264.30
270.63
269.82
264.16
254.41
239.68
218.72
190.21
155.18
116.94
79.66
46.63
18.99
-3.62
-23.17
-41.72
-63.39
-90.28
-121.77
-155.14
-187.44
-216.99
-242.89
-266.27
-288.52
-315.26
-350.17
-393.66
-443.13
-494.83
-545.52
-591.79
-632.50
-666.64
-698.81
-731.18
-761.79
-785.43
-797.06
-794.94
-779.78
-756.98
-696.42
-588.16
-444.01
-291.76
-157.12
-52.42
13.86
54.79
80.44
97.49
104.82
102.43
93.38
82.74
75.51
74.53
81.62
94.99
112.65
128.62
139.06
143.57
144.67
145.67
148.74
155.57
165.13
176.17
184.86
188.74
187.61
183.35
178.61
175.48
175.66
178.87
184.27
189.55
192.89
193.77
193.03
192.21
192.85
196.38
203.27
213.68
226.93
242.08
257.88
272.58
283.88
289.22
286.77
276.07
258.81
238.36
218.36
201.11
186.65
173.19
158.69
142.41
125.48
110.01
97.38
87.06
76.65
63.30
45.49
24.01
1.36
-19.72
-37.66
-52.42
-64.67
-74.56
-80.87
-81.24
-73.24
-55.67
-29.27
3.37
38.53
72.48
102.39
126.82
145.67
159.69
169.90
177.15
181.93
184.30
184.11
181.19
175.69
168.32
160.37
153.45
148.86
146.99
147.22
148.17
148.40
146.95
143.46
137.78
129.51
118.15
103.89
88.41
74.98
67.04
66.00
69.35
70.64
61.76
36.69
-5.11
-57.49
-109.35
-148.46
-165.77
-158.21
-128.78
-84.56
-34.11
14.55
54.85
81.95
93.10
88.25
70.45
45.36
19.57
-1.70
-16.30
-25.52
-32.79
-41.40
-52.62
-65.24
-76.56
-84.13
-87.14
-86.67
-84.80
-83.38
-83.13
-83.52
-83.44
-81.96
-78.82
-74.33
-69.02
-63.51
-58.62
-55.49
-55.42
-59.12
-65.90
-73.50
-78.85
-79.61
-75.37
-67.76
-59.39
-52.30
-46.97
-42.42
-37.36
-31.28
-24.78
-19.12
-15.33
-13.76
-14.06
-15.62
-17.96
-20.86
-24.21
-28.06
-32.67
-38.69
-47.03
-58.44
-72.80
-88.67
-103.26
-113.02
-114.70
-106.36
-87.97
-61.32
-29.34
4.62
37.39
66.00
87.76
100.41
102.59
94.59
78.62
58.16
36.70
16.36
-2.65
-21.18
-39.69
-56.97
-70.07
-75.59
-71.49
-58.16
-38.35
-15.84
6.18
25.98
43.15
57.81
69.71
78.01
81.63
79.99
73.62
64.20
54.08
45.28
38.77
34.09
29.81
24.58
17.92
10.48
3.54
-1.66
-4.40
-4.51
-2.13
2.21
7.27
10.84
10.19
3.20
-10.24
-27.87
-45.95
-61.20
-72.58
-81.51
-90.73
-102.33
-116.37
-130.86
-142.78
-149.43
-149.19
-141.62
-127.10
-106.63
-81.78
-54.70
-27.89
-3.60
16.60
32.07
42.85
49.25
51.61
50.19
45.49
38.33
29.88
21.40
13.90
7.75
2.64
-2.32
-8.11
-15.11
-22.75
-29.54
-33.81
-34.63
-32.47
-29.13
-27.07
-28.27
-33.31
-41.25
-50.10
-57.78
-62.98
-65.56
-66.38
-66.73
-67.71
-69.87
-73.38
-78.24
-84.52
-92.26
-100.84
-108.58
-112.59
-109.52
-96.90
-74.51
-44.88
-12.57
17.48
41.77
59.22
70.85
78.62
84.06
87.61
88.91
87.65
84.43
80.89
79.17
80.87
86.18
93.74
101.10
105.82
106.34
102.45
95.12
85.85
76.10
66.87
58.68
51.73
46.04
41.51
37.86
34.69
31.54
28.05
23.96
19.11
13.26
6.15
-2.43
-12.26
-22.36
-30.84
-35.10
-32.59
-21.72
-2.68
22.35
49.66
75.23
96.20
111.95
124.21
136.09
150.42
168.23
188.17
207.21
222.04
230.48
232.10
227.82
219.03
206.73
191.25
172.56
150.87
127.11
102.75
79.44
58.32
39.72
23.08
7.27
-8.86
-26.03
-44.22
-62.77
-80.63
-96.83
-110.85
-122.68
-132.69
-141.37
-149.03
-155.79
-161.65
-166.52
-170.40
-173.26
-174.90
-174.81
-172.14
-165.89
-155.30
-140.25
-121.55
-100.86
-80.14
-61.06
-44.53
-30.57
-18.67
-8.26
0.94
8.84
15.14
19.65
22.51
24.19
25.30
26.38
27.65
28.98
29.94
30.10
29.12
27.01
24.00
20.48
16.81
13.22
9.80
6.49
3.14
-0.46
-4.58
-9.44
-15.12
-21.45
-28.00
-34.26
-39.81
-44.44
-48.27
-51.69
-55.21
-59.38
-64.50
-70.46
-76.59
-81.65
-84.14
-82.71
-76.68
-66.36
-52.97
-38.28
-24.05
-11.60
-1.59
5.83
10.85
13.77
14.80
14.20
12.25
9.30
5.81
2.23
-1.01
-3.65
-5.62
-7.05
-8.21
-9.46
-11.20
-13.72
-17.19
-21.64
-26.86
-32.56
-38.33
-43.84
-49.00
-54.02
-59.38
-65.69
-73.40
-82.65
-93.09
-104.09
-114.91
-125.18
-135.05
-145.16
-156.39
-169.17
-183.20
-197.21
-209.24
-217.15
-219.21
-214.45
-202.88
-185.24
-162.97
-137.99
-112.50
-88.50
-67.32
-49.25
-33.52
-18.67
-3.23
13.45
30.88
47.74
62.64
74.94
85.07
94.18
103.51
113.86
124.97
135.71
144.62
150.70
153.79
154.43
153.23
150.52
146.82
142.35
137.21
131.57
125.75
120.08
114.63
108.55
100.94
92.45
84.17
77.29
72.33
68.88
65.66
60.98
52.66
40.09
26.18
14.70
8.91
10.28
18.59
32.95
52.66
76.39
104.20
138.76
181.51
231.70
286.17
340.94
393.42
443.32
490.77
517.18
507.11
453.10
361.95
250.98
138.58
37.91
-37.62
-93.27
-135.04
-164.65
-182.29
-187.84
-182.35
-168.43
-149.44
-129.15
-111.97
-99.47
-89.68
-80.44
-70.65
-61.30
-54.89
-53.63
-58.65
-70.84
-89.47
-112.97
-140.49
-170.70
-200.42
-224.00
-234.88
-228.96
-207.73
-177.54
-148.02
-129.38
-128.33
-145.34
-174.72
-206.74
-230.95
-238.43
-222.29
-179.25
-111.57
-26.99
62.25
141.51
197.51
221.53
212.46
178.16
132.27
88.43
56.90
42.82
46.32
68.52
105.72
150.06
194.63
239.33
282.97
319.78
341.93
342.96
320.67
277.86
219.40
152.63
83.85
15.01
-55.42
-129.64
-208.33
-289.42
-368.87
-443.75
-508.50
-555.89
-579.89
-577.86
-552.04
-509.82
-461.00
-395.13
-311.04
-213.05
-109.77
-11.59
71.63
132.72
170.09
189.84
204.52
224.97
258.22
303.58
353.73
397.66
425.72
433.64
423.49
401.58
372.55
339.94
305.20
267.63
225.42
179.30
132.70
90.33
56.93
34.29
22.45
19.22
20.54
21.60
18.84
10.35
-4.12
-22.90
-43.20
-60.37
-68.34
-62.04
-39.59
-3.99
34.76
62.39
67.02
44.78
3.26
-40.95
-70.82
-75.18
-51.34
-8.66
36.31
69.34
84.05
82.70
72.67
58.07
39.97
21.11
-0.25
-28.96
-67.26
-114.75
-169.96
-231.48
-302.83
-384.19
-461.95
-522.61
-558.82
-567.81
-553.78
-527.07
-500.05
-489.00
-502.21
-528.98
-559.35
-590.51
-620.13
-645.15
-660.50
-618.01
-491.94
-347.22
-215.08
-89.63
24.26
122.79
204.90
271.40
323.42
354.71
364.02
360.47
351.51
339.97
328.47
317.05
302.69
284.52
258.97
225.86
195.07
172.04
155.13
141.43
129.35
118.90
112.75
112.16
119.40
140.93
178.66
227.71
280.63
330.01
367.18
385.33
380.12
352.33
309.75
261.95
216.98
181.23
159.86
151.10
148.53
143.57
128.47
99.43
56.34
1.73
-60.39
-124.51
-191.23
-264.39
-347.12
-429.20
-492.25
-519.72
-508.18
-484.93
-460.22
-439.75
-426.75
-413.94
-398.34
-379.04
-357.10
-334.76
-313.57
-290.86
-265.20
-235.47
-200.51
-160.53
-116.61
-70.79
-25.40
18.02
61.07
104.95
149.28
192.14
229.82
258.88
276.77
282.72
277.87
266.50
256.01
252.34
257.98
270.85
286.10
298.00
302.07
297.39
288.15
285.87
298.80
327.22
363.89
400.62
433.45
463.44
493.87
526.46
565.44
608.87
649.29
677.83
689.64
684.39
663.07
625.86
531.56
370.66
170.90
-19.14
-164.59
-259.12
-315.18
-348.41
-368.52
-378.19
-369.43
-338.04
-288.82
-234.70
-188.60
-158.34
-146.03
-149.52
-164.70
-181.01
-190.74
-192.51
-192.41
-198.44
-215.90
-244.93
-276.48
-299.54
-300.12
-270.20
-212.39
-141.74
-77.85
-36.02
-21.37
-28.47
-46.43
-62.66
-70.45
-71.28
-75.24
-93.02
-129.96
-184.36
-250.36
-322.48
-395.87
-466.48
-512.03
-512.77
-461.97
-372.39
-267.77
-169.57
-90.26
-32.56
6.95
33.94
50.59
57.04
53.70
44.26
34.34
28.92
31.06
40.78
55.88
71.13
81.61
85.48
85.21
86.29
91.91
104.69
124.91
150.41
175.82
195.08
203.93
201.46
189.71
172.15
152.53
133.57
116.92
103.16
93.04
88.11
90.21
100.11
116.30
135.39
152.97
165.39
170.59
168.34
159.66
145.61
126.48
101.87
71.60
36.26
-2.35
-41.51
-78.12
-109.29
-132.81
-147.39
-152.96
-150.54
-142.02
-129.38
-113.97
-95.97
-74.57
-49.02
-19.74
11.48
42.15
70.05
93.99
113.58
128.39
137.30
138.89
132.93
121.45
108.56
98.64
93.92
93.02
91.63
85.03
70.82
50.15
26.72
4.34
-15.39
-33.65
-53.02
-75.34
-100.06
-124.23
-143.76
-155.46
-158.46
-154.39
-146.45
-138.19
-132.32
-130.29
-132.49
-138.62
-147.85
-158.77
-169.17
-176.44
-178.30
-173.80
-163.91
-151.30
-139.17
-129.80
-123.43
-118.28
-111.54
-101.06
-86.67
-70.35
-55.26
-43.99
-37.35
-33.93
-31.02
-25.94
-17.12
-4.13
12.87
33.78
58.65
86.96
116.90
145.14
167.46
180.13
181.31
171.86
155.29
136.57
120.60
110.58
107.03
107.70
108.52
105.28
95.20
78.00
55.68
31.60
9.06
-9.71
-23.88
-33.58
-39.32
-41.49
-40.24
-35.74
-28.42
-19.20
-9.40
-0.39
6.82
11.99
15.75
19.27
23.67
29.36
35.70
41.18
44.10
43.47
39.59
34.06
29.18
26.89
27.90
31.33
35.13
36.95
35.09
29.07
19.58
8.06
-3.92
-15.15
-24.89
-32.89
-39.20
-44.04
-47.80
-51.04
-54.51
-59.09
-65.56
-74.31
-84.83
-95.50
-103.57
-105.78
-99.28
-82.77
-57.28
-26.11
6.13
35.03
57.92
74.51
86.53
96.54
106.49
116.79
126.40
133.59
137.06
136.68
133.39
128.53
123.01
116.78
109.08
99.04
86.39
71.82
56.75
42.68
30.56
20.41
11.49
2.65
-7.10
-18.33
-31.09
-45.01
-59.44
-73.46
-86.12
-96.59
-104.47
-110.02
-114.08
-117.88
-122.44
-128.01
-133.66
-137.42
-136.84
-129.82
-115.37
-93.91
-67.05
-37.01
-5.93
24.63
53.79
81.08
106.02
127.79
145.12
156.61
161.16
158.39
148.99
134.58
117.55
100.44
85.40
73.65
65.20
59.03
53.46
46.97
38.72
28.84
18.26
8.14
-0.54
-7.37
-12.44
-16.22
-19.34
-22.55
-26.60
-32.17
-39.70
-49.20
-60.07
-71.20
-81.24
-88.98
-93.68
-95.21
-93.90
-90.31
-84.85
-77.66
-68.66
-57.78
-45.27
-31.86
-18.61
-6.57
3.64
12.03
19.16
25.89
32.97
40.79
49.23
57.68
65.16
70.54
72.90
71.75
67.25
60.21
51.89
43.66
36.72
31.84
29.28
28.63
28.88
28.42
25.39
18.26
6.43
-9.24
-26.47
-42.19
-53.61
-59.29
-59.54
-56.27
-51.95
-48.49
-46.52
-45.32
-43.54
-40.20
-35.39
-30.18
-25.92
-23.19
-21.31
-18.51
-13.06
-4.30
6.65
17.39
25.29
28.80
28.16
25.04
21.62
19.49
18.94
19.22
19.07
17.55
14.45
10.25
5.75
1.54
-2.25
-5.87
-9.64
-13.67
-17.84
-22.02
-26.43
-31.70
-38.54
-47.22
-57.02
-66.29
-73.01
-75.65
-73.84
-68.37
-60.63
-51.83
-42.56
-32.88
-22.75
-12.44
-2.45
6.77
15.23
23.35
31.63
40.05
47.79
53.53
56.00
54.66
49.95
43.12
35.69
29.07
24.27
21.95
22.37
25.30
29.88
34.55
37.45
36.94
32.29
23.91
13.17
1.90
-8.27
-16.21
-21.35
-23.53
-22.86
-19.71
-14.88
-9.59
-5.18
-2.69
-2.37
-3.45
-4.45
-3.61
0.48
8.56
20.61
36.13
54.38
74.59
95.90
117.29
137.43
154.89
168.42
177.36
181.91
183.05
182.18
180.44
178.21
174.91
169.32
160.28
147.35
131.19
113.48
96.05
80.30
66.47
53.63
40.07
23.77
2.58
-25.74
-63.36
-111.48
-168.94
-231.00
-289.73
-335.99
-362.48
-366.45
-350.10
-318.62
-277.03
-227.93
-171.77
-109.17
-43.61
17.77
65.94
93.43
97.28
79.95
47.88
8.81
-30.44
-65.10
-92.55
-111.58
-122.09
-125.24
-123.70
-121.40
-122.57
-130.20
-144.68
-163.33
-181.13
-192.38
-192.99
-182.07
-162.43
-139.55
-119.47
-106.58
-102.11
-104.09
-108.38
-110.26
-105.93
-93.68
-74.27
-50.70
-27.27
-8.26
3.52
7.56
5.61
0.92
-3.09
-3.86
-0.14
8.25
20.88
37.04
55.69
75.09
92.87
106.53
114.36
116.32
113.96
109.70
105.71
103.07
101.71
100.93
100.25
99.91
101.02
104.62
110.76
118.15
124.59
128.21
128.57
126.93
125.57
126.90
131.74
138.76
145.07
147.74
145.40
138.84
130.20
121.48
114.10
107.82
101.06
91.86
78.96
62.89
45.71
30.09
18.12
11.65
11.42
17.16
27.79
41.64
57.27
73.46
88.95
96.39
89.92
67.82
34.48
-2.17
-35.76
-63.55
-85.94
-104.41
-119.84
-131.05
-136.50
-136.08
-132.35
-130.64
-136.26
-151.81
-175.46
-200.61
-217.37
-215.94
-190.37
-138.93
-68.47
9.25
81.11
135.77
166.15
170.19
151.86
120.94
89.79
70.79
73.67
101.94
150.59
207.91
258.26
289.36
296.48
280.39
246.01
200.54
151.30
103.84
62.54
27.86
-0.95
-25.14
-50.20
-83.42
-131.08
-195.77
-275.60
-363.16
-450.41
-526.94
-564.50
-542.20
-458.71
-335.35
-202.83
-94.41
-10.12
57.25
114.63
165.68
206.83
230.72
232.36
212.79
178.34
138.69
99.11
61.75
26.78
-8.69
-46.42
-84.33
-116.19
-134.43
-132.98
-112.81
-79.39
-40.15
-3.32
25.16
43.39
53.37
59.25
65.96
75.81
89.32
105.54
121.72
134.92
143.80
149.27
154.06
161.01
170.17
178.73
182.07
175.57
156.89
127.06
89.74
49.41
9.87
-26.51
-57.95
-82.41
-97.63
-102.12
-96.39
-83.41
-67.91
-55.02
-48.49
-49.87
-58.43
-72.04
-88.14
-104.37
-118.92
-130.45
-138.00
-141.14
-140.07
-135.56
-128.06
-116.86
-99.88
-74.68
-40.46
0.07
40.56
72.85
90.11
89.71
73.94
48.29
18.43
-11.84
-41.03
-68.30
-92.05
-109.83
-120.07
-124.25
-127.12
-134.23
-147.70
-163.74
-173.95
-169.83
-148.04
-112.87
-74.34
-43.02
-25.30
-21.53
-27.84
-39.69
-53.95
-68.53
-80.32
-84.37
-75.10
-49.83
-11.53
31.33
68.42
92.60
102.95
104.54
104.82
109.36
119.26
131.49
141.42
145.75
144.05
137.79
128.53
116.18
98.88
74.67
43.86
10.38
-19.06
-38.12
-44.45
-41.52
-37.52
-41.35
-57.87
-85.06
-114.30
-133.76
-133.07
-107.20
-58.19
5.52
71.85
128.83
168.11
187.13
189.27
181.40
170.51
160.81
152.62
143.63
131.47
115.43
96.46
76.52
56.56
36.11
13.96
-10.46
-36.04
-60.13
-79.87
-93.82
-101.80
-105.34
-105.57
-101.63
-90.11
-66.95
-30.42
16.61
65.67
106.51
128.80
126.21
98.29
50.33
-8.47
-67.56
-117.26
-151.41
-166.44
-163.95
-148.77
-126.57
-101.21
-73.39
-41.47
-0.28
42.07
79.92
104.49
108.76
91.12
56.53
14.57
-24.49
-53.34
-70.26
-76.03
-73.81
-65.86
-52.64
-33.50
-8.14
22.22
55.17
88.02
120.81
154.77
191.63
231.74
272.25
307.11
328.71
330.73
310.30
270.03
215.65
153.92
90.54
29.02
-29.04
-82.62
-130.10
-169.24
-197.73
-215.25
-224.20
-228.80
-233.17
-239.25
-245.73
-248.67
-243.92
-230.04
-210.43
-192.45
-183.84
-188.35
-203.54
-221.76
-233.51
-231.53
-213.74
-183.44
-146.62
-108.10
-69.28
-28.48
16.45
65.82
117.29
166.39
207.76
235.46
244.38
234.35
211.94
186.98
166.79
153.52
144.90
136.41
124.98
110.44
95.04
81.24
70.15
59.90
48.00
32.72
13.27
-8.85
-30.52
-48.32
-60.09
-65.81
-67.26
-66.63
-60.40
-48.50
-32.26
-13.90
4.38
20.72
33.42
40.83
41.56
34.58
19.18
-2.93
-27.23
-47.51
-57.89
-55.23
-40.30
-14.79
15.12
41.43
57.74
60.83
50.87
30.82
5.35
-20.18
-40.73
-53.00
-56.13
-51.71
-43.56
-37.02
-37.60
-49.45
-73.69
-107.38
-143.80
-173.90
-189.20
-185.16
-163.34
-130.57
-95.73
-65.55
-41.65
-20.50
4.07
37.04
79.31
127.08
173.13
209.07
227.39
222.97
194.44
144.08
77.57
3.50
-67.82
-126.50
-165.57
-183.08
-182.30
-168.73
-149.20
-129.67
-113.67
-101.56
-91.23
-79.86
-65.45
-47.44
-24.15
4.95
38.68
74.41
109.16
140.57
167.28
188.85
205.78
222.21
241.68
265.20
290.96
315.78
336.85
352.35
361.34
345.50
296.34
218.89
129.58
45.16
-25.12
-79.34
-119.58
-149.25
-171.73
-186.60
-193.66
-194.06
-190.28
-184.70
-178.45
-171.41
-162.93
-152.61
-137.51
-116.77
-92.82
-70.73
-55.84
-51.08
-55.50
-64.67
-72.23
-70.89
-57.58
-35.11
-10.91
6.68
12.21
5.35
-9.56
-28.20
-43.56
-50.41
-46.69
-33.46
-13.50
10.06
34.34
56.31
72.77
81.56
81.88
75.39
66.25
59.48
58.33
61.99
65.09
60.06
41.22
7.69
-35.65
-80.23
-117.79
-143.69
-157.88
-163.20
-162.38
-155.77
-141.73
-118.24
-84.62
-42.43
5.05
54.05
101.57
145.60
184.69
216.99
239.97
251.03
248.69
233.56
208.91
179.78
151.29
126.80
106.84
89.51
72.12
53.09
32.92
13.88
-1.48
-11.94
-18.35
-23.10
-28.76
-36.90
-47.51
-59.22
-69.93
-77.61
-80.89
-79.62
-74.99
-69.44
-65.80
-66.16
-70.81
-77.80
-83.58
-84.37
-77.73
-63.56
-44.00
-22.55
-2.66
13.40
24.92
32.61
37.86
41.96
45.59
48.61
50.32
49.90
46.88
41.35
33.98
25.82
18.09
11.88
7.79
5.75
4.85
3.63
0.67
-4.72
-12.13
-20.20
-27.37
-32.84
-37.02
-41.31
-47.10
-54.91
-64.01
-72.99
-80.64
-86.71
-91.74
-96.45
-100.87
-103.98
-104.11
-99.71
-90.24
-76.44
-60.02
-43.03
-27.21
-13.73
-3.39
3.24
5.81
4.40
-0.13
-6.11
-11.42
-14.09
-12.97
-8.15
-0.94
6.66
12.71
15.99
16.41
14.88
12.94
12.06
13.15
16.16
20.18
23.73
25.39
24.26
20.18
13.69
5.66
-3.04
-11.63
-19.34
-25.26
-28.27
-27.37
-22.12
-13.09
-1.90
9.31
18.79
25.97
31.63
37.24
43.96
51.68
58.93
64.09
66.64
68.05
71.37
79.48
93.09
109.88
125.52
135.91
139.20
136.25
129.37
120.31
109.14
94.89
77.14
57.46
39.17
25.44
16.84
10.23
-0.07
-19.42
-49.98
-89.40
-132.05
-171.66
-203.94
-227.88
-245.26
-259.24
-273.04
-288.45
-305.44
-322.24
-335.80
-342.65
-339.97
-326.49
-302.73
-270.86
-233.64
-193.39
-151.31
-107.45
-61.08
-11.24
42.91
101.88
165.40
231.92
298.19
359.31
409.52
443.57
458.10
452.79
430.74
397.24
358.29
319.07
283.12
252.25
226.79
206.17
189.26
175.36
163.38
151.98
139.84
126.33
111.91
97.81
85.40
75.55
69.51
67.36
68.01
69.60
70.47
69.89
68.28
66.75
66.26
68.39
72.92
77.80
80.14
77.76
70.46
59.87
48.47
28.93
-1.58
-41.06
-82.89
-119.54
-146.22
-161.76
-167.46
-165.83
-159.61
-149.66
-136.69
-121.65
-105.78
-90.27
-76.12
-63.78
-53.41
-45.00
-37.24
-29.16
-20.46
-11.57
-3.17
3.73
8.48
10.81
10.84
9.72
8.53
7.87
7.80
8.01
7.50
5.69
2.59
-1.32
-4.74
-6.40
-5.67
-2.69
1.83
5.95
8.12
7.49
4.07
-1.45
-8.46
-17.73
-31.38
-46.51
-63.29
-82.09
-103.03
-125.94
-150.42
-175.61
-200.66
-223.02
-238.58
-244.04
-237.55
-220.08
-195.30
-168.24
-143.35
-124.68
-113.49
-109.20
-111.84
-122.23
-141.70
-170.51
-206.26
-243.38
-275.95
-297.20
-301.74
-288.59
-261.30
-226.76
-192.57
-164.60
-134.99
-102.35
-69.66
-41.71
-22.29
-12.12
-9.27
-10.36
-11.78
-10.98
-9.07
-6.44
-2.63
3.07
11.65
24.06
41.07
63.17
90.57
122.41
153.78
182.46
207.95
231.57
256.13
285.21
321.43
364.34
408.24
444.12
462.99
458.54
429.70
381.18
321.95
262.34
211.34
174.55
154.32
150.59
160.51
178.92
199.19
214.68
220.60
215.17
199.75
177.84
153.94
131.85
113.82
100.54
91.75
86.84
85.22
86.33
89.17
92.50
94.75
94.42
90.69
83.77
74.72
64.89
55.03
44.64
32.60
17.98
0.56
-19.04
-39.94
-61.61
-84.26
-108.59
-135.82
-165.66
-195.65
-221.93
-241.16
-252.08
-256.13
-256.58
-256.92
-261.07
-270.35
-283.47
-298.06
-312.63
-327.01
-340.93
-352.31
-356.98
-352.77
-338.27
-313.58
-280.89
-244.37
-208.64
-176.88
-150.44
-129.92
-119.64
-122.66
-138.11
-160.91
-184.28
-202.94
-214.69
-220.48
-201.14
-150.26
-76.68
1.54
70.29
124.23
162.75
186.42
196.62
196.17
186.15
169.86
152.87
141.24
138.81
145.64
158.52
174.03
188.26
194.27
186.31
162.95
128.47
92.04
63.20
48.08
46.93
53.90
58.46
52.37
35.45
15.83
5.96
14.49
41.54
78.43
111.72
128.66
123.19
99.26
64.33
30.67
7.47
-3.91
-9.36
-17.43
-34.79
-63.76
-101.52
-143.11
-182.79
-218.95
-250.34
-274.24
-287.75
-283.54
-261.38
-227.38
-194.95
-165.41
-138.31
-114.85
-95.55
-80.18
-68.11
-57.50
-43.24
-19.24
19.79
73.56
136.65
205.01
275.44
345.21
397.90
419.88
406.78
367.04
335.15
319.09
318.34
330.93
343.16
349.02
348.28
343.33
337.02
313.54
263.36
190.50
107.36
26.01
-45.08
-101.23
-140.84
-164.49
-175.32
-177.75
-174.60
-168.63
-163.08
-159.31
-156.79
-154.08
-149.88
-144.18
-137.59
-130.21
-122.73
-116.48
-111.77
-107.97
-104.02
-99.07
-93.00
-85.75
-77.27
-67.88
-58.32
-48.82
-39.18
-28.65
-16.47
-2.27
13.98
31.20
47.00
57.97
61.03
54.56
39.26
18.09
-4.66
-24.65
-39.01
-46.93
-48.98
-46.31
-39.81
-30.03
-17.72
-4.29
8.20
17.68
22.92
24.11
22.50
19.74
16.97
14.38
11.48
7.62
2.62
-3.68
-10.65
-17.69
-24.60
-31.51
-38.58
-45.61
-51.97
-56.93
-60.08
-61.64
-62.55
-64.11
-67.27
-72.14
-77.85
-82.92
-85.98
-86.62
-85.64
-85.08
-87.31
-94.06
-105.41
-119.66
-133.81
-144.43
-148.55
-144.10
-130.02
-106.25
-73.69
-34.35
8.64
51.48
90.55
123.34
149.15
168.88
184.24
196.59
206.24
212.27
213.30
208.36
197.68
182.77
165.84
149.02
133.77
120.70
109.87
101.12
94.23
88.76
83.97
78.77
72.08
63.38
52.99
41.93
31.40
22.16
14.15
6.62
-1.61
-11.62
-23.76
-37.27
-50.25
-60.22
-64.92
-63.09
-54.68
-41.14
-24.88
-8.28
7.14
21.10
34.13
46.83
59.20
70.67
79.74
84.68
84.43
79.28
70.98
61.84
53.93
48.44
46.06
46.33
47.88
48.68
46.71
40.51
29.38
13.68
-7.46
-31.67
-54.74
-72.74
-84.39
-91.99
-98.39
-105.96
-115.50
-127.02
-139.23
-150.21
-157.86
-160.30
-156.36
-145.87
-130.11
-111.29
-91.94
-73.64
-57.24
-42.89
-30.43
-19.53
-9.95
-1.74
4.85
9.58
12.70
14.68
16.04
17.25
18.77
21.00
24.18
28.32
33.23
38.74
44.47
49.84
54.12
56.65
57.14
55.79
53.27
50.44
48.01
46.07
43.98
40.62
35.01
26.98
17.60
9.13
4.40
5.85
14.64
30.09
49.83
70.53
88.99
103.02
111.92
116.26
117.18
115.68
112.16
106.47
98.34
87.88
75.85
63.63
52.80
44.66
39.77
37.84
37.90
38.73
39.29
38.92
37.38
34.72
31.15
26.98
22.60
18.44
14.71
11.12
6.68
-0.08
-10.45
-24.85
-42.36
-60.92
-78.01
-91.52
-100.23
-103.77
-102.24
-95.88
-85.12
-70.88
-54.84
-39.34
-26.60
-17.99
-13.49
-12.14
-12.76
-14.93
-19.09
-25.95
-35.52
-46.56
-56.79
-63.96
-66.93
-66.23
-63.56
-60.75
-58.81
-57.70
-56.75
-55.33
-53.22
-50.50
-47.30
-43.72
-40.02
-36.91
-35.55
-37.39
-43.43
-53.73
-67.12
-81.30
-93.24
-100.06
-99.84
-92.39
-79.45
-64.02
-48.91
-35.31
-22.16
-7.08
11.72
33.45
54.35
69.17
74.01
68.79
57.76
47.64
44.50
50.72
64.16
79.37
90.22
92.49
85.08
69.77
50.01
29.53
11.31
-2.69
-11.57
-15.33
-14.65
-10.82
-5.56
-0.90
1.05
-1.63
-10.18
-24.63
-43.57
-64.28
-83.47
-98.28
-107.13
-110.00
-108.10
-102.99
-95.95
-87.67
-78.48
-68.77
-59.28
-51.01
-44.82
-41.04
-39.28
-38.63
-38.12
-37.00
-34.98
-32.12
-28.61
-24.61
-20.25
-15.69
-11.12
-6.77
-2.73
0.95
4.22
6.90
8.67
9.29
8.82
7.79
7.00
7.16
8.57
11.09
14.37
18.15
22.36
26.91
31.43
35.27
37.88
39.41
40.97
44.20
50.42
59.73
70.75
81.20
88.98
93.06
93.81
92.51
90.52
88.57
86.54
83.68
79.17
72.64
64.38
55.27
46.48
38.99
33.29
29.18
26.01
22.97
19.51
15.44
10.85
5.84
0.32
-5.92
-12.98
-20.63
-28.18
-34.91
-40.47
-45.10
-49.49
-54.29
-59.62
-64.98
-69.61
-72.88
-74.72
-75.57
-75.93
-75.90
-75.11
-72.97
-69.35
-64.87
-60.54
-57.31
-55.75
-55.72
-56.58
-57.63
-58.12
-57.98
-57.49
-56.94
-56.56
-57.06
-59.11
-63.23
-69.41
-76.39
-82.99
-88.14
-90.99
-91.23
-89.91
-88.32
-87.67
-88.61
-90.09
-91.59
-92.78
-93.09
-91.98
-89.75
-86.57
-82.53
-77.64
-70.97
-63.90
-59.46
-61.17
-64.40
-64.28
-55.55
-34.71
-8.97
21.80
57.74
96.75
136.73
172.58
198.22
209.43
204.89
186.77
161.49
135.77
115.85
106.54
109.64
122.84
139.72
151.23
150.27
136.56
114.51
90.70
70.52
56.08
45.93
37.07
27.11
16.03
6.78
2.37
4.30
11.96
23.17
35.35
47.44
58.73
68.43
75.40
76.95
69.66
50.62
19.10
-22.59
-69.58
-115.81
-155.81
-185.32
-202.21
-206.70
-201.37
-189.71
-174.29
-155.80
-130.66
-96.58
-52.16
2.51
65.52
132.83
200.06
264.17
323.76
377.63
422.96
455.40
470.04
462.76
430.78
374.49
297.99
207.53
108.73
4.66
-102.63
-208.10
-295.18
-345.50
-351.11
-319.28
-267.00
-212.28
-167.59
-137.05
-118.00
-105.43
-96.88
-92.81
-93.76
-97.43
-98.76
-92.47
-76.09
-51.44
-23.88
-0.54
14.39
20.43
20.80
20.19
22.58
29.95
42.11
56.95
70.51
78.59
78.26
69.08
53.08
33.83
15.25
0.62
-8.15
-11.05
-9.50
-5.18
0.13
5.02
8.76
11.38
13.60
16.55
21.20
27.97
36.39
45.06
51.98
55.02
52.63
44.45
31.63
16.39
1.13
-12.58
-24.50
-35.40
-46.40
-58.04
-70.00
-81.16
-90.18
-95.97
-97.86
-95.39
-88.07
-75.45
-57.40
-34.59
-8.81
17.06
39.45
55.09
62.04
60.35
51.99
40.02
27.42
16.24
7.18
-0.09
-6.45
-12.68
-19.17
-25.86
-32.28
-37.52
-40.31
-39.44
-34.46
-26.21
-16.97
-9.93
-8.09
-12.99
-23.73
-36.85
-47.24
-50.65
-45.99
-35.49
-22.98
-11.76
-3.46
1.83
4.60
5.20
3.93
1.76
1.06
4.77
14.82
30.81
50.08
69.27
86.37
101.52
116.28
132.17
148.82
163.81
173.72
175.95
169.63
155.46
134.57
107.83
76.53
42.86
10.19
-17.70
-37.91
-49.76
-54.45
-54.80
-54.51
-56.38
-62.13
-72.57
-87.95
-107.73
-129.94
-150.64
-162.65
-161.19
-143.88
-112.78
-74.35
-37.25
-8.98
7.01
11.98
10.24
6.25
2.97
1.04
-0.27
-1.72
-3.22
-4.05
-3.52
-1.85
-0.18
0.46
-0.55
-2.59
-3.93
-2.52
2.94
11.84
21.40
27.44
26.38
16.91
1.03
-16.34
-29.31
-33.32
-27.00
-12.48
5.51
21.60
31.55
33.23
26.87
14.46
-1.01
-16.45
-29.00
-36.54
-38.32
-34.80
-27.48
-18.65
-11.02
-6.76
-6.29
-7.76
-7.55
-1.93
11.26
31.39
55.45
79.27
99.08
112.37
117.99
115.73
106.07
91.16
73.00
54.78
39.38
28.04
19.79
11.92
1.55
-12.64
-29.46
-45.79
-57.23
-60.06
-52.49
-35.53
-12.89
9.92
26.99
33.89
28.97
13.99
-6.84
-28.27
-45.68
-56.23
-58.34
-52.99
-42.28
-28.60
-14.39
-2.38
4.58
3.92
-5.47
-22.22
-42.46
-60.48
-70.51
-68.77
-55.13
-33.20
-8.49
11.97
23.83
26.45
22.54
16.65
13.22
15.18
23.22
35.48
47.99
56.22
56.07
45.77
26.94
4.44
-15.42
-26.92
-27.78
-19.91
-7.48
5.32
16.27
25.30
33.27
40.61
46.58
49.72
48.95
44.56
38.00
31.06
25.26
21.00
17.58
13.71
8.13
0.19
-9.79
-20.75
-31.25
-40.00
-46.23
-49.87
-51.53
-52.17
-52.69
-53.63
-55.03
-56.63
-58.18
-59.73
-61.61
-63.98
-66.23
-66.69
-63.32
-54.76
-41.35
-25.22
-9.49
2.85
10.19
12.71
12.01
9.82
7.01
3.47
-1.28
-7.01
-12.71
-16.75
-17.37
-13.20
-4.02
9.22
24.64
40.09
54.12
65.75
74.51
78.85
77.83
70.93
58.18
40.57
19.11
-2.05
-18.22
-27.00
-29.59
-29.53
-30.48
-34.38
-40.83
-47.82
-52.67
-54.10
-52.53
-49.26
-45.27
-40.88
-36.04
-30.03
-22.48
-12.96
-2.19
8.23
16.37
20.87
21.40
18.59
13.69
6.25
-1.92
-9.26
-15.42
-21.08
-27.05
-33.51
-39.23
-43.06
-43.95
-40.06
-30.95
-18.15
-4.35
7.83
17.31
24.88
32.65
43.45
60.11
85.54
121.37
167.25
220.31
275.04
323.82
358.39
364.29
335.43
277.28
204.88
134.78
77.38
34.73
3.96
-17.57
-32.13
-38.45
-35.95
-27.49
-19.27
-18.10
-28.14
-48.78
-75.71
-103.06
-124.94
-138.64
-145.30
-148.62
-152.38
-158.46
-166.34
-174.11
-179.79
-181.34
-177.88
-169.78
-157.95
-142.83
-124.06
-100.94
-73.47
-43.20
-12.70
14.76
36.21
49.66
54.29
50.09
37.45
17.46
-7.45
-32.84
-53.20
-63.75
-62.40
-50.53
-32.30
-12.88
3.59
14.92
20.70
21.30
16.94
7.57
-6.59
-22.85
-37.00
-44.67
-43.71
-35.34
-23.26
-11.98
-5.14
-4.30
-8.41
-14.85
-20.04
-21.46
-18.66
-13.29
-8.07
-5.28
-5.35
-6.46
-5.64
-0.90
8.08
19.80
31.78
41.76
48.26
49.96
44.60
28.66
-1.15
-45.47
-100.35
-157.30
-205.80
-236.96
-246.25
-234.01
-203.98
-160.90
-109.44
-54.32
-0.95
44.85
78.46
98.46
107.70
112.03
117.86
129.16
146.02
165.46
183.46
196.72
203.41
203.21
197.00
187.29
177.43
170.39
167.52
167.67
167.39
162.15
148.26
124.72
95.19
66.24
44.91
36.20
41.34
57.10
76.24
89.48
88.22
69.09
33.65
-12.97
-64.06
-112.94
-153.87
-182.39
-195.27
-190.36
-164.96
-118.84
-56.08
15.63
87.45
152.22
205.65
246.20
261.16
243.33
195.84
131.51
65.08
6.51
-39.91
-73.34
-94.38
-104.10
-102.12
-90.01
-73.14
-59.41
-55.91
-65.46
-85.17
-107.58
-124.10
-127.25
-113.35
-87.18
-59.10
-38.73
-30.06
-31.03
-36.67
-42.91
-47.41
-50.26
-52.94
-56.26
-59.60
-61.49
-60.72
-57.48
-53.37
-50.06
-48.74
-50.04
-53.43
-57.44
-60.34
-60.81
-58.60
-54.46
-49.49
-44.60
-40.48
-37.19
-34.09
-30.39
-25.41
-19.09
-12.07
-5.58
-0.89
0.76
-1.28
-6.86
-15.10
-24.15
-32.18
-37.88
-40.96
-41.87
-41.83
-42.06
-43.04
-44.28
-43.69
-38.98
-28.63
-12.81
6.89
27.71
46.92
62.96
76.00
88.78
105.14
129.30
162.09
204.08
254.27
309.42
363.79
403.43
415.26
391.00
331.64
248.07
157.07
74.00
7.67
-40.62
-74.57
-98.01
-113.24
-120.78
-120.97
-115.21
-106.55
-98.60
-93.95
-93.34
-95.01
-96.22
-94.51
-88.87
-79.92
-69.61
-60.30
-53.77
-50.72
-50.25
-50.73
-50.33
-47.79
-42.74
-35.80
-28.27
-21.62
-17.10
-15.07
-15.28
-16.66
-17.85
-17.84
-16.40
-14.10
-12.22
-12.37
-15.63
-22.77
-33.91
-48.78
-66.42
-84.61
-99.60
-106.71
-102.10
-83.40
-54.08
-20.62
9.57
31.18
42.76
46.78
48.00
50.23
55.13
61.72
67.84
71.36
71.27
67.77
61.69
53.62
43.58
31.45
17.57
3.82
-6.89
-11.49
-8.37
1.50
14.53
25.78
31.21
29.21
21.20
10.39
0.71
-4.37
-2.37
7.66
25.03
47.49
71.42
92.60
106.55
110.81
105.78
94.56
81.25
68.99
58.88
50.10
40.89
28.49
12.17
-7.25
-28.07
-48.94
-69.51
-90.01
-110.44
-130.15
-149.73
-169.75
-190.70
-212.58
-234.73
-255.43
-271.70
-279.81
-267.04
-228.19
-168.02
-99.57
-36.74
11.92
44.52
63.70
73.63
78.20
78.43
74.85
68.86
63.38
61.73
65.85
74.86
85.19
91.69
88.34
72.06
44.54
11.90
-17.88
-38.25
-46.11
-41.99
-28.38
-8.96
13.40
37.08
60.99
83.16
100.25
108.85
105.54
90.49
67.68
43.75
24.83
13.93
10.36
11.14
12.98
13.63
12.44
9.50
5.09
-0.44
-6.54
-12.27
-16.42
-18.03
-16.96
-13.77
-9.82
-6.84
-6.24
-8.65
-13.51
-18.99
-22.45
-21.18
-13.49
-0.05
15.44
27.03
28.21
14.56
-13.98
-52.39
-91.88
-122.66
-137.18
-132.45
-110.44
-76.90
-39.08
-3.71
24.29
42.13
48.81
44.72
31.35
11.16
-12.69
-36.68
-57.36
-72.02
-79.12
-78.41
-70.73
-57.56
-40.61
-21.42
-1.61
17.32
34.11
47.91
58.25
64.86
67.51
65.94
60.11
50.52
38.48
25.92
14.94
7.11
3.04
2.26
3.59
5.69
7.52
8.66
9.15
9.17
8.71
7.45
4.91
0.65
-5.40
-12.83
-20.74
-27.95
-33.51
-36.94
-38.44
-38.61
-37.95
-36.38
-33.05
-26.66
-16.09
-1.09
17.46
37.74
57.67
75.54
90.29
101.29
107.96
109.62
105.75
96.60
83.53
68.87
55.15
44.08
35.86
29.39
23.10
16.02
8.35
1.24
-4.02
-6.85
-7.68
-7.72
-8.12
-9.34
-10.91
-11.75
-10.77
-7.48
-2.21
4.19
10.48
15.49
18.51
19.54
19.46
19.78
22.13
27.69
36.99
49.39
63.30
76.79
88.20
96.63
101.98
104.61
105.10
104.24
102.59
100.33
97.27
92.89
86.41
76.96
63.86
45.03
20.56
-7.43
-35.30
-59.15
-76.28
-86.10
-89.88
-89.97
-88.40
-85.93
-82.44
-77.33
-70.32
-61.60
-52.15
-43.41
-36.96
-33.45
-32.14
-31.46
-29.66
-25.63
-18.99
-10.65
-2.63
1.82
-0.28
-10.79
-29.63
-53.90
-77.93
-93.90
-95.02
-77.17
-44.24
-5.82
26.42
42.99
40.10
20.13
-9.64
-40.86
-66.73
-84.14
-92.40
-92.71
-87.68
-78.54
-70.16
-62.89
-54.23
-39.92
-16.69
17.11
59.47
104.27
142.83
164.75
163.02
136.97
94.13
42.52
-9.33
-53.91
-85.91
-102.85
-105.29
-95.49
-77.50
-55.02
-33.43
-17.19
-9.06
-9.93
-18.90
-33.85
-51.42
-68.34
-82.30
-92.76
-99.76
-103.58
-104.33
-101.64
-94.95
-83.64
-67.80
-48.55
-28.02
-8.37
8.60
21.66
30.54
35.87
39.19
42.18
45.90
50.38
54.56
56.84
56.13
52.84
49.07
47.95
52.31
63.40
80.66
101.59
122.64
140.30
151.96
156.38
153.54
144.29
127.12
102.30
71.90
39.67
9.83
-14.28
-31.00
-40.24
-43.00
-40.92
-35.60
-29.05
-23.44
-20.62
-21.39
-25.21
-30.21
-34.09
-35.17
-33.06
-29.50
-27.84
-31.74
-43.11
-60.87
-81.00
-97.39
-103.85
-96.10
-73.65
-40.16
-2.56
30.85
52.79
59.11
50.89
34.48
19.54
15.27
26.63
52.10
83.96
110.03
117.88
100.37
59.17
4.29
-50.17
-91.45
-112.46
-113.22
-96.84
-70.61
-42.95
-19.75
-2.79
8.64
15.07
15.79
9.89
-2.13
-17.77
-32.62
-42.09
-43.65
-38.08
-29.08
-21.40
-18.77
-22.47
-31.11
-41.25
-48.79
-50.80
-46.70
-38.28
-28.62
-20.45
-15.16
-11.93
-8.37
-1.40
11.52
31.65
58.83
91.68
127.64
161.21
186.46
197.52
190.58
165.83
128.12
85.63
47.02
18.32
1.17
-6.62
-9.41
-11.29
-14.66
-20.01
-26.55
-33.23
-38.86
-42.41
-42.90
-40.21
-35.25
-29.64
-25.14
-22.87
-22.93
-24.64
-27.17
-29.93
-32.87
-36.20
-39.92
-43.51
-46.02
-46.52
-44.57
-40.54
-35.32
-30.01
-25.46
-21.98
-19.22
-16.18
-11.77
-5.35
2.78
11.43
18.77
23.08
23.01
18.33
10.28
1.28
-5.65
-7.54
-2.20
10.90
29.76
49.63
64.18
67.92
58.07
36.01
7.02
-21.47
-42.10
-49.77
-44.71
-32.79
-22.07
-18.80
-24.81
-37.92
-54.11
-69.77
-82.96
-93.47
-103.28
-112.46
-119.87
-123.88
-123.13
-116.91
-105.47
-90.23
-73.76
-58.82
-46.76
-37.07
-27.13
-13.80
5.82
33.25
68.11
108.25
148.86
184.52
209.79
220.51
214.77
193.63
160.66
121.22
81.37
46.69
21.37
6.78
1.29
1.10
2.17
1.66
-1.37
-6.29
-11.96
-17.32
-21.58
-23.84
-23.01
-17.90
-8.49
3.21
13.28
17.33
12.72
0.19
-15.31
-28.22
-33.32
-28.28
-14.74
2.33
16.73
23.63
21.33
11.61
-1.57
-13.74
-21.88
-25.32
-25.44
-24.52
-24.59
-26.67
-30.79
-36.38
-42.53
-48.52
-53.74
-57.80
-60.49
-61.81
-61.92
-61.09
-59.61
-57.45
-54.84
-51.83
-48.45
-44.89
-41.62
-39.31
-38.61
-39.94
-43.06
-46.92
-49.45
-47.94
-39.70
-22.80
3.11
36.37
73.63
110.68
143.48
169.24
186.75
196.04
198.02
194.14
186.09
175.74
165.17
155.91
149.26
145.73
144.74
144.68
143.22
137.51
125.08
105.10
78.50
49.12
22.49
3.42
-6.35
-9.11
-10.61
-17.27
-32.92
-58.64
-89.20
-115.14
-128.31
-126.60
-113.75
-96.14
-81.10
-70.41
-65.50
-67.80
-79.02
-100.48
-132.28
-169.48
-204.92
-230.33
-233.15
-208.89
-163.50
-110.95
-65.28
-33.28
-12.93
2.33
18.29
36.62
53.49
64.02
65.96
61.13
54.14
49.68
50.20
55.63
64.28
72.66
77.16
74.81
63.84
44.14
17.69
-11.69
-38.74
-58.22
-67.16
-65.21
-54.39
-38.01
-19.44
-1.15
15.27
28.86
38.46
42.13
37.84
24.62
3.58
-22.08
-47.47
-67.44
-77.94
-77.21
-66.35
-48.87
-29.81
-14.48
-6.99
-9.16
-20.01
-35.90
-51.49
-61.73
-63.50
-56.34
-42.01
-23.46
-3.68
14.87
30.88
43.99
54.45
62.73
69.16
73.82
76.82
79.14
81.21
83.41
85.52
86.22
83.48
75.44
61.48
42.82
22.38
3.71
-9.94
-16.73
-16.69
-11.48
-3.63
4.27
10.44
14.07
15.13
14.08
11.32
7.13
1.80
-4.10
-9.81
-14.65
-18.48
-21.97
-26.16
-31.80
-38.67
-45.33
-49.56
-49.35
-43.64
-32.93
-19.09
-4.53
8.61
18.94
26.09
30.34
31.60
30.05
26.01
19.96
12.52
4.34
-4.02
-12.17
-19.79
-26.48
-31.65
-34.73
-35.46
-34.22
-32.05
-30.25
-29.48
-29.24
-27.93
-23.55
-14.68
-1.03
16.24
34.89
52.29
66.25
75.38
79.03
77.28
70.89
61.68
52.40
46.10
45.14
50.23
59.94
70.95
79.03
79.16
68.70
48.86
24.22
0.06
-20.34
-36.32
-48.69
-58.33
-65.22
-68.75
-68.53
-65.27
-60.78
-57.22
-55.98
-57.06
-60.37
-64.10
-66.55
-66.78
-64.75
-61.05
-56.28
-50.76
-44.50
-37.81
-31.13
-25.28
-21.00
-18.64
-17.92
-17.84
-16.84
-12.71
-4.13
9.26
26.36
45.02
62.64
76.88
86.36
90.91
91.26
88.44
83.45
76.81
68.77
59.57
49.63
39.61
30.22
21.92
14.64
7.95
1.22
-6.09
-14.15
-22.69
-31.14
-38.81
-45.24
-50.36
-54.43
-57.92
-61.24
-64.75
-68.74
-73.52
-79.40
-86.37
-93.76
-99.98
-102.80
-100.09
-90.79
-75.59
-56.77
-37.43
-20.43
-7.49
1.17
6.45
9.82
12.80
16.72
22.73
31.74
43.96
57.99
70.91
79.02
79.45
71.62
57.59
41.17
26.36
16.29
12.41
14.96
23.17
35.69
50.78
66.52
81.16
94.58
106.09
114.38
117.97
115.42
105.80
89.21
66.87
40.90
12.92
-13.35
-34.54
-48.45
-54.65
-54.49
-50.56
-45.98
-43.32
-43.73
-46.53
-50.52
-53.86
-55.57
-56.02
-56.78
-59.79
-66.22
-75.68
-85.12
-91.41
-91.91
-85.82
-74.18
-59.21
-43.21
-27.78
-13.73
-1.75
6.79
10.37
8.14
1.53
-5.24
-6.25
3.76
26.84
60.20
96.69
128.25
147.78
151.67
140.72
119.23
93.32
68.94
50.43
39.77
36.65
38.88
43.40
47.21
48.02
44.83
37.79
27.79
16.02
3.72
-8.06
-18.40
-26.62
-32.66
-36.85
-39.94
-42.74
-45.91
-49.80
-54.58
-60.23
-65.29
-68.88
-70.40
-69.71
-67.25
-64.27
-62.50
-63.68
-68.71
-77.02
-86.80
-95.41
-100.55
-101.36
-98.84
-95.38
-93.75
-95.99
-102.70
-113.10
-125.17
-136.00
-142.22
-140.37
-127.58
-102.41
-65.69
-20.83
26.69
70.77
106.37
130.76
143.83
147.49
144.59
137.78
128.96
119.16
108.89
98.52
88.40
78.78
69.69
60.93
52.28
43.93
36.58
31.34
29.02
29.36
30.59
29.81
24.09
11.88
-6.15
-27.17
-47.24
-62.83
-72.02
-74.90
-73.16
-69.29
-65.76
-64.52
-66.97
-73.73
-84.51
-97.74
-110.51
-119.03
-119.64
-109.97
-89.93
-61.79
-29.55
2.32
30.16
51.91
67.17
76.70
81.79
83.67
83.37
81.66
79.05
75.80
71.90
67.10
61.16
54.03
46.11
38.22
31.37
26.43
23.77
23.06
23.36
23.34
21.81
18.03
12.02
4.45
-3.68
-11.49
-18.60
-25.18
-31.79
-39.06
-47.44
-57.12
-67.96
-79.45
-90.51
-99.33
-103.53
-100.67
-89.12
-68.89
-41.89
-11.55
18.24
44.27
64.82
79.75
89.95
96.57
100.48
102.02
101.18
98.00
92.70
85.85
78.12
70.17
62.51
55.45
49.18
43.88
39.63
36.40
33.89
31.58
28.85
25.18
20.34
14.46
7.86
0.87
-6.37
-13.94
-21.98
-30.52
-39.35
-48.04
-56.09
-63.13
-69.11
-74.36
-79.53
-85.45
-92.89
-102.14
-112.51
-122.07
-127.81
-126.43
-115.55
-94.76
-66.07
-33.26
-0.65
28.31
51.90
70.07
83.68
93.61
100.24
103.48
103.25
99.88
94.25
87.50
80.68
74.36
68.63
63.25
57.92
52.61
47.56
43.16
39.76
37.37
35.63
33.86
31.33
27.49
22.20
15.75
8.78
2.00
-4.08
-9.38
-14.24
-19.25
-24.92
-31.36
-38.24
-44.86
-50.50
-54.82
-57.93
-60.44
-63.17
-66.95
-72.37
-79.53
-87.87
-95.85
-101.15
-101.05
-93.33
-77.23
-53.91
-26.28
1.90
27.22
47.62
62.57
72.75
79.23
82.90
84.18
83.21
80.10
75.13
68.76
61.63
54.37
47.55
41.60
36.81
33.26
30.78
28.96
27.30
25.39
23.04
20.31
17.43
14.56
11.88
9.26
6.37
2.76
-1.90
-7.63
-14.10
-20.70
-26.77
-31.26
-33.58
-33.81
-32.77
-31.76
-31.95
-33.76
-36.53
-38.63
-36.83
-28.32
-11.73
12.24
41.04
71.31
99.96
124.93
145.13
162.00
177.06
191.16
204.07
214.73
222.13
225.98
226.96
226.49
228.59
236.85
253.27
277.44
306.72
337.45
366.62
392.86
401.51
382.82
332.71
255.22
161.11
62.98
-29.36
-110.39
-177.99
-231.95
-270.74
-293.80
-302.08
-298.58
-287.85
-274.74
-263.07
-255.01
-251.12
-248.97
-245.52
-238.02
-224.91
-206.33
-183.91
-160.21
-138.14
-120.16
-106.60
-96.46
-87.96
-79.40
-70.06
-60.28
-51.11
-43.69
-38.76
-35.87
-34.15
-32.71
-31.20
-29.75
-28.81
-28.51
-28.57
-28.24
-26.54
-22.83
-17.17
-10.35
-3.40
2.39
6.28
8.24
8.64
8.00
6.56
4.19
0.53
-4.68
-11.31
-18.60
-25.45
-30.74
-33.78
-34.55
-33.66
-32.04
-30.58
-29.87
-29.94
-30.26
-29.87
-27.56
-22.21
-13.16
-0.67
13.97
28.58
40.67
48.20
50.17
46.88
39.68
30.47
21.03
12.63
5.88
0.93
-2.39
-4.30
-5.05
-4.91
-4.20
-3.20
-2.16
-1.17
-0.15
1.05
2.47
4.17
5.72
6.49
5.83
3.39
-0.72
-5.85
-11.08
-15.45
-18.48
-20.26
-21.49
-23.02
-25.47
-28.88
-32.64
-35.83
-37.61
-37.71
-36.56
-35.14
-34.64
-36.17
-40.40
-47.35
-56.21
-65.34
-72.39
-74.84
-70.69
-59.17
-41.17
-19.02
4.21
25.73
43.72
57.57
67.60
74.46
78.64
80.30
79.41
76.05
70.58
63.68
56.07
48.36
40.94
33.97
27.51
21.64
16.51
12.28
9.02
6.61
4.75
3.07
1.18
-1.10
-3.81
-6.93
-10.47
-14.57
-19.44
-25.19
-31.64
-38.36
-44.78
-50.45
-55.33
-59.78
-64.44
-69.96
-76.74
-84.63
-92.79
-99.65
-103.15
-101.30
-92.90
-78.09
-58.45
-36.57
-15.22
3.53
18.75
30.64
39.97
47.60
54.06
59.58
64.30
68.39
72.12
75.62
78.78
81.17
82.24
81.53
78.97
74.95
70.19
65.46
61.28
57.71
54.36
50.63
46.00
40.26
33.65
26.77
20.33
14.84
10.46
6.87
3.46
-0.48
-5.41
-11.35
-17.94
-24.51
-30.46
-35.41
-39.39
-42.81
-46.27
-50.43
-55.77
-62.37
-69.65
-76.27
-80.20
-79.21
-71.66
-57.22
-37.23
-14.40
8.04
27.39
42.21
52.44
58.99
62.95
65.09
65.69
64.68
62.04
58.01
53.09
47.83
42.70
37.88
33.38
29.18
25.36
22.14
19.80
18.50
18.17
18.43
18.71
18.44
17.25
15.05
12.06
8.60
5.00
1.42
-2.14
-5.76
-9.42
-13.00
-16.25
-18.94
-21.02
-22.73
-24.48
-26.68
-29.54
-32.97
-36.62
-40.04
-42.89
-45.11
-46.94
-48.83
-51.36
-55.02
-59.94
-65.65
-70.91
-73.84
-72.44
-65.25
-51.97
-33.79
-13.02
7.63
25.82
40.23
50.59
57.32
61.08
62.35
61.40
58.44
53.80
48.00
41.72
35.61
30.16
25.61
22.00
19.20
17.04
15.31
13.88
12.65
11.66
10.95
10.52
10.22
9.72
8.55
6.25
2.56
-2.46
-8.46
-14.85
-21.04
-26.57
-31.21
-34.97
-38.08
-40.92
-43.98
-47.70
-52.29
-57.49
-62.38
-65.44
-64.90
-59.32
-48.21
-32.34
-13.61
5.52
22.74
36.54
46.35
52.45
55.46
55.98
54.38
50.94
46.02
40.20
34.27
28.98
24.78
21.72
19.42
17.37
15.19
12.81
10.46
8.53
7.24
6.51
5.92
4.83
2.65
-0.94
-5.86
-11.67
-17.73
-23.41
-28.28
-32.30
-35.77
-39.26
-43.39
-48.66
-55.12
-62.26
-68.80
-72.97
-72.87
-67.10
-55.37
-38.73
-19.36
0.07
17.22
30.68
40.19
46.36
50.12
52.27
53.27
53.25
52.26
50.40
47.86
44.85
41.49
37.82
33.83
29.65
25.61
22.20
19.87
18.77
18.62
18.75
18.28
16.52
13.17
8.48
3.10
-2.21
-6.80
-10.41
-13.22
-15.73
-18.56
-22.18
-26.73
-31.95
-37.27
-42.09
-45.95
-48.81
-51.01
-53.19
-56.09
-60.23
-65.74
-72.11
-78.14
-82.02
-81.80
-75.92
-63.86
-46.39
-25.52
-3.85
16.14
32.77
45.47
54.57
60.89
65.29
68.28
70.05
70.55
69.72
67.62
64.56
60.97
57.28
53.84
50.79
48.17
45.95
44.18
42.95
42.31
42.11
42.00
41.43
39.87
37.06
33.11
28.48
23.82
19.70
16.33
13.55
10.88
7.77
3.86
-0.82
-5.90
-10.79
-15.00
-18.38
-21.13
-23.73
-26.71
-30.41
-34.87
-39.83
-44.89
-49.67
-53.94
-57.72
-61.15
-64.56
-68.40
-73.12
-79.02
-85.91
-92.94
-98.41
-100.13
-96.07
-85.10
-67.60
-45.48
-21.65
0.93
20.09
34.89
45.54
52.87
57.84
61.09
62.95
63.56
63.04
61.59
59.44
56.79
53.73
50.32
46.67
43.08
39.94
37.66
36.41
36.05
36.08
35.82
34.69
32.36
28.86
24.53
19.88
15.38
11.33
7.81
4.64
1.55
-1.76
-5.43
-9.37
-13.29
-16.83
-19.74
-22.03
-23.99
-26.06
-28.65
-31.94
-35.80
-39.81
-43.46
-46.40
-48.58
-50.36
-52.38
-55.35
-59.74
-65.49
-71.83
-77.26
-79.81
-77.56
-69.31
-55.07
-36.17
-14.96
5.94
24.34
38.98
49.60
56.61
60.62
62.20
61.77
59.68
56.40
52.44
48.36
44.55
41.17
38.19
35.47
32.94
30.69
28.92
27.87
27.63
28.02
28.64
28.91
28.32
26.61
23.79
20.17
16.19
12.27
8.64
5.32
2.14
-1.11
-4.55
-8.13
-11.62
-14.73
-17.30
-19.40
-21.32
-23.45
-26.10
-29.32
-32.91
-36.48
-39.67
-42.37
-44.75
-47.27
-50.50
-54.93
-60.65
-67.14
-73.18
-76.96
-76.61
-70.69
-58.83
-41.97
-22.15
-1.90
16.45
31.40
42.43
49.75
53.97
55.65
55.25
53.09
49.57
45.23
40.69
36.57
33.35
31.20
30.03
29.50
29.21
28.81
28.18
27.39
26.63
26.02
25.48
24.70
23.25
20.78
17.29
13.11
8.83
5.02
2.01
-0.30
-2.35
-4.73
-7.85
-11.79
-16.25
-20.72
-24.69
-27.89
-30.37
-32.44
-34.56
-37.21
-40.74
-45.37
-50.97
-56.96
-62.18
-65.06
-63.94
-57.60
-45.84
-29.65
-11.04
7.57
24.03
36.99
46.09
51.67
54.44
54.99
53.76
51.03
47.15
42.57
37.87
33.61
30.18
27.76
26.28
25.53
25.25
25.19
25.16
24.98
24.50
23.58
22.11
20.00
17.20
13.74
9.73
5.41
1.12
-2.78
-6.02
-8.53
-10.49
-12.32
-14.50
-17.44
-21.28
-25.90
-30.89
-35.78
-40.13
-43.68
-46.46
-48.75
-51.02
-53.85
-57.71
-62.79
-68.68
-74.27
-77.83
-77.38
-71.34
-59.18
-41.72
-21.02
0.22
19.46
34.95
46.06
53.09
56.89
58.38
58.31
57.14
55.15
52.55
49.58
46.52
43.67
41.25
39.34
37.89
36.74
35.76
34.89
34.17
33.65
33.26
32.77
31.76
29.86
26.87
22.93
18.51
14.22
10.62
7.92
5.92
4.14
2.00
-0.90
-4.59
-8.78
-12.96
-16.66
-19.65
-22.02
-24.19
-26.65
-29.79
-33.72
-38.21
-42.80
-46.98
-50.42
-53.09
-55.33
-57.72
-60.88
-65.32
-71.10
-77.66
-83.65
-87.12
-86.00
-78.76
-65.06
-46.02
-23.99
-1.85
17.83
33.46
44.60
51.68
55.59
57.20
57.17
55.94
53.81
51.13
48.25
45.48
43.04
41.05
39.49
38.26
37.26
36.45
35.82
35.35
34.98
34.55
33.79
32.38
30.08
26.85
22.92
18.76
14.90
11.74
9.42
7.69
6.08
4.06
1.32
-2.15
-6.03
-9.81
-13.04
-15.55
-17.49
-19.34
-21.66
-24.85
-29.00
-33.78
-38.58
-42.77
-45.92
-47.94
-49.11
-50.03
-51.40
-53.89
-57.94
-63.52
-69.90
-75.60
-78.59
-76.81
-68.97
-55.06
-36.54
-15.92
4.02
21.08
34.16
43.23
48.92
52.00
53.02
52.27
50.00
46.61
42.69
38.91
35.79
33.60
32.28
31.68
31.58
31.79
32.17
32.53
32.63
32.17
30.90
28.66
25.48
21.57
17.25
12.88
8.81
5.26
2.35
-0.01
-1.96
-3.73
-5.57
-7.71
-10.37
-13.71
-17.77
-22.40
-27.28
-31.96
-36.03
-39.29
-41.80
-43.91
-46.17
-49.15
-53.33
-58.94
-65.69
-72.63
-78.04
-79.80
-75.94
-65.43
-48.70
-27.68
-5.28
15.54
32.63
45.07
53.09
57.59
59.61
59.92
58.98
57.05
54.37
51.28
48.18
45.44
43.25
41.64
40.52
39.77
39.37
39.34
39.71
40.36
40.95
41.02
40.11
38.01
34.83
30.97
27.01
23.43
20.47
18.05
15.86
13.56
10.92
7.97
4.89
1.94
-0.72
-3.10
-5.38
-7.79
-10.51
-13.52
-16.65
-19.63
-22.31
-24.69
-27.04
-29.72
-33.02
-37.03
-41.55
-46.11
-50.24
-53.61
-56.23
-58.45
-60.90
-64.30
-69.21
-75.73
-83.26
-90.31
-94.73
-94.20
-87.01
-72.74
-52.57
-29.02
-5.19
16.14
33.21
45.52
53.53
58.25
60.67
61.59
61.50
60.71
59.49
58.10
56.72
55.46
54.31
53.18
51.96
50.64
49.28
48.00
46.92
46.05
45.27
44.36
43.05
41.14
38.56
35.40
31.89
28.39
25.18
22.46
20.23
18.29
16.39
14.26
11.78
8.99
6.12
3.44
1.18
-0.61
-2.13
-3.71
-5.72
-8.33
-11.45
-14.75
-17.77
-20.24
-22.12
-23.71
-25.47
-27.83
-30.99
-34.87
-39.17
-43.52
-47.62
-51.32
-54.66
-57.86
-61.25
-65.23
-70.20
-76.26
-83.01
-89.28
-93.25
-92.81
-86.28
-73.10
-54.16
-31.65
-8.48
12.66
29.92
42.63
51.11
56.23
58.98
60.07
59.98
58.99
57.36
55.34
53.19
51.08
49.08
47.22
45.52
44.05
42.96
42.35
42.21
42.35
42.40
41.93
40.63
38.34
35.13
31.31
27.28
23.43
19.98
16.97
14.25
11.63
8.98
6.35
3.93
1.97
0.59
-0.30
-1.00
-1.94
-3.46
-5.69
-8.47
-11.47
-14.33
-16.83
-19.02
-21.12
-23.45
-26.18
-29.28
-32.51
-35.58
-38.28
-40.63
-42.85
-45.31
-48.39
-52.41
-57.50
-63.47
-69.63
-74.73
-77.09
-74.98
-67.28
-53.95
-36.25
-16.44
2.91
19.64
32.55
41.44
46.84
49.55
50.28
49.55
47.69
45.06
42.06
39.16
36.73
35.01
33.97
33.43
33.15
32.96
32.86
32.90
33.08
33.26
33.09
32.18
30.24
27.23
23.41
19.25
15.29
11.96
9.42
7.54
5.93
4.12
1.73
-1.35
-4.92
-8.56
-11.86
-14.57
-16.79
-18.92
-21.47
-24.77
-28.84
-33.35
-37.76
-41.58
-44.56
-46.75
-48.54
-50.49
-53.17
-57.08
-62.36
-68.61
-74.72
-78.92
-79.20
-73.87
-62.32
-45.31
-24.90
-3.85
15.25
30.61
41.59
48.55
52.38
54.05
54.32
53.65
52.31
50.49
48.40
46.24
44.22
42.43
40.89
39.61
38.58
37.89
37.63
37.85
38.43
39.05
39.25
38.53
36.60
33.48
29.51
25.24
21.24
17.89
15.25
13.17
11.32
9.42
7.29
4.92
2.41
-0.10
-2.52
-4.84
-7.17
-9.61
-12.27
-15.09
-17.92
-20.59
-22.97
-25.16
-27.40
-29.99
-33.16
-36.86
-40.81
-44.63
-47.97
-50.72
-53.09
-55.53
-58.60
-62.81
-68.38
-75.05
-81.88
-87.29
-89.34
-86.22
-76.92
-61.62
-41.86
-20.09
0.97
19.10
33.07
42.74
48.78
52.25
54.16
55.20
55.69
55.70
55.22
54.26
52.91
51.32
49.62
47.91
46.28
44.88
43.87
43.40
43.46
43.77
43.88
43.31
41.73
39.13
35.77
32.08
28.44
25.15
22.30
19.84
17.63
15.45
13.08
10.38
7.36
4.20
1.19
-1.40
-3.43
-5.02
-6.49
-8.24
-10.57
-13.53
-16.87
-20.18
-23.07
-25.32
-27.08
-28.73
-30.76
-33.51
-37.02
-41.01
-45.03
-48.65
-51.64
-54.04
-56.21
-58.68
-62.02
-66.63
-72.47
-78.74
-83.83
-85.66
-82.21
-72.32
-56.30
-35.94
-14.00
6.66
23.87
36.69
45.26
50.46
53.31
54.69
55.17
55.10
54.64
53.91
52.93
51.66
50.09
48.24
46.28
44.45
43.05
42.28
42.14
42.42
42.72
42.58
41.66
39.81
37.07
33.67
29.92
26.17
22.71
19.75
17.35
15.40
13.65
11.83
9.70
7.25
4.64
2.19
0.18
-1.26
-2.21
-2.92
-3.72
-4.92
-6.71
-9.06
-11.78
-14.52
-17.00
-19.07
-20.81
-22.53
-24.61
-27.32
-30.72
-34.55
-38.44
-41.98
-44.91
-47.23
-49.20
-51.27
-54.00
-57.91
-63.18
-69.43
-75.51
-79.67
-79.94
-74.80
-63.81
-47.86
-28.97
-9.67
7.76
21.90
32.34
39.45
43.96
46.53
47.54
47.17
45.50
42.76
39.37
35.93
33.05
31.14
30.37
30.59
31.49
32.72
33.93
34.91
35.48
35.49
34.85
33.47
31.34
28.55
25.29
21.82
18.45
15.45
13.00
11.12
9.65
8.25
6.59
4.35
1.48
-1.86
-5.31
-8.50
-11.14
-13.28
-15.21
-17.42
-20.34
-24.18
-28.79
-33.66
-38.16
-41.73
-44.15
-45.63
-46.77
-48.40
-51.32
-55.97
-62.22
-69.23
-75.41
-78.79
-77.46
-70.23
-57.12
-39.51
-19.76
-0.54
16.00
28.74
37.64
43.45
47.12
49.36
50.56
50.79
50.10
48.66
46.76
44.71
42.78
41.08
39.67
38.59
37.92
37.72
37.96
38.45
38.83
38.73
37.84
36.04
33.47
30.41
27.20
24.07
21.15
18.42
15.79
13.17
10.55
7.94
5.40
2.96
0.55
-1.95
-4.68
-7.68
-10.85
-13.96
-16.80
-19.29
-21.54
-23.86
-26.57
-29.85
-33.65
-37.68
-41.55
-44.98
-47.89
-50.47
-53.12
-56.33
-60.51
-65.90
-72.27
-78.88
-84.34
-86.92
-84.89
-77.15
-63.68
-45.66
-25.28
-5.05
12.83
27.04
37.23
43.87
47.84
50.02
51.06
51.35
51.09
50.43
49.45
48.23
46.84
45.30
43.67
42.07
40.71
39.77
39.35
39.39
39.66
39.80
39.40
38.22
36.16
33.40
30.23
27.04
24.09
21.49
19.13
16.78
14.26
11.52
8.73
6.15
3.96
2.20
0.64
-1.05
-3.15
-5.73
-8.62
-11.45
-13.93
-15.91
-17.56
-19.21
-21.30
-24.10
-27.65
-31.71
-35.83
-39.54
-42.51
-44.71
-46.39
-48.08
-50.41
-53.95
-58.97
-65.21
-71.72
-76.90
-78.78
-75.63
-66.59
-52.13
-33.99
-14.73
3.09
17.67
28.30
35.33
39.68
42.30
43.80
44.45
44.25
43.19
41.41
39.16
36.79
34.53
32.56
30.95
29.77
29.08
28.96
29.35
30.05
30.67
30.72
29.81
27.75
24.68
21.01
17.26
13.90
11.21
9.20
7.60
6.03
4.14
1.76
-1.03
-3.89
-6.42
-8.34
-9.64
-10.67
-11.95
-14.00
-17.09
-21.06
-25.44
-29.64
-33.21
-36.04
-38.35
-40.65
-43.49
-47.32
-52.30
-58.14
-63.99
-68.46
-69.89
-66.75
-58.20
-44.57
-27.35
-8.82
8.65
23.29
34.31
41.85
46.61
49.36
50.66
50.79
49.94
48.32
46.28
44.23
42.43
40.99
39.78
38.66
37.57
36.59
35.93
35.71
35.87
36.15
36.13
35.42
33.83
31.38
28.31
24.96
21.67
18.64
15.98
13.67
11.61
9.67
7.67
5.45
2.84
-0.17
-3.53
-7.01
-10.35
-13.32
-15.87
-18.17
-20.49
-23.14
-26.31
-29.97
-33.92
-37.84
-41.40
-44.37
-46.72
-48.69
-50.71
-53.36
-57.19
-62.46
-68.93
-75.66
-81.10
-83.36
-80.71
-72.20
-58.06
-39.72
-19.50
0.06
16.82
29.58
38.15
43.14
45.59
46.55
46.84
46.94
46.99
46.96
46.69
45.99
44.79
43.12
41.14
39.14
37.47
36.41
36.10
36.44
37.13
37.70
37.65
36.62
34.47
31.37
27.67
23.84
20.32
17.35
15.00
13.11
11.40
9.62
7.65
5.52
3.36
1.29
-0.69
-2.69
-4.92
-7.49
-10.35
-13.27
-15.91
-18.02
-19.63
-21.04
-22.70
-25.05
-28.24
-32.15
-36.37
-40.46
-44.03
-46.99
-49.50
-51.95
-54.89
-58.79
-63.96
-70.28
-77.03
-82.83
-85.88
-84.40
-77.23
-64.38
-47.13
-27.70
-8.59
8.13
21.27
30.63
36.74
40.43
42.50
43.55
43.90
43.74
43.14
42.16
40.92
39.53
38.10
36.75
35.53
34.50
33.75
33.37
33.40
33.74
34.16
34.31
33.86
32.63
30.64
28.14
25.47
22.93
20.72
18.87
17.27
15.71
14.02
12.14
10.13
8.19
6.46
4.98
3.59
2.02
0.05
-2.38
-5.09
-7.80
-10.24
-12.33
-14.23
-16.26
-18.68
-21.63
-25.00
-28.52
-31.87
-34.83
-37.33
-39.51
-41.66
-44.19
-47.50
-51.85
-57.06
-62.38
-66.41
-67.47
-64.06
-55.49
-42.24
-25.81
-8.35
8.05
21.88
32.38
39.53
43.72
45.51
45.44
43.97
41.53
38.49
35.21
32.02
29.25
27.14
25.83
25.27
25.31
25.74
26.41
27.23
28.16
29.06
29.67
29.61
28.58
26.47
23.49
20.10
16.83
14.05
11.78
9.77
7.61
4.98
1.86
-1.52
-4.78
-7.62
-10.00
-12.17
-14.54
-17.46
-21.03
-25.09
-29.23
-33.02
-36.16
-38.62
-40.66
-42.76
-45.49
-49.32
-54.28
-59.75
-64.45
-66.62
-64.59
-57.36
-45.05
-29.04
-11.49
5.26
19.39
29.96
36.94
40.84
42.42
42.34
41.10
39.07
36.56
33.90
31.31
28.96
26.92
25.18
23.73
22.58
21.79
21.41
21.49
21.98
22.71
23.38
23.55
22.85
21.09
18.39
15.13
11.83
8.98
6.76
5.09
3.65
2.01
-0.09
-2.70
-5.60
-8.40
-10.77
-12.52
-13.82
-15.11
-16.93
-19.69
-23.43
-27.84
-32.32
-36.30
-39.43
-41.72
-43.57
-45.55
-48.34
-52.38
-57.79
-64.02
-69.86
-73.55
-73.20
-67.48
-56.10
-40.05
-21.35
-2.46
14.44
27.94
37.56
43.59
46.80
48.07
48.19
47.76
47.10
46.34
45.46
44.46
43.34
42.21
41.17
40.33
39.73
39.34
39.15
39.10
39.12
39.02
38.58
37.55
35.77
33.26
30.17
26.78
23.39
20.26
17.54
15.25
13.23
11.21
8.88
6.00
2.52
-1.41
-5.42
-9.14
-12.27
-14.76
-16.79
-18.71
-20.93
-23.77
-27.29
-31.32
-35.48
-39.29
-42.37
-44.61
-46.24
-47.77
-49.90
-53.24
-58.18
-64.59
-71.68
-78.05
-81.83
-81.19
-74.85
-62.60
-45.50
-25.62
-5.55
12.40
26.71
36.87
43.27
46.81
48.48
49.06
49.01
48.53
47.73
46.69
45.51
44.31
43.17
42.07
40.99
39.98
39.18
38.80
38.91
39.38
39.79
39.62
38.38
35.86
32.20
27.85
23.38
19.34
16.07
13.60
11.65
9.78
7.51
4.53
0.87
-3.12
-6.96
-10.21
-12.70
-14.59
-16.31
-18.35
-21.06
-24.44
-28.18
-31.77
-34.79
-37.11
-39.01
-41.12
-44.13
-48.54
-54.34
-60.95
-67.21
-71.58
-72.46
-68.63
-59.64
-46.08
-29.49
-12.02
4.20
17.59
27.42
33.79
37.32
38.75
38.70
37.64
35.91
33.84
31.77
29.95
28.54
27.49
26.70
26.10
25.68
25.60
25.95
26.71
27.59
28.09
27.67
25.92
22.83
18.74
14.25
9.95
6.21
2.99
-0.04
-3.37
-7.31
-11.89
-16.77
-21.41
-25.31
-28.21
-30.25
-31.96
-34.08
-37.39
-42.36
-48.89
-56.15
-62.58
-66.22
-65.27
-58.68
-46.58
-30.33
-12.16
5.50
20.63
32.07
39.68
44.00
46.00
46.57
46.39
45.77
44.78
43.41
41.77
40.06
38.55
37.42
36.64
36.02
35.31
34.41
33.39
32.43
31.67
31.07
30.42
29.35
27.53
24.79
21.19
17.01
12.61
8.45
4.85
2.00
-0.19
-2.10
-4.27
-7.21
-11.22
-16.21
-21.77
-27.31
-32.30
-36.46
-39.87
-42.88
-46.00
-49.81
-54.74
-60.92
-68.00
-74.91
-79.98
-81.24
-77.04
-66.72
-50.98
-31.80
-11.86
6.27
20.83
31.25
37.94
41.92
44.28
45.82
46.91
47.60
47.78
47.35
46.29
44.70
42.75
40.66
38.66
36.98
35.78
35.16
35.09
35.40
35.80
35.94
35.46
34.12
31.81
28.63
24.85
20.86
17.09
13.91
11.47
9.69
8.24
6.72
4.79
2.33
-0.55
-3.54
-6.29
-8.62
-10.55
-12.34
-14.32
-16.84
-20.05
-23.96
-28.35
-32.86
-37.07
-40.62
-43.33
-45.31
-46.98
-48.94
-51.84
-56.09
-61.60
-67.58
-72.58
-74.72
-72.27
-64.28
-51.02
-34.05
-15.73
1.48
15.77
26.35
33.39
37.63
39.95
41.03
41.25
40.78
39.73
38.20
36.32
34.29
32.34
30.67
29.49
28.89
28.83
29.19
29.75
30.24
30.41
30.01
28.83
26.74
23.74
20.03
15.91
11.82
8.15
5.17
2.94
1.29
-0.12
-1.71
-3.85
-6.78
-10.54
-14.92
-19.54
-23.88
-27.50
-30.11
-31.76
-32.83
-33.93
-35.71
-38.67
-43.00
-48.45
-54.29
-59.34
-62.11
-61.11
-55.32
-44.61
-29.89
-12.93
4.11
19.27
31.30
39.77
44.99
47.67
48.57
48.31
47.34
45.94
44.31
42.60
40.88
39.22
37.65
36.20
34.87
33.68
32.62
31.65
30.67
29.57
28.18
26.35
24.01
21.15
17.94
14.63
11.52
8.80
6.49
4.36
2.06
-0.72
-4.09
-7.83
-11.51
-14.72
-17.30
-19.44
-21.61
-24.26
-27.64
-31.60
-35.68
-39.31
-42.05
-43.79
-44.81
-45.67
-47.10
-49.70
-53.80
-59.17
-64.90
-69.49
-71.17
-68.37
-60.32
-47.40
-31.08
-13.58
2.82
16.39
26.33
32.71
36.28
38.03
38.85
39.37
39.86
40.32
40.63
40.62
40.16
39.23
37.88
36.28
34.66
33.21
32.13
31.49
31.25
31.28
31.32
31.07
30.24
28.64
26.21
23.09
19.56
16.00
12.82
10.26
8.40
7.05
5.83
4.34
2.28
-0.43
-3.58
-6.73
-9.50
-11.65
-13.28
-14.74
-16.49
-18.90
-22.05
-25.71
-29.48
-32.93
-35.78
-38.01
-39.85
-41.71
-44.03
-47.24
-51.49
-56.54
-61.57
-65.20
-65.82
-62.00
-53.09
-39.55
-22.96
-5.51
10.57
23.68
33.14
39.09
42.18
43.25
42.97
41.83
40.14
38.10
35.87
33.60
31.44
29.52
27.88
26.53
25.37
24.33
23.36
22.49
21.78
21.20
20.62
19.79
18.41
16.27
13.35
9.83
6.06
2.45
-0.62
-2.95
-4.58
-5.80
-7.05
-8.78
-11.27
-14.49
-18.15
-21.77
-24.90
-27.31
-29.03
-30.34
-31.66
-33.44
-36.06
-39.74
-44.42
-49.65
-54.45
-57.43
-57.06
-52.14
-42.34
-28.45
-12.23
4.10
18.50
29.67
37.23
41.52
43.23
43.09
41.64
39.31
36.45
33.44
30.66
28.37
26.63
25.37
24.40
23.57
22.85
22.24
21.74
21.28
20.68
19.72
18.27
16.34
14.07
11.67
9.27
6.89
4.46
1.92
-0.73
-3.41
-6.00
-8.40
-10.65
-12.91
-15.37
-18.21
-21.47
-25.08
-28.82
-32.43
-35.65
-38.31
-40.42
-42.19
-44.04
-46.49
-50.07
-55.06
-61.17
-67.40
-72.09
-73.33
-69.59
-60.25
-46.02
-28.71
-10.77
5.52
18.63
28.01
33.99
37.35
38.97
39.53
39.46
38.99
38.24
37.27
36.12
34.82
33.43
32.01
30.69
29.60
28.89
28.65
28.84
29.32
29.74
29.66
28.67
26.55
23.39
19.61
15.82
12.62
10.37
9.04
8.23
7.35
5.87
3.51
0.34
-3.29
-6.92
-10.22
-13.05
-15.55
-18.02
-20.78
-23.99
-27.61
-31.43
-35.13
-38.43
-41.11
-43.18
-44.85
-46.61
-49.09
-52.82
-57.94
-63.84
-69.07
-71.66
-69.67
-61.96
-48.67
-31.27
-12.09
6.39
22.23
34.39
42.76
47.78
50.19
50.67
49.81
48.10
45.94
43.64
41.39
39.28
37.38
35.73
34.42
33.52
33.09
33.06
33.26
33.48
33.45
32.96
31.85
30.07
27.67
24.76
21.46
17.91
14.27
10.66
7.20
4.02
1.16
-1.39
-3.73
-6.04
-8.54
-11.41
-14.71
-18.37
-22.16
-25.72
-28.73
-31.03
-32.68
-34.03
-35.58
-37.87
-41.32
-45.97
-51.43
-56.71
-60.38
-60.78
-56.58
-47.23
-33.26
-16.31
1.37
17.48
30.34
39.19
44.15
45.88
45.27
43.11
40.04
36.51
32.90
29.53
26.69
24.63
23.47
23.16
23.52
24.22
24.95
25.45
25.58
25.31
24.61
23.39
21.51
18.82
15.33
11.20
6.80
2.59
-1.06
-3.93
-6.09
-7.88
-9.79
-12.33
-15.78
-20.13
-25.01
-29.91
-34.37
-38.18
-41.46
-44.63
-48.24
-52.74
-58.35
-64.83
-71.35
-76.54
-78.71
-76.28
-68.33
-55.02
-37.65
-18.35
0.52
16.99
29.92
39.03
44.71
47.71
48.83
48.74
47.89
46.64
45.20
43.75
42.44
41.37
40.55
39.95
39.50
39.14
38.82
38.58
38.40
38.23
37.89
37.06
35.44
32.82
29.26
25.03
20.49
16.00
11.72
7.65
3.72
-0.15
-3.85
-7.24
-10.17
-12.64
-14.84
-17.12
-19.85
-23.32
-27.61
-32.54
-37.74
-42.74
-47.11
-50.62
-53.35
-55.70
-58.34
-61.99
-67.05
-73.29
-79.66
-84.30
-85.10
-80.32
-69.29
-52.79
-32.83
-12.10
6.91
22.52
34.15
42.14
47.30
50.49
52.35
53.29
53.48
53.04
52.05
50.61
48.85
46.89
44.92
43.15
41.80
41.00
40.75
40.85
40.95
40.56
39.24
36.76
33.21
28.98
24.68
20.84
17.73
15.29
13.13
10.82
8.10
5.03
1.90
-0.96
-3.36
-5.40
-7.42
-9.80
-12.83
-16.57
-20.75
-24.94
-28.67
-31.62
-33.81
-35.58
-37.54
-40.34
-44.45
-49.94
-56.30
-62.40
-66.66
-67.40
-63.28
-53.87
-39.80
-22.73
-4.90
11.54
25.03
34.91
41.29
44.73
45.92
45.47
43.84
41.43
38.60
35.73
33.13
30.98
29.38
28.31
27.75
27.64
27.89
28.38
28.85
28.98
28.42
26.84
24.06
20.12
15.31
10.16
5.26
1.08
-2.22
-4.88
-7.44
-10.46
-14.27
-18.81
-23.65
-28.21
-32.01
-34.91
-37.19
-39.44
-42.44
-46.80
-52.76
-59.80
-66.60
-71.21
-71.57
-66.25
-55.02
-39.08
-20.66
-2.29
13.87
26.64
35.77
41.73
45.31
47.22
47.94
47.80
46.97
45.61
43.90
42.04
40.20
38.52
37.04
35.77
34.70
33.81
33.06
32.36
31.55
30.39
28.68
26.32
23.29
19.69
15.61
11.13
6.36
1.39
-3.55
-8.22
-12.41
-16.04
-19.22
-22.22
-25.38
-28.97
-33.06
-37.45
-41.77
-45.59
-48.59
-50.70
-52.14
-53.41
-55.11
-57.86
-62.05
-67.56
-73.67
-78.92
-81.44
-79.38
-71.56
-57.96
-39.90
-19.70
-0.03
16.89
29.83
38.66
44.13
47.33
49.26
50.53
51.39
51.81
51.73
51.18
50.29
49.28
48.32
47.50
46.84
46.30
45.88
45.51
45.10
44.48
43.40
41.65
39.08
35.70
31.60
26.96
21.98
16.87
11.89
7.31
3.35
0.08
-2.64
-5.14
-7.80
-10.88
-14.46
-18.39
-22.36
-26.04
-29.22
-31.81
-33.93
-35.87
-38.10
-41.11
-45.34
-50.91
-57.40
-63.76
-68.40
-69.55
-65.80
-56.61
-42.65
-25.63
-7.87
8.39
21.60
31.13
37.23
40.63
42.15
42.39
41.74
40.38
38.52
36.43
34.46
32.90
31.90
31.41
31.21
31.11
30.96
30.81
30.71
30.69
30.59
30.06
28.66
26.09
22.34
17.71
12.75
8.08
4.09
0.91
-1.74
-4.32
-7.35
-11.11
-15.57
-20.32
-24.79
-28.49
-31.29
-33.47
-35.67
-38.62
-42.92
-48.74
-55.71
-62.83
-68.63
-71.40
-69.63
-62.53
-50.31
-34.31
-16.66
0.33
14.81
25.77
33.17
37.64
40.08
41.30
41.86
42.00
41.79
41.22
40.31
39.17
37.88
36.54
35.19
33.89
32.67
31.61
30.73
29.97
29.21
28.21
26.75
24.71
22.08
19.05
15.85
12.74
9.84
7.15
4.51
1.70
-1.40
-4.84
-8.44
-11.96
-15.20
-18.14
-20.97
-24.03
-27.58
-31.62
-35.87
-39.83
-43.02
-45.23
-46.68
-47.90
-49.58
-52.36
-56.51
-61.82
-67.43
-71.96
-73.68
-71.02
-63.01
-49.75
-32.49
-13.32
5.34
21.47
33.91
42.44
47.60
50.29
51.42
51.63
51.31
50.63
49.67
48.52
47.29
46.10
45.04
44.12
43.38
42.80
42.36
42.02
41.64
41.02
39.95
38.19
35.62
32.25
28.21
23.77
19.20
14.78
10.63
6.77
3.07
-0.60
-4.30
-7.96
-11.45
-14.64
-17.50
-20.15
-22.75
-25.47
-28.35
-31.30
-34.11
-36.59
-38.60
-40.19
-41.59
-43.24
-45.64
-49.21
-53.97
-59.42
-64.38
-67.28
-66.51
-60.98
-50.60
-36.42
-20.34
-4.53
9.22
20.03
27.86
33.28
36.94
39.20
40.11
39.62
37.85
35.20
32.32
29.80
27.99
26.88
26.23
25.75
25.23
24.60
23.89
23.12
22.29
21.32
20.05
18.28
15.89
12.82
9.20
5.33
1.63
-1.52
-3.94
-5.73
-7.22
-8.86
-11.03
-13.95
-17.59
-21.71
-25.96
-29.96
-33.45
-36.28
-38.54
-40.56
-42.82
-45.89
-50.22
-55.83
-62.07
-67.61
-70.63
-69.33
-62.60
-50.49
-34.32
-16.30
1.12
16.04
27.48
35.43
40.55
43.73
45.70
46.87
47.39
47.26
46.52
45.28
43.75
42.14
40.60
39.17
37.83
36.56
35.40
34.44
33.76
33.32
32.88
32.09
30.64
28.41
25.49
22.19
18.88
15.86
13.30
11.19
9.41
7.72
5.82
3.47
0.51
-3.02
-6.86
-10.58
-13.79
-16.27
-18.10
-19.61
-21.32
-23.66
-26.83
-30.74
-34.98
-39.03
-42.43
-45.00
-46.89
-48.57
-50.66
-53.75
-58.16
-63.69
-69.57
-74.43
-76.63
-74.62
-67.48
-55.29
-39.24
-21.33
-3.82
11.38
23.19
31.47
36.75
39.90
41.72
42.75
43.25
43.31
42.95
42.24
41.23
40.00
38.62
37.19
35.83
34.68
33.83
33.31
32.98
32.66
32.12
31.22
29.92
28.24
26.28
24.07
21.67
19.14
16.57
14.09
11.81
9.84
8.21
6.84
5.58
4.21
2.55
0.48
-2.00
-4.79
-7.69
-10.50
-13.10
-15.56
-18.06
-20.88
-24.27
-28.32
-32.92
-37.78
-42.48
-46.60
-49.86
-52.19
-53.77
-55.08
-56.69
-59.16
-62.65
-66.71
-70.10
-71.02
-67.71
-59.12
-45.45
-28.26
-9.91
7.16
21.28
31.94
39.61
45.28
49.81
53.55
56.28
57.40
56.18
52.06
44.80
34.65
22.41
9.40
-2.79
-12.67
-19.25
-22.28
-22.29
-20.32
-17.60
-15.19
-13.78
-13.66
-14.73
-16.62
-18.74
-20.39
-20.95
-20.11
-18.04
-15.38
-13.06
-12.00
-12.66
-14.95
-18.22
-21.57
-24.21
-25.68
-26.09
-25.89
-25.81
-26.56
-28.67
-32.26
-36.86
-41.32
-44.00
-43.16
-37.53
-26.86
-12.12
4.72
21.33
35.72
46.83
54.61
59.78
63.24
65.69
67.29
67.82
66.88
64.24
60.05
54.83
49.33
44.28
40.17
37.09
34.83
32.97
31.06
28.78
26.00
22.74
19.19
15.58
12.13
9.01
6.20
3.55
0.78
-2.37
-6.03
-10.18
-14.67
-19.36
-24.18
-29.21
-34.61
-40.56
-47.07
-53.92
-60.45
-65.56
-67.83
-65.84
-58.68
-46.32
-29.88
-11.36
6.92
22.99
35.72
44.88
50.92
54.52
56.32
56.80
56.30
55.21
53.92
52.78
51.95
51.36
50.73
49.71
48.10
45.93
43.45
41.06
39.07
37.57
36.32
34.83
32.49
28.82
23.69
17.41
10.60
4.00
-1.83
-6.70
-10.90
-14.95
-19.44
-24.74
-30.84
-37.38
-43.80
-49.59
-54.49
-58.57
-62.24
-66.13
-70.84
-76.66
-83.26
-89.59
-93.93
-94.37
-89.36
-78.37
-62.13
-42.52
-22.03
-3.08
12.58
24.20
31.88
36.36
38.59
39.39
39.42
39.06
38.55
38.01
37.52
37.14
36.81
36.45
35.97
35.34
34.68
34.18
34.03
34.26
34.66
34.86
34.41
33.03
30.67
27.52
23.88
20.03
16.17
12.37
8.67
5.11
1.75
-1.39
-4.45
-7.67
-11.33
-15.70
-20.77
-26.27
-31.74
-36.68
-40.75
-43.95
-46.64
-49.42
-52.97
-57.79
-63.89
-70.58
-76.48
-79.73
-78.46
-71.46
-58.68
-41.37
-21.78
-2.48
14.36
27.50
36.73
42.56
45.82
47.30
47.50
46.73
45.23
43.24
41.06
39.00
37.26
35.91
34.84
33.88
32.95
32.05
31.34
30.95
30.83
30.72
30.14
28.61
25.85
21.94
17.31
12.60
8.44
5.22
2.94
1.27
-0.35
-2.46
-5.37
-9.01
-13.01
-16.83
-19.98
-22.30
-23.99
-25.58
-27.73
-31.03
-35.76
-41.73
-48.20
-53.84
-56.98
-56.06
-50.08
-39.11
-24.30
-7.67
8.53
22.43
32.97
39.94
43.76
45.12
44.65
42.84
40.06
36.70
33.17
29.92
27.34
25.64
24.83
24.67
24.76
24.71
24.27
23.39
22.22
21.01
19.87
18.69
17.16
14.92
11.75
7.76
3.45
-0.54
-3.70
-5.88
-7.42
-8.96
-11.19
-14.48
-18.71
-23.33
-27.64
-31.13
-33.71
-35.77
-37.96
-40.91
-45.02
-50.33
-56.49
-62.81
-68.23
-71.41
-70.91
-65.59
-55.12
-40.21
-22.66
-4.83
11.04
23.50
32.14
37.46
40.45
42.01
42.71
42.72
42.07
40.80
39.12
37.38
35.86
34.72
33.91
33.30
32.75
32.24
31.84
31.56
31.36
30.98
30.15
28.60
26.28
23.32
20.06
16.83
13.91
11.39
9.15
6.93
4.44
1.48
-1.98
-5.72
-9.41
-12.72
-15.49
-17.86
-20.13
-22.69
-25.80
-29.48
-33.56
-37.69
-41.56
-44.97
-47.92
-50.60
-53.38
-56.76
-61.10
-66.41
-72.05
-76.63
-78.33
-75.38
-66.73
-52.59
-34.46
-14.79
3.78
19.12
30.22
37.22
41.08
42.99
43.91
44.33
44.32
43.79
42.74
41.36
39.99
38.91
38.16
37.63
37.11
36.46
35.72
35.01
34.44
33.98
33.43
32.51
31.00
28.80
26.00
22.83
19.54
16.34
13.35
10.66
8.28
6.13
4.08
1.89
-0.64
-3.63
-7.00
-10.51
-13.79
-16.53
-18.62
-20.22
-21.69
-23.47
-25.88
-28.93
-32.37
-35.73
-38.56
-40.65
-42.09
-43.30
-44.89
-47.45
-51.40
-56.76
-63.03
-69.07
-73.30
-73.94
-69.61
-59.83
-45.29
-27.79
-9.70
6.72
19.93
29.41
35.51
39.08
40.96
41.77
41.78
41.06
39.66
37.76
35.63
33.64
32.03
30.93
30.28
29.98
29.86
29.83
29.79
29.66
29.27
28.44
26.99
24.88
22.21
19.24
16.30
13.67
11.48
9.64
7.89
5.96
3.69
1.09
-1.63
-4.22
-6.53
-8.61
-10.66
-12.94
-15.65
-18.76
-22.03
-25.13
-27.77
-29.90
-31.73
-33.69
-36.31
-40.00
-44.93
-50.78
-56.69
-61.26
-62.87
-60.13
-52.33
-39.92
-24.37
-7.86
7.42
19.87
28.83
34.51
37.65
39.03
39.22
38.48
36.95
34.79
32.36
30.10
28.38
27.41
27.16
27.40
27.88
28.40
28.91
29.36
29.70
29.78
29.37
28.29
26.47
24.03
21.19
18.21
15.26
12.41
9.60
6.70
3.61
0.34
-3.00
-6.22
-9.09
-11.47
-13.40
-15.08
-16.88
-19.14
-22.07
-25.59
-29.34
-32.88
-35.86
-38.24
-40.38
-42.91
-46.58
-51.89
-58.86
-66.77
-74.23
-79.36
-80.27
-75.56
-64.90
-49.11
-30.11
-10.41
7.56
22.05
32.33
38.70
42.11
43.72
44.50
44.99
45.35
45.50
45.34
44.87
44.13
43.20
42.27
41.59
41.46
42.08
43.48
45.47
47.63
49.36
50.13
49.75
48.50
46.95
45.70
45.14
45.32
45.99
46.53
46.46
45.73
44.83
44.45
45.09
46.81
49.30
52.08
54.12
54.57
53.29
50.91
48.33
46.44
46.14
48.55
54.56
62.93
70.84
74.82
71.94
60.29
39.22
9.54
-26.74
-67.03
-110.76
-157.09
-202.84
-241.62
-265.92
-270.25
-253.28
-218.44
-173.01
-128.90
-97.42
-85.44
-93.61
-118.31
-154.57
-197.68
-243.69
-272.29
-267.52
-227.29
-165.80
-100.96
-43.57
3.30
40.50
69.77
92.68
107.63
113.10
109.56
100.41
90.25
82.75
80.32
84.20
94.29
106.32
115.97
120.00
118.15
112.38
105.02
98.17
93.07
90.05
86.91
81.45
72.81
62.35
52.37
44.24
38.47
34.77
32.39
28.76
22.87
15.16
7.58
4.25
6.57
13.02
20.48
26.57
28.60
26.38
22.02
18.62
17.85
18.10
18.59
19.22
21.38
24.82
30.56
40.42
54.72
70.34
81.20
80.45
63.49
30.31
-18.63
-79.61
-146.19
-211.55
-270.36
-318.15
-349.68
-359.64
-324.02
-240.18
-131.77
-31.88
39.56
80.71
100.21
108.72
113.53
116.99
114.92
104.52
88.12
71.70
60.96
59.01
66.13
80.12
95.75
104.23
98.70
77.49
44.33
6.08
-29.50
-54.45
-63.99
-59.35
-47.83
-36.97
-30.45
-27.50
-25.17
-20.92
-14.16
-6.45
-0.47
1.11
-2.22
-8.52
-14.73
-18.68
-20.03
-19.70
-18.70
-16.88
-12.85
-4.43
9.54
27.75
46.16
59.71
64.71
60.62
50.00
37.01
25.28
16.49
10.49
6.46
4.16
4.10
7.09
13.04
20.51
27.14
30.73
30.63
28.15
26.13
26.98
31.66
38.59
44.46
45.99
42.05
34.26
26.05
20.45
17.44
14.62
8.17
-4.75
-24.37
-47.86
-71.05
-89.77
-100.72
-102.65
-94.41
-75.57
-46.57
-9.61
30.73
67.44
92.53
99.78
85.77
53.27
9.06
-38.11
-80.51
-113.04
-134.26
-144.97
-139.33
-119.10
-87.88
-51.33
-15.92
12.68
32.66
46.11
56.17
65.89
73.24
77.46
74.51
61.41
35.43
2.83
-27.03
-46.93
-54.97
-55.59
-54.69
-55.94
-57.82
-54.66
-39.61
-10.17
29.83
72.46
106.96
124.76
122.03
100.77
67.41
30.60
-2.28
-26.46
-39.45
-40.47
-32.34
-19.43
-5.69
6.06
14.45
18.67
18.57
14.79
8.41
0.96
-5.71
-10.01
-11.29
-9.92
-7.40
-5.58
-5.75
-8.22
-12.29
-16.25
-18.23
-17.18
-13.51
-9.28
-7.22
-10.02
-18.62
-31.46
-44.58
-53.19
-53.68
-45.04
-29.41
-10.90
6.15
18.91
26.71
30.58
32.10
32.21
31.16
28.48
23.78
17.19
9.48
1.76
-5.09
-10.68
-15.10
-18.27
-20.13
-20.50
-19.12
-15.90
-10.98
-4.79
2.33
7.81
10.56
10.33
7.69
3.83
0.28
-1.66
-1.32
1.03
4.18
6.87
7.85
6.51
3.13
-1.30
-5.65
-9.25
-12.24
-15.48
-19.87
-26.20
-34.77
-45.22
-56.65
-67.65
-76.43
-80.92
-79.14
-69.57
-52.06
-28.16
-0.90
25.96
49.01
66.05
76.50
81.09
81.26
78.39
73.47
67.14
59.94
52.59
45.89
40.58
37.07
35.36
35.07
35.72
36.88
38.21
39.38
39.93
39.31
37.02
32.88
27.18
20.61
13.96
7.75
2.04
-3.55
-9.59
-16.47
-24.18
-32.33
-40.29
-47.56
-53.97
-59.77
-65.63
-72.36
-80.66
-90.70
-101.79
-112.17
-119.22
-120.00
-112.15
-94.82
-69.16
-38.18
-5.94
23.63
47.77
65.42
76.99
83.80
87.27
88.52
88.24
86.93
85.05
83.16
81.77
81.17
81.34
81.94
82.60
83.03
83.16
83.02
82.60
81.70
79.95
76.96
72.49
66.59
59.61
52.06
44.48
37.28
30.66
24.55
18.65
12.59
6.11
-0.77
-7.73
-14.23
-19.74
-24.10
-27.61
-30.98
-35.03
-40.28
-46.74
-53.90
-60.94
-67.10
-72.00
-75.82
-79.28
-83.42
-89.25
-97.32
-107.20
-117.26
-124.75
-126.41
-119.53
-102.95
-77.67
-46.79
-14.53
15.00
38.93
56.16
67.16
73.39
76.49
77.76
77.97
77.45
76.29
74.50
72.13
69.39
66.60
64.07
62.02
60.45
59.18
57.99
56.72
55.36
53.96
52.47
50.64
48.09
44.44
39.57
33.72
27.39
21.25
15.83
11.38
7.83
4.83
1.90
-1.34
-5.09
-9.27
-13.54
-17.50
-20.82
-23.46
-25.65
-27.86
-30.65
-34.41
-39.22
-44.79
-50.54
-55.85
-60.23
-63.56
-66.11
-68.50
-71.50
-75.84
-81.99
-89.84
-98.48
-106.07
-110.10
-108.02
-98.13
-80.33
-56.35
-29.32
-2.78
20.34
38.36
50.97
58.75
62.68
63.67
62.44
59.64
55.96
52.12
48.79
46.41
45.14
44.87
45.36
46.30
47.43
48.55
49.46
50.02
50.06
49.46
48.13
45.99
43.05
39.36
35.10
30.50
25.91
21.63
17.84
14.50
11.35
8.08
4.46
0.45
-3.75
-7.82
-11.47
-14.55
-17.10
-19.39
-21.78
-24.66
-28.35
-32.90
-38.10
-43.48
-48.46
-52.61
-55.86
-58.53
-61.29
-64.90
-69.89
-76.26
-83.26
-89.37
-92.44
-90.33
-81.55
-65.96
-45.05
-21.52
1.41
21.04
35.86
45.70
51.37
54.02
54.62
53.72
51.61
48.48
44.65
40.61
36.94
34.10
32.34
31.67
31.89
32.67
33.60
34.28
34.41
33.83
32.56
30.75
28.56
26.08
23.30
20.17
16.70
13.06
9.52
6.38
3.78
1.55
-0.71
-3.47
-7.01
-11.29
-15.89
-20.22
-23.72
-26.13
-27.64
-28.77
-30.23
-32.61
-36.17
-40.68
-45.58
-50.14
-53.77
-56.24
-57.83
-59.20
-61.27
-64.89
-70.59
-78.25
-86.89
-94.67
-99.24
-98.31
-90.34
-75.19
-54.23
-30.07
-5.79
15.88
33.15
45.43
53.08
56.97
58.11
57.36
55.38
52.62
49.45
46.17
43.03
40.30
38.24
37.06
36.82
37.38
38.44
39.58
40.46
40.87
40.75
40.07
38.77
36.71
33.75
29.96
25.59
21.10
16.95
13.44
10.61
8.31
6.26
4.20
1.95
-0.65
-3.70
-7.17
-10.94
-14.74
-18.22
-21.12
-23.37
-25.23
-27.18
-29.73
-33.22
-37.65
-42.68
-47.76
-52.38
-56.26
-59.48
-62.40
-65.60
-69.66
-74.99
-81.52
-88.51
-94.40
-97.04
-94.25
-84.58
-67.98
-46.05
-21.63
2.06
22.36
37.81
48.30
54.57
57.72
58.67
58.00
56.05
53.07
49.45
45.67
42.22
39.48
37.68
36.81
36.69
37.03
37.52
37.93
38.13
38.07
37.69
36.88
35.41
33.08
29.81
25.69
21.05
16.32
11.93
8.10
4.84
1.93
-0.95
-4.08
-7.59
-11.42
-15.33
-18.98
-22.04
-24.37
-26.03
-27.35
-28.81
-30.89
-33.90
-37.77
-42.13
-46.41
-50.13
-53.07
-55.42
-57.69
-60.55
-64.68
-70.51
-78.06
-86.65
-94.83
-100.43
-101.07
-94.93
-81.47
-61.78
-38.31
-14.15
8.02
26.47
40.66
50.85
57.59
61.40
62.62
61.55
58.62
54.43
49.76
45.37
41.94
39.92
39.52
40.69
43.11
46.29
49.60
52.44
54.28
54.81
53.88
51.58
48.18
44.12
39.88
35.85
32.11
28.46
24.54
19.98
14.66
8.84
3.05
-2.15
-6.45
-9.97
-13.24
-16.93
-21.51
-27.15
-33.59
-40.36
-46.94
-52.92
-58.17
-62.84
-67.41
-72.60
-79.08
-87.12
-96.10
-104.38
-109.42
-108.56
-99.89
-83.10
-59.74
-32.82
-5.92
17.83
36.50
49.54
57.46
61.29
62.13
60.88
58.27
54.93
51.41
48.18
45.58
43.83
43.07
43.44
44.98
47.62
51.00
54.51
57.37
58.83
58.42
56.04
52.09
47.21
42.11
37.29
32.89
28.70
24.28
19.22
13.34
6.72
-0.27
-7.13
-13.37
-18.56
-22.43
-24.92
-26.31
-27.16
-28.20
-30.04
-32.95
-36.82
-41.29
-46.06
-51.16
-56.97
-64.07
-72.77
-82.70
-92.51
-99.98
-102.49
-97.73
-84.56
-63.49
-36.74
-7.66
20.15
43.77
61.61
73.41
79.90
82.25
81.57
78.82
74.77
70.14
65.61
61.79
59.08
57.62
57.33
57.90
58.98
60.20
61.29
62.09
62.48
62.32
61.41
59.50
56.35
51.92
46.45
40.47
34.64
29.54
25.38
21.98
18.87
15.50
11.51
6.85
1.74
-3.41
-8.13
-12.14
-15.44
-18.33
-21.36
-25.05
-29.67
-35.12
-40.93
-46.50
-51.34
-55.30
-58.56
-61.67
-65.34
-70.22
-76.78
-84.90
-93.59
-100.95
-104.39
-101.35
-90.28
-71.32
-46.45
-18.99
7.48
30.12
47.46
59.40
66.71
70.44
71.44
70.24
67.23
62.90
57.91
53.07
49.14
46.67
45.87
46.56
48.33
50.57
52.70
54.19
54.64
53.87
51.87
48.83
45.06
40.94
36.78
32.79
29.01
25.36
21.67
17.76
13.55
9.03
4.32
-0.39
-4.93
-9.24
-13.36
-17.46
-21.70
-26.18
-30.83
-35.42
-39.66
-43.40
-46.74
-50.09
-54.04
-59.22
-65.92
-73.87
-81.99
-88.49
-91.13
-87.82
-77.37
-59.99
-37.41
-12.50
11.52
31.93
47.14
56.76
61.44
62.38
60.84
57.91
54.35
50.64
47.04
43.70
40.72
38.21
36.28
35.05
34.54
34.65
35.20
35.92
36.54
36.76
36.27
34.87
32.44
29.09
25.08
20.81
16.65
12.83
9.32
5.91
2.27
-1.77
-6.19
-10.80
-15.31
-19.62
-23.76
-27.95
-32.41
-37.20
-42.20
-47.11
-51.66
-55.65
-59.11
-62.26
-65.50
-69.42
-74.61
-81.47
-89.75
-98.29
-104.95
-107.12
-102.53
-90.15
-70.72
-46.61
-21.05
2.82
22.78
37.83
48.02
54.01
56.65
56.79
55.21
52.63
49.65
46.65
43.86
41.34
39.19
37.55
36.63
36.56
37.38
38.99
41.20
43.77
46.36
48.52
49.64
49.17
46.80
42.61
37.12
31.10
25.31
20.25
16.02
12.46
9.31
6.33
3.37
0.31
-2.94
-6.49
-10.33
-14.35
-18.31
-21.99
-25.33
-28.48
-31.77
-35.49
-39.67
-44.02
-48.12
-51.62
-54.53
-57.23
-60.39
-64.68
-70.51
-77.78
-85.72
-92.90
-97.31
-96.88
-90.06
-76.40
-56.92
-33.87
-10.12
11.64
29.57
42.95
52.03
57.53
60.37
61.28
60.83
59.38
57.24
54.65
51.93
49.38
47.28
45.80
44.95
44.56
44.46
44.49
44.57
44.65
44.56
44.02
42.71
40.40
37.11
33.16
29.05
25.22
21.94
19.16
16.58
13.76
10.32
6.08
1.18
-3.95
-8.65
-12.32
-14.68
-15.89
-16.57
-17.56
-19.60
-22.95
-27.34
-32.04
-36.20
-39.28
-41.19
-42.36
-43.49
-45.29
-48.28
-52.64
-58.14
-64.13
-69.45
-72.54
-71.76
-65.90
-54.64
-38.79
-20.17
-1.09
16.29
30.55
41.13
48.19
52.19
53.57
52.63
49.53
44.60
38.40
31.84
25.94
21.55
19.11
18.59
19.54
21.33
23.40
25.33
26.87
27.78
27.78
26.54
23.84
19.68
14.44
8.78
3.42
-1.15
-4.82
-7.91
-10.99
-14.55
-18.82
-23.64
-28.63
-33.36
-37.61
-41.42
-45.02
-48.78
-53.11
-58.32
-64.51
-71.28
-77.60
-81.80
-81.96
-76.55
-65.05
-48.31
-28.37
-7.89
10.72
25.87
37.02
44.51
49.11
51.63
52.69
52.66
51.73
50.04
47.77
45.16
42.52
40.16
38.32
37.16
36.65
36.61
36.76
36.76
36.33
35.30
33.66
31.51
29.01
26.26
23.24
19.85
15.95
11.43
6.34
0.88
-4.58
-9.62
-13.91
-17.35
-20.14
-22.79
-25.86
-29.78
-34.67
-40.23
-45.89
-51.07
-55.41
-58.94
-62.07
-65.48
-69.89
-75.81
-83.26
-91.50
-98.96
-103.45
-102.69
-94.97
-79.91
-58.64
-33.69
-8.28
14.57
32.75
45.47
53.14
56.98
58.46
58.89
59.04
59.19
59.23
58.87
57.89
56.28
54.27
52.25
50.63
49.68
49.44
49.74
50.25
50.57
50.34
49.27
47.23
44.27
40.57
36.43
32.21
28.25
24.78
21.83
19.32
17.04
14.76
12.27
9.42
6.10
2.29
-1.94
-6.42
-10.88
-15.04
-18.72
-21.90
-24.81
-27.81
-31.29
-35.49
-40.39
-45.72
-51.03
-55.90
-60.12
-63.79
-67.31
-71.25
-76.16
-82.36
-89.75
-97.59
-104.45
-108.35
-107.14
-99.22
-84.13
-62.96
-38.17
-12.92
9.86
28.18
41.40
49.99
55.03
57.72
58.99
59.43
59.29
58.61
57.35
55.49
53.15
50.62
48.25
46.38
45.16
44.55
44.37
44.38
44.39
44.18
43.49
42.05
39.69
36.49
32.79
29.12
25.92
23.38
21.35
19.39
17.12
14.34
11.14
7.79
4.54
1.50
-1.40
-4.26
-7.09
-9.77
-12.16
-14.25
-16.30
-18.75
-22.00
-26.17
-30.92
-35.68
-39.84
-43.12
-45.69
-48.05
-50.78
-54.33
-58.99
-64.81
-71.68
-79.13
-86.14
-91.06
-91.83
-86.58
-74.40
-55.93
-33.29
-9.57
12.20
29.97
43.03
51.89
57.62
61.17
63.00
63.12
61.45
58.22
54.14
50.19
47.29
45.91
45.92
46.74
47.65
48.13
48.01
47.42
46.62
45.79
44.88
43.63
41.71
38.93
35.31
31.16
26.97
23.12
19.76
16.72
13.62
10.13
6.18
2.02
-1.87
-5.14
-7.73
-9.93
-12.30
-15.34
-19.29
-24.00
-29.09
-34.07
-38.62
-42.63
-46.30
-50.07
-54.46
-60.02
-67.02
-75.24
-83.76
-90.96
-94.75
-93.11
-84.82
-69.98
-50.14
-27.92
-6.24
12.53
27.16
37.54
44.38
48.58
50.88
51.64
51.00
49.03
45.97
42.30
38.65
35.69
33.96
33.66
34.66
36.42
38.21
39.38
39.53
38.67
37.12
35.27
33.39
31.53
29.62
27.56
25.35
23.05
20.75
18.47
16.12
13.50
10.32
6.39
1.66
-3.65
-9.08
-14.11
-18.40
-21.99
-25.30
-28.94
-33.37
-38.61
-44.26
-49.71
-54.43
-58.22
-61.22
-63.90
-66.86
-70.80
-76.30
-83.54
-91.89
-99.64
-104.29
-103.18
-94.57
-78.43
-56.59
-32.14
-8.37
12.23
28.52
40.50
48.89
54.51
58.03
59.81
60.06
58.97
56.78
53.85
50.76
48.18
46.73
46.73
48.03
50.03
51.97
53.22
53.55
53.04
51.87
50.11
47.69
44.56
40.86
36.94
33.27
30.10
27.42
24.92
22.29
19.38
16.30
13.23
10.22
7.15
3.77
-0.16
-4.60
-9.26
-13.68
-17.52
-20.69
-23.50
-26.46
-30.10
-34.69
-40.16
-46.07
-51.90
-57.22
-61.88
-66.10
-70.33
-75.11
-80.89
-87.92
-95.94
-104.07
-110.65
-113.46
-110.28
-99.65
-81.59
-57.86
-31.57
-6.21
15.35
31.69
42.87
50.00
54.41
57.09
58.42
58.40
57.02
54.55
51.59
48.86
46.95
46.07
45.99
46.25
46.35
45.96
45.09
44.02
43.11
42.60
42.40
42.11
41.16
39.13
35.89
31.74
27.23
22.92
19.18
16.06
13.37
10.83
8.19
5.31
2.20
-1.05
-4.25
-7.16
-9.67
-11.79
-13.84
-16.26
-19.42
-23.44
-28.07
-32.80
-37.13
-40.83
-44.01
-47.11
-50.58
-54.76
-59.76
-65.55
-71.99
-78.73
-85.03
-89.56
-90.54
-86.20
-75.44
-58.47
-36.95
-13.60
8.67
27.55
41.94
51.87
58.11
61.56
62.86
62.28
59.95
56.04
51.01
45.69
41.05
38.03
37.17
38.49
41.44
45.09
48.46
50.80
51.77
51.37
49.80
47.30
44.05
40.24
36.12
32.02
28.23
24.90
21.87
18.82
15.38
11.37
6.94
2.44
-1.74
-5.47
-8.91
-12.52
-16.72
-21.73
-27.37
-33.20
-38.72
-43.66
-48.08
-52.41
-57.28
-63.23
-70.43
-78.46
-86.12
-91.58
-92.80
-88.12
-76.94
-59.98
-39.16
-17.08
3.73
21.39
34.94
44.29
49.88
52.38
52.53
51.06
48.66
45.94
43.36
41.20
39.60
38.61
38.26
38.60
39.57
40.98
42.48
43.67
44.17
43.75
42.41
40.22
37.36
33.99
30.23
26.21
22.06
17.85
13.59
9.20
4.57
-0.37
-5.57
-10.84
-15.87
-20.35
-24.07
-27.07
-29.63
-32.24
-35.44
-39.57
-44.68
-50.48
-56.54
-62.48
-68.28
-74.23
-80.84
-88.43
-96.66
-104.27
-109.21
-109.21
-102.51
-88.62
-68.54
-44.49
-19.25
4.67
25.51
42.39
55.08
63.76
68.79
70.69
70.17
68.02
65.01
61.77
58.77
56.35
54.76
54.19
54.59
55.70
57.06
58.17
58.69
58.47
57.56
55.99
53.69
50.54
46.45
41.56
36.26
31.08
26.48
22.63
19.40
16.39
13.13
9.29
4.73
-0.45
-5.90
-11.15
-15.68
-19.11
-21.37
-22.83
-24.22
-26.38
-29.84
-34.60
-40.16
-45.78
-50.90
-55.45
-59.85
-64.80
-70.95
-78.59
-87.45
-96.57
-104.37
-108.86
-108.05
-100.53
-85.98
-65.46
-41.19
-15.99
7.46
27.28
42.59
53.40
60.22
63.68
64.34
62.72
59.42
55.19
50.94
47.51
45.42
44.74
45.02
45.61
45.89
45.56
44.70
43.62
42.67
42.00
41.55
40.97
39.82
37.67
34.30
29.83
24.77
19.90
16.02
13.65
12.73
12.63
12.33
10.93
8.00
3.72
-1.24
-6.10
-10.35
-13.90
-17.00
-20.02
-23.26
-26.86
-30.76
-34.88
-39.11
-43.33
-47.40
-51.22
-54.77
-58.29
-62.27
-67.33
-73.95
-82.10
-90.88
-98.51
-102.64
-100.95
-92.01
-75.83
-54.00
-29.30
-4.91
16.48
33.23
44.90
52.01
55.52
56.50
55.83
54.20
52.11
49.94
48.03
46.58
45.72
45.50
45.91
46.83
48.04
49.25
50.15
50.50
50.17
49.08
47.23
44.60
41.20
37.15
32.68
28.13
23.81
19.90
16.38
13.07
9.79
6.44
3.03
-0.27
-3.31
-6.01
-8.37
-10.51
-12.61
-14.83
-17.28
-19.98
-22.91
-26.06
-29.49
-33.35
-37.85
-43.18
-49.32
-55.89
-62.04
-66.52
-67.90
-64.95
-57.02
-44.34
-28.02
-9.74
8.67
25.65
40.13
51.43
59.15
63.02
62.97
59.31
52.82
44.76
36.63
29.75
25.00
22.66
22.49
23.92
26.30
29.01
31.49
33.27
33.94
33.26
31.16
27.81
23.56
18.84
14.05
9.43
5.03
0.74
-3.72
-8.68
-14.40
-20.92
-28.00
-35.12
-41.66
-47.15
-51.55
-55.30
-59.29
-64.52
-71.59
-80.34
-89.58
-97.21
-100.76
-98.10
-88.14
-71.31
-49.45
-25.33
-1.86
18.65
34.84
46.39
53.73
57.67
59.10
58.78
57.31
55.09
52.43
49.58
46.81
44.39
42.56
41.49
41.16
41.39
41.82
42.01
41.59
40.32
38.13
35.13
31.50
27.39
23.00
18.48
13.97
9.58
5.38
1.33
-2.64
-6.68
-10.87
-15.20
-19.61
-24.01
-28.43
-32.96
-37.78
-42.94
-48.35
-53.78
-58.99
-63.86
-68.55
-73.44
-79.05
-85.75
-93.42
-101.17
-107.34
-109.72
-106.20
-95.45
-77.55
-54.11
-27.93
-2.19
20.36
38.11
50.68
58.74
63.45
66.00
67.23
67.63
67.36
66.52
65.19
63.52
61.67
59.73
57.79
55.92
54.25
52.95
52.17
51.85
51.75
51.43
50.39
48.33
45.19
41.19
36.67
31.97
27.37
23.04
19.15
15.77
12.85
10.12
7.15
3.49
-1.05
-6.25
-11.53
-16.24
-19.95
-22.73
-25.06
-27.61
-30.92
-35.15
-40.08
-45.27
-50.29
-54.86
-58.96
-62.75
-66.56
-70.85
-76.12
-82.74
-90.72
-99.34
-107.08
-111.76
-111.06
-103.23
-87.74
-65.66
-39.49
-12.50
12.17
32.30
47.00
56.60
62.18
64.97
66.00
65.86
64.85
63.18
61.08
58.90
56.98
55.55
54.72
54.42
54.46
54.63
54.72
54.57
54.04
53.03
51.47
49.24
46.33
42.80
38.83
34.69
30.67
26.94
23.53
20.37
17.32
14.24
11.04
7.63
4.01
0.18
-3.79
-7.79
-11.69
-15.37
-18.76
-21.86
-24.74
-27.55
-30.46
-33.70
-37.47
-41.89
-46.91
-52.34
-57.84
-63.11
-68.07
-72.88
-77.97
-83.83
-90.71
-98.22
-105.23
-109.83
-109.83
-103.44
-89.98
-70.19
-46.18
-20.83
3.08
23.48
39.34
50.58
57.72
61.51
62.72
62.00
59.89
56.79
53.06
49.09
45.39
42.48
40.76
40.29
40.76
41.61
42.29
42.55
42.43
42.07
41.51
40.54
38.78
35.99
32.25
28.03
23.94
20.43
17.56
15.02
12.35
9.15
5.30
0.96
-3.53
-7.72
-11.28
-14.02
-16.02
-17.62
-19.31
-21.60
-24.81
-28.90
-33.49
-38.00
-41.89
-44.93
-47.28
-49.43
-52.00
-55.61
-60.69
-67.38
-75.31
-83.41
-89.96
-92.81
-90.01
-80.49
-64.60
-44.08
-21.52
0.44
19.88
35.87
48.37
57.67
64.07
67.66
68.42
66.52
62.40
56.85
50.85
45.42
41.37
39.18
38.93
40.29
42.68
45.34
47.53
48.69
48.51
46.96
44.29
40.92
37.32
33.88
30.76
27.91
25.05
21.84
18.00
13.43
8.27
2.89
-2.29
-6.93
-10.90
-14.36
-17.62
-21.04
-24.79
-28.84
-32.99
-37.04
-40.94
-44.80
-48.86
-53.43
-58.78
-65.07
-72.17
-79.42
-85.45
-88.36
-86.22
-77.84
-63.29
-44.13
-22.84
-2.11
16.02
30.52
41.30
48.73
53.27
55.25
54.91
52.54
48.60
43.73
38.71
34.33
31.26
29.89
30.26
32.00
34.46
36.93
38.86
39.95
40.12
39.40
37.83
35.42
32.27
28.58
24.67
20.78
16.91
12.85
8.29
3.06
-2.66
-8.34
-13.39
-17.40
-20.40
-22.88
-25.53
-28.97
-33.44
-38.80
-44.62
-50.39
-55.69
-60.28
-64.16
-67.63
-71.30
-75.90
-81.97
-89.31
-96.65
-101.73
-101.86
-94.90
-80.10
-58.58
-32.99
-6.76
16.93
35.96
49.51
57.92
62.19
63.50
62.87
61.03
58.47
55.54
52.59
49.98
48.00
46.79
46.30
46.36
46.75
47.39
48.24
49.21
50.04
50.33
49.60
47.58
44.28
40.04
35.40
30.87
26.77
23.21
20.05
16.99
13.64
9.67
4.95
-0.32
-5.63
-10.36
-14.09
-16.89
-19.33
-22.27
-26.41
-31.99
-38.63
-45.53
-51.87
-57.12
-61.27
-64.81
-68.53
-73.31
-79.76
-88.00
-97.32
-106.14
-112.10
-112.67
-105.87
-91.05
-69.25
-43.02
-15.68
9.60
30.61
46.46
57.36
64.22
68.02
69.54
69.30
67.70
65.16
62.19
59.37
57.19
55.90
55.55
55.93
56.73
57.60
58.22
58.40
58.00
57.01
55.43
53.29
50.58
47.32
43.59
39.54
35.38
31.25
27.13
22.86
18.25
13.18
7.67
1.91
-3.82
-9.20
-13.96
-18.01
-21.45
-24.64
-28.11
-32.38
-37.64
-43.65
-49.79
-55.32
-59.82
-63.39
-66.64
-70.47
-75.67
-82.59
-90.99
-99.91
-107.71
-112.27
-111.42
-103.61
-88.45
-67.07
-41.87
-15.90
8.02
28.02
43.32
54.14
61.09
64.85
65.97
64.90
62.18
58.50
54.64
51.29
48.86
47.48
47.01
47.22
47.94
48.99
50.23
51.40
52.15
52.06
50.83
48.35
44.73
40.33
35.63
31.08
26.96
23.29
19.85
16.23
12.05
7.19
1.85
-3.47
-8.23
-12.14
-15.37
-18.45
-22.02
-26.51
-31.82
-37.44
-42.62
-46.79
-49.83
-52.18
-54.61
-58.02
-63.08
-69.95
-78.23
-86.82
-94.00
-97.70
-95.89
-87.21
-71.46
-49.93
-25.07
0.04
22.61
40.78
53.95
62.51
67.41
69.57
69.60
67.83
64.47
59.95
54.94
50.30
46.85
44.99
44.69
45.45
46.55
47.38
47.61
47.20
46.24
44.85
42.98
40.52
37.37
33.57
29.37
25.06
20.88
16.82
12.75
8.44
3.80
-1.09
-5.96
-10.54
-14.67
-18.36
-21.73
-24.93
-28.03
-31.04
-33.97
-36.91
-40.08
-43.78
-48.33
-54.01
-61.01
-69.30
-78.44
-87.44
-94.66
-98.09
-95.83
-86.67
-70.73
-49.53
-25.67
-2.09
18.73
35.35
47.44
55.50
60.33
62.58
62.64
60.74
57.23
52.79
48.32
44.73
42.59
42.02
42.62
43.77
44.84
45.39
45.26
44.50
43.21
41.51
39.41
36.87
33.88
30.47
26.76
22.92
19.04
15.07
10.88
6.34
1.45
-3.52
-8.23
-12.36
-15.91
-19.22
-22.87
-27.31
-32.73
-38.86
-45.17
-51.13
-56.40
-60.95
-64.98
-68.89
-73.24
-78.60
-85.38
-93.39
-101.56
-107.84
-109.62
-104.59
-91.64
-71.46
-46.43
-19.91
4.84
25.47
40.98
51.55
58.02
61.46
62.81
62.76
61.88
60.51
58.84
56.94
54.81
52.53
50.33
48.55
47.47
47.13
47.33
47.66
47.74
47.29
46.12
44.03
40.87
36.55
31.25
25.50
20.07
15.62
12.35
9.80
7.07
3.22
-2.20
-8.92
-16.01
-22.30
-26.88
-29.50
-30.65
-31.38
-32.90
-36.12
-41.33
-48.15
-55.69
-62.82
-68.66
-72.83
-75.59
-77.87
-80.92
-85.94
-93.51
-103.20
-113.33
-121.25
-123.93
-118.88
-104.98
-82.98
-55.43
-26.04
1.39
23.93
40.23
50.52
56.22
59.18
60.88
62.09
62.83
62.80
61.88
60.31
58.75
57.87
57.96
58.87
60.07
60.97
61.26
60.90
60.05
58.79
57.04
54.51
51.07
46.76
41.98
37.28
33.09
29.51
26.32
23.03
19.17
14.52
9.22
3.69
-1.53
-6.06
-9.89
-13.38
-17.03
-21.30
-26.26
-31.63
-36.82
-41.33
-45.00
-48.16
-51.48
-55.72
-61.31
-68.15
-75.44
-81.78
-85.37
-84.45
-77.75
-64.96
-47.04
-26.01
-4.45
15.27
31.58
44.03
52.97
59.11
62.97
64.75
64.44
62.19
58.46
54.07
49.88
46.62
44.67
44.07
44.70
46.22
48.24
50.24
51.64
51.95
50.86
48.34
44.67
40.33
35.82
31.58
27.87
24.70
21.91
19.19
16.16
12.55
8.21
3.20
-2.33
-8.25
-14.47
-20.95
-27.58
-34.15
-40.29
-45.65
-50.09
-53.78
-57.25
-61.19
-66.30
-72.99
-81.21
-90.22
-98.46
-103.71
-103.58
-96.23
-81.10
-59.34
-33.68
-7.61
15.67
34.11
47.18
55.60
60.60
63.34
64.52
64.46
63.33
61.42
59.20
57.17
55.71
54.88
54.48
54.21
53.88
53.47
53.17
53.10
53.22
53.21
52.56
50.76
47.56
43.04
37.68
32.15
27.13
23.06
20.03
17.70
15.43
12.51
8.40
2.93
-3.61
-10.59
-17.27
-23.10
-27.92
-32.05
-36.02
-40.38
-45.34
-50.74
-56.12
-61.05
-65.33
-69.17
-73.15
-77.99
-84.25
-92.06
-100.85
-109.27
-115.33
-116.76
-111.67
-99.22
-80.09
-56.39
-31.12
-7.32
12.74
28.05
38.73
45.65
49.92
52.46
53.89
54.52
54.49
53.88
52.81
51.48
50.20
49.25
48.79
48.78
48.99
49.11
48.99
48.59
48.07
47.51
46.79
45.54
43.32
39.93
35.56
30.80
26.39
22.85
20.22
18.07
15.75
12.72
8.81
4.25
-0.51
-4.93
-8.71
-11.78
-14.34
-16.72
-19.31
-22.46
-26.36
-30.98
-36.03
-41.08
-45.67
-49.59
-52.98
-56.36
-60.42
-65.78
-72.63
-80.52
-88.30
-94.23
-96.32
-92.86
-82.94
-66.85
-46.15
-23.36
-1.25
17.88
32.79
43.35
50.26
54.46
56.69
57.21
56.03
53.15
48.94
44.11
39.65
36.41
34.91
35.13
36.66
38.87
41.17
43.13
44.47
44.99
44.47
42.78
39.89
35.99
31.46
26.71
22.14
18.00
14.39
11.29
8.54
5.89
3.02
-0.34
-4.19
-8.27
-12.11
-15.31
-17.83
-20.10
-22.85
-26.87
-32.60
-40.01
-48.46
-56.88
-63.79
-67.62
-67.01
-61.19
-50.29
-35.39
-18.34
-1.25
14.09
26.57
35.92
42.46
46.70
49.00
49.49
48.16
45.07
40.61
35.52
30.65
26.77
24.30
23.24
23.31
24.07
25.07
25.87
26.05
25.22
23.04
19.38
14.35
8.35
1.94
-4.32
-10.03
-15.10
-19.75
-24.38
-29.39
-34.94
-40.84
-46.63
-51.81
-56.15
-59.83
-63.46
-67.85
-73.67
-81.17
-89.85
-98.40
-104.84
-106.95
-102.92
-91.95
-74.60
-52.72
-28.94
-5.94
14.20
30.40
42.59
51.36
57.59
62.02
65.04
66.80
67.31
66.67
65.22
63.48
61.96
60.96
60.46
60.12
59.52
58.32
56.37
53.70
50.40
46.55
42.24
37.59
32.82
28.26
24.15
20.57
17.37
14.18
10.63
6.48
1.77
-3.24
-8.19
-12.86
-17.21
-21.45
-25.89
-30.77
-36.21
-42.11
-48.22
-54.20
-59.72
-64.56
-68.71
-72.42
-76.25
-80.89
-86.96
-94.58
-103.01
-110.54
-114.71
-113.04
-103.89
-87.15
-64.40
-38.49
-12.64
10.45
29.23
43.39
53.48
60.46
65.28
68.62
70.88
72.23
72.64
72.07
70.54
68.25
65.55
62.88
60.66
59.11
58.25
57.88
57.66
57.25
56.33
54.70
52.25
49.04
45.24
41.06
36.74
32.49
28.45
24.67
21.13
17.71
14.24
10.53
6.40
1.80
-3.12
-8.13
-12.88
-17.10
-20.73
-23.96
-27.14
-30.66
-34.78
-39.53
-44.70
-49.94
-54.88
-59.29
-63.09
-66.47
-69.87
-73.94
-79.34
-86.52
-95.20
-104.22
-111.50
-114.47
-110.85
-99.48
-80.80
-56.86
-30.67
-5.35
16.72
34.38
47.56
56.90
63.26
67.32
69.51
70.13
69.43
67.69
65.26
62.46
59.60
56.99
54.87
53.45
52.81
52.84
53.24
53.59
53.48
52.59
50.79
48.09
44.62
40.59
36.21
31.70
27.28
23.12
19.31
15.86
12.69
9.64
6.53
3.21
-0.40
-4.30
-8.34
-12.33
-15.96
-19.03
-21.48
-23.51
-25.52
-27.98
-31.24
-35.38
-40.17
-45.15
-49.81
-53.83
-57.15
-60.10
-63.33
-67.61
-73.54
-81.22
-89.93
-98.14
-103.65
-104.19
-98.15
-85.07
-65.96
-43.02
-19.07
3.22
21.94
36.32
46.54
53.39
57.80
60.41
61.52
61.22
59.63
57.08
54.09
51.30
49.19
48.03
47.78
48.21
49.03
49.99
50.92
51.65
51.97
51.61
50.31
47.88
44.32
39.88
35.01
30.25
26.06
22.61
19.67
16.79
13.42
9.25
4.36
-0.81
-5.66
-9.70
-12.86
-15.47
-18.10
-21.32
-25.42
-30.28
-35.48
-40.41
-44.58
-47.73
-50.06
-52.08
-54.62
-58.52
-64.30
-71.88
-80.25
-87.56
-91.47
-89.82
-81.36
-66.29
-46.28
-23.99
-2.22
16.84
32.05
43.26
50.97
55.79
58.19
58.49
56.99
54.05
50.26
46.23
42.63
39.93
38.42
38.08
38.62
39.60
40.54
41.06
40.99
40.30
39.07
37.34
35.13
32.43
29.26
25.72
22.00
18.26
14.64
11.15
7.74
4.32
0.77
-2.94
-6.75
-10.49
-14.01
-17.21
-20.15
-23.05
-26.19
-29.85
-34.09
-38.79
-43.61
-48.18
-52.25
-55.81
-59.13
-62.70
-67.10
-72.81
-79.95
-88.07
-95.96
-101.75
-103.34
-98.99
-88.01
-71.11
-50.21
-27.91
-6.66
11.86
26.97
38.78
47.72
54.16
58.28
60.18
60.02
58.21
55.35
52.12
49.11
46.74
45.24
44.58
44.63
45.14
45.80
46.35
46.58
46.33
45.54
44.14
42.09
39.34
35.89
31.89
27.65
23.54
19.90
16.86
14.25
11.71
8.77
5.10
0.63
-4.44
-9.64
-14.47
-18.52
-21.68
-24.23
-26.69
-29.67
-33.61
-38.56
-44.13
-49.70
-54.64
-58.60
-61.70
-64.46
-67.70
-72.24
-78.68
-87.03
-96.43
-105.10
-110.59
-110.43
-102.92
-87.83
-66.57
-41.82
-16.65
6.28
25.40
40.24
51.10
58.57
63.16
65.20
65.05
63.19
60.25
56.91
53.78
51.26
49.55
48.72
48.69
49.36
50.48
51.76
52.90
53.64
53.80
53.23
51.81
49.43
46.03
41.70
36.75
31.66
26.92
22.87
19.51
16.55
13.51
9.89
5.46
0.27
-5.32
-10.83
-15.85
-20.15
-23.83
-27.21
-30.69
-34.60
-39.10
-44.11
-49.36
-54.51
-59.26
-63.53
-67.50
-71.64
-76.57
-82.87
-90.77
-99.78
-108.53
-114.86
-116.29
-110.84
-97.70
-77.66
-52.95
-26.53
-1.29
20.68
38.32
51.50
60.59
66.13
68.65
68.66
66.72
63.51
59.75
56.16
53.32
51.58
51.03
51.51
52.69
54.13
55.42
56.26
56.46
55.95
54.69
52.64
49.71
45.89
41.33
36.38
31.53
27.23
23.66
20.63
17.67
14.29
10.23
5.64
0.98
-3.26
-6.79
-9.72
-12.48
-15.61
-19.50
-24.15
-29.21
-34.08
-38.28
-41.65
-44.53
-47.63
-51.78
-57.62
-65.19
-73.83
-82.12
-88.11
-89.81
-85.65
-75.07
-58.70
-38.31
-16.27
5.04
23.85
39.25
51.01
59.33
64.43
66.49
65.73
62.55
57.68
52.09
46.77
42.59
40.07
39.34
40.20
42.15
44.57
46.79
48.20
48.46
47.45
45.29
42.26
38.62
34.52
29.97
24.94
19.45
13.66
7.83
2.28
-2.82
-7.51
-12.02
-16.67
-21.70
-27.14
-32.82
-38.49
-43.89
-48.86
-53.39
-57.57
-61.67
-66.09
-71.30
-77.80
-85.77
-94.76
-103.46
-109.78
-111.27
-105.95
-93.01
-73.26
-48.90
-22.95
1.68
22.92
39.78
52.26
60.90
66.39
69.35
70.27
69.66
68.01
65.81
63.50
61.38
59.62
58.28
57.40
56.96
56.94
57.18
57.38
57.13
56.04
53.80
50.39
46.08
41.29
36.51
32.06
27.99
24.14
20.22
15.91
11.09
5.85
0.50
-4.53
-8.86
-12.40
-15.36
-18.24
-21.66
-26.07
-31.62
-38.09
-44.90
-51.41
-57.09
-61.77
-65.72
-69.60
-74.29
-80.54
-88.54
-97.62
-106.06
-111.47
-111.32
-103.76
-88.33
-66.20
-39.96
-12.90
11.93
32.42
47.77
58.24
64.80
68.46
70.03
70.00
68.74
66.66
64.23
61.92
60.05
58.67
57.64
56.78
55.99
55.35
54.93
54.73
54.55
53.98
52.57
50.01
46.24
41.48
36.10
30.54
25.19
20.32
16.02
12.18
8.48
4.54
0.05
-5.09
-10.68
-16.25
-21.32
-25.56
-28.97
-31.92
-34.98
-38.71
-43.39
-48.93
-54.83
-60.43
-65.14
-68.73
-71.47
-74.14
-77.71
-82.99
-90.24
-98.79
-107.08
-112.78
-113.48
-107.29
-93.53
-73.02
-47.86
-21.00
4.64
26.73
43.98
56.21
64.03
68.51
70.75
71.56
71.36
70.24
68.21
65.36
62.04
58.81
56.21
54.60
53.99
54.15
54.65
55.06
54.99
54.09
52.05
48.76
44.32
39.17
33.93
29.20
25.33
22.21
19.47
16.62
13.32
9.60
5.73
2.07
-1.11
-3.72
-5.91
-7.95
-10.24
-13.12
-16.79
-21.15
-25.78
-30.11
-33.63
-36.20
-38.21
-40.48
-43.96
-49.25
-56.26
-63.99
-70.66
-74.12
-72.45
-64.51
-50.35
-31.30
-9.63
12.00
31.27
46.63
57.51
64.09
67.03
67.08
64.91
61.07
55.96
50.00
43.60
37.29
31.65
27.22
24.37
23.18
23.34
24.29
25.36
26.04
26.05
25.25
23.57
20.84
16.87
11.60
5.34
-1.24
-7.29
-12.15
-15.65
-18.19
-20.61
-23.78
-28.27
-34.12
-40.80
-47.53
-53.52
-58.32
-61.97
-65.04
-68.42
-73.01
-79.39
-87.38
-95.86
-102.89
-106.05
-103.18
-93.06
-75.91
-53.51
-28.67
-4.53
16.40
32.71
44.25
51.72
56.10
58.31
58.89
58.20
56.53
54.19
51.54
48.91
46.54
44.66
43.47
43.14
43.71
44.96
46.39
47.36
47.27
45.84
43.16
39.58
35.58
31.53
27.57
23.68
19.69
15.49
11.01
6.35
1.63
-2.93
-7.19
-11.13
-14.85
-18.64
-22.81
-27.61
-33.06
-38.90
-44.66
-49.83
-54.09
-57.51
-60.52
-63.83
-68.22
-74.29
-82.18
-91.33
-100.31
-106.89
-108.54
-103.19
-90.01
-69.88
-45.30
-19.61
3.99
23.32
37.61
47.33
53.65
57.84
60.84
63.15
64.88
65.87
65.97
65.15
63.62
61.79
60.10
58.91
58.33
58.20
58.24
58.09
57.52
56.38
54.62
52.21
49.12
45.36
40.98
36.14
31.06
26.06
21.42
17.31
13.79
10.69
7.76
4.64
1.07
-3.02
-7.46
-11.92
-16.01
-19.53
-22.58
-25.54
-28.95
-33.22
-38.44
-44.34
-50.39
-56.01
-60.83
-64.85
-68.37
-71.95
-76.24
-81.81
-88.98
-97.51
-106.40
-113.87
-117.59
-115.29
-105.59
-88.56
-65.85
-40.32
-15.02
7.55
26.10
40.46
51.17
58.98
64.40
67.72
69.11
68.81
67.24
64.94
62.40
60.03
58.06
56.64
55.83
55.62
55.94
56.58
57.19
57.32
56.55
54.57
51.33
47.02
42.07
37.05
32.47
28.67
25.69
23.22
20.76
17.77
13.99
9.52
4.76
0.26
-3.62
-6.82
-9.64
-12.54
-15.89
-19.85
-24.25
-28.75
-32.89
-36.36
-39.09
-41.32
-43.60
-46.66
-51.18
-57.46
-65.15
-73.09
-79.46
-82.21
-79.64
-70.95
-56.64
-38.35
-18.39
0.96
17.98
31.80
42.33
49.88
54.84
57.45
57.83
56.13
52.72
48.21
43.46
39.35
36.61
35.56
36.05
37.52
39.28
40.69
41.39
41.28
40.38
38.75
36.36
33.16
29.12
24.30
18.87
13.07
7.20
1.55
-3.54
-7.89
-11.51
-14.67
-17.87
-21.58
-26.12
-31.47
-37.37
-43.43
-49.31
-54.81
-59.89
-64.67
-69.38
-74.41
-80.16
-86.83
-94.10
-100.88
-105.32
-105.29
-99.05
-85.98
-66.95
-44.09
-20.17
2.19
21.20
36.13
47.16
54.93
60.17
63.44
65.04
65.22
64.23
62.48
60.48
58.65
57.28
56.44
56.03
55.90
55.95
56.08
56.18
56.04
55.40
54.01
51.79
48.80
45.29
41.51
37.62
33.72
29.87
26.09
22.41
18.74
14.87
10.53
5.51
-0.13
-6.09
-11.85
-16.95
-21.15
-24.63
-27.90
-31.60
-36.21
-41.82
-48.03
-54.16
-59.51
-63.77
-67.18
-70.42
-74.41
-79.93
-87.32
-96.29
-105.81
-114.16
-119.11
-118.39
-110.37
-94.63
-72.37
-46.21
-19.41
5.02
25.14
40.36
51.19
58.63
63.67
66.98
68.87
69.50
69.04
67.75
65.93
63.93
62.02
60.40
59.24
58.63
58.57
58.95
59.57
60.08
60.08
59.18
57.13
53.91
49.70
44.82
39.64
34.44
29.42
24.66
20.18
15.99
12.07
8.36
4.76
1.12
-2.68
-6.68
-10.86
-15.08
-19.17
-22.90
-26.14
-28.88
-31.33
-33.95
-37.21
-41.43
-46.59
-52.29
-57.95
-63.07
-67.47
-71.42
-75.54
-80.56
-87.00
-94.94
-103.69
-111.71
-116.88
-116.89
-110.03
-95.80
-75.24
-50.73
-25.24
-1.54
18.49
34.08
45.42
53.19
58.18
61.03
62.19
61.98
60.71
58.75
56.51
54.41
52.82
51.94
51.79
52.28
53.19
54.28
55.31
56.03
56.25
55.74
54.36
52.02
48.72
44.58
39.81
34.74
29.76
25.30
21.61
18.71
16.27
13.75
10.63
6.62
1.86
-3.17
-7.87
-11.78
-14.85
-17.39
-19.99
-23.15
-27.14
-31.79
-36.65
-41.13
-44.83
-47.70
-50.07
-52.54
-55.80
-60.37
-66.49
-73.92
-81.82
-88.76
-92.89
-92.36
-85.90
-73.30
-55.55
-34.58
-12.70
8.00
26.05
40.69
51.65
58.96
62.82
63.52
61.51
57.43
52.13
46.55
41.62
38.10
36.42
36.62
38.31
40.79
43.30
45.22
46.17
46.04
44.90
42.87
40.05
36.54
32.39
27.69
22.62
17.39
12.28
7.54
3.29
-0.53
-4.16
-7.96
-12.26
-17.27
-22.98
-29.17
-35.44
-41.38
-46.70
-51.29
-55.30
-59.10
-63.20
-68.13
-74.29
-81.76
-90.08
-98.09
-103.99
-105.64
-101.18
-89.73
-71.82
-49.39
-25.25
-2.31
17.35
32.74
43.97
51.73
56.81
59.78
60.93
60.47
58.67
55.98
52.99
50.30
48.37
47.45
47.51
48.35
49.58
50.81
51.69
51.93
51.32
49.72
47.08
43.41
38.94
34.04
29.18
24.78
21.07
17.91
14.92
11.60
7.59
2.81
-2.46
-7.74
-12.58
-16.79
-20.53
-24.25
-28.45
-33.47
-39.29
-45.55
-51.70
-57.27
-62.05
-66.18
-70.19
-74.80
-80.76
-88.49
-97.74
-107.35
-115.21
-118.71
-115.40
-103.90
-84.52
-59.29
-31.51
-4.69
18.36
36.18
48.75
56.95
61.99
64.82
66.04
65.95
64.77
62.87
60.73
58.85
57.60
57.11
57.31
57.98
58.83
59.59
60.00
59.83
58.93
57.23
54.73
51.50
47.66
43.38
38.89
34.45
30.35
26.73
23.58
20.68
17.66
14.15
9.99
5.27
0.39
-4.21
-8.17
-11.37
-14.03
-16.59
-19.53
-23.22
-27.83
-33.29
-39.33
-45.54
-51.47
-56.77
-61.32
-65.34
-69.37
-74.17
-80.47
-88.63
-98.28
-108.10
-115.91
-119.08
-115.27
-103.21
-83.33
-57.68
-29.50
-2.20
21.52
40.22
53.78
62.91
68.66
71.86
73.05
72.54
70.61
67.65
64.17
60.76
57.94
56.05
55.17
55.16
55.73
56.47
57.03
57.16
56.71
55.59
53.75
51.14
47.76
43.65
39.01
34.14
29.41
25.09
21.25
17.70
14.11
10.16
5.78
1.15
-3.27
-7.01
-9.75
-11.54
-12.73
-13.92
-15.75
-18.69
-22.97
-28.42
-34.53
-40.61
-45.98
-50.24
-53.50
-56.32
-59.59
-64.20
-70.76
-79.24
-88.78
-97.63
-103.40
-103.63
-96.54
-81.79
-60.76
-36.29
-11.70
10.16
27.69
40.68
49.80
55.95
59.70
61.25
60.65
58.13
54.29
49.98
46.14
43.50
42.41
42.89
44.65
47.18
49.88
52.20
53.66
54.01
53.21
51.38
48.75
45.57
42.01
38.17
34.11
29.87
25.58
21.38
17.43
13.76
10.21
6.52
2.34
-2.54
-8.10
-14.04
-19.91
-25.24
-29.74
-33.43
-36.55
-39.53
-42.95
-47.38
-53.31
-60.86
-69.57
-78.13
-84.47
-86.27
-81.69
-70.09
-52.44
-31.03
-8.77
11.70
28.67
41.53
50.47
56.05
58.74
58.91
56.85
53.03
48.14
42.99
38.42
35.09
33.40
33.37
34.66
36.61
38.47
39.57
39.49
38.18
35.82
32.69
28.98
24.80
20.09
14.91
9.39
3.75
-1.69
-6.73
-11.27
-15.41
-19.41
-23.63
-28.45
-34.07
-40.38
-46.99
-53.32
-58.85
-63.40
-67.25
-71.08
-75.71
-81.81
-89.52
-98.23
-106.52
-112.35
-113.53
-108.29
-95.90
-76.96
-53.41
-27.98
-3.50
17.76
34.53
46.58
54.41
58.92
61.00
61.40
60.66
59.23
57.46
55.65
54.06
52.86
52.10
51.72
51.56
51.43
51.20
50.80
50.17
49.25
47.86
45.83
42.98
39.31
35.07
30.65
26.46
22.74
19.43
16.21
12.67
8.52
3.76
-1.35
-6.43
-11.18
-15.51
-19.62
-23.82
-28.39
-33.41
-38.73
-44.08
-49.21
-54.00
-58.50
-62.94
-67.65
-73.10
-79.71
-87.67
-96.58
-105.19
-111.39
-112.67
-106.94
-93.36
-72.78
-47.59
-21.02
3.91
25.05
41.47
53.26
61.08
65.69
67.82
68.02
66.81
64.69
62.15
59.59
57.29
55.42
54.02
53.13
52.72
52.68
52.81
52.83
52.47
51.44
49.53
46.63
42.75
38.06
32.90
27.71
22.94
18.85
15.43
12.37
9.10
5.13
0.22
-5.45
-11.25
-16.33
-19.90
-21.63
-21.80
-21.29
-21.29
-22.75
-26.14
-31.17
-37.09
-42.92
-47.92
-51.77
-54.64
-57.09
-59.87
-63.82
-69.53
-77.10
-85.70
-93.52
-97.97
-96.43
-87.19
-70.16
-47.15
-21.28
3.95
25.71
42.47
54.09
61.35
65.33
67.01
67.06
66.00
64.28
62.35
60.59
59.20
58.19
57.45
56.88
56.42
56.09
55.87
55.61
55.09
54.03
52.19
49.42
45.72
41.23
36.25
31.21
26.53
22.56
19.31
16.47
13.55
10.10
5.96
1.37
-3.17
-7.19
-10.49
-13.27
-16.07
-19.47
-23.83
-29.06
-34.66
-39.94
-44.31
-47.61
-50.14
-52.66
-56.09
-61.18
-68.26
-76.88
-85.80
-93.04
-96.31
-93.62
-83.94
-67.62
-46.48
-23.23
-0.82
18.44
33.27
43.49
49.69
52.77
53.63
52.95
51.22
48.82
46.15
43.57
41.46
40.10
39.59
39.82
40.54
41.38
42.11
42.56
42.67
42.37
41.47
39.71
36.87
32.97
28.34
23.55
19.16
15.51
12.59
10.03
7.30
3.96
-0.15
-4.91
-9.89
-14.55
-18.42
-21.32
-23.46
-25.46
-28.11
-32.00
-37.27
-43.42
-49.54
-54.79
-58.75
-61.77
-64.77
-68.86
-74.85
-82.88
-92.25
-101.41
-108.23
-110.37
-105.88
-93.80
-74.61
-50.32
-24.03
0.96
22.02
37.87
48.57
55.13
58.80
60.58
61.00
60.29
58.67
56.51
54.32
52.62
51.63
51.29
51.31
51.39
51.33
51.17
50.97
50.77
50.43
49.66
48.14
45.65
42.17
37.89
33.12
28.23
23.55
19.31
15.59
12.31
9.14
5.68
1.62
-3.12
-8.24
-13.20
-17.47
-20.82
-23.54
-26.27
-29.73
-34.27
-39.68
-45.26
-50.20
-53.97
-56.67
-58.95
-61.77
-65.98
-72.10
-80.07
-89.20
-98.13
-104.92
-107.35
-103.46
-92.20
-73.94
-50.62
-25.21
-0.91
19.77
35.60
46.58
53.56
57.61
59.56
59.92
58.94
56.90
54.20
51.36
48.90
47.22
46.45
46.46
46.95
47.55
47.98
48.15
48.08
47.85
47.40
46.44
44.60
41.54
37.26
32.17
27.05
22.72
19.68
17.86
16.60
14.90
11.93
7.42
1.73
-4.24
-9.54
-13.59
-16.40
-18.58
-20.97
-24.27
-28.73
-34.12
-39.91
-45.53
-50.56
-54.87
-58.56
-61.92
-65.39
-69.51
-74.84
-81.76
-90.07
-98.61
-105.33
-107.61
-103.14
-90.83
-71.39
-47.25
-21.82
1.61
20.83
35.15
45.13
51.93
56.59
59.57
60.80
60.00
57.18
52.87
48.07
43.95
41.42
40.86
42.03
44.25
46.75
48.85
50.14
50.48
49.89
48.44
46.20
43.20
39.49
35.14
30.36
25.52
21.01
17.11
13.86
11.00
8.09
4.70
0.61
-4.15
-9.37
-14.77
-20.15
-25.34
-30.21
-34.65
-38.64
-42.33
-46.16
-50.75
-56.68
-64.27
-73.14
-82.16
-89.41
-92.61
-89.70
-79.63
-62.80
-41.11
-17.47
5.09
24.27
38.93
49.12
55.57
59.12
60.34
59.50
56.83
52.71
47.90
43.36
40.01
38.42
38.64
40.20
42.36
44.39
45.76
46.28
45.99
45.00
43.34
41.00
37.89
33.97
29.29
23.98
18.25
12.36
6.54
1.02
-4.05
-8.69
-13.05
-17.48
-22.35
-27.92
-34.17
-40.84
-47.45
-53.57
-58.97
-63.75
-68.30
-73.21
-79.04
-86.22
-94.85
-104.49
-113.90
-121.12
-123.64
-119.21
-106.55
-86.09
-59.96
-31.50
-4.19
19.26
37.55
50.75
59.78
65.77
69.61
71.78
72.50
71.96
70.51
68.64
66.94
65.80
65.39
65.55
65.95
66.26
66.33
66.13
65.73
65.12
64.07
62.24
59.27
55.09
49.96
44.41
39.05
34.30
30.16
26.25
21.99
16.88
10.85
4.26
-2.20
-7.85
-12.39
-16.09
-19.63
-23.80
-29.06
-35.36
-42.20
-48.90
-54.92
-60.09
-64.53
-68.61
-72.86
-77.89
-84.33
-92.41
-101.66
-110.54
-116.52
-116.80
-109.24
-93.30
-70.37
-43.38
-15.84
9.17
29.71
45.14
55.87
62.81
66.98
69.18
69.98
69.72
68.64
67.00
65.07
63.18
61.64
60.60
60.11
60.03
60.18
60.35
60.34
59.98
59.08
57.48
55.01
51.60
47.30
42.34
37.09
31.96
27.29
23.20
19.52
15.83
11.69
6.82
1.28
-4.59
-10.24
-15.18
-19.19
-22.40
-25.25
-28.30
-32.06
-36.77
-42.31
-48.30
-54.21
-59.57
-64.09
-67.78
-70.94
-74.14
-78.09
-83.48
-90.63
-99.13
-107.60
-113.73
-114.85
-108.72
-94.51
-73.24
-47.63
-21.25
2.56
21.65
35.41
44.54
50.30
53.91
56.08
57.05
56.82
55.47
53.27
50.68
48.26
46.46
45.64
45.97
47.49
50.09
53.45
57.07
60.24
62.24
62.51
60.87
57.55
53.12
48.28
43.58
39.31
35.47
31.86
28.19
24.19
19.68
14.62
9.12
3.44
-2.10
-7.24
-11.86
-16.08
-20.18
-24.42
-28.91
-33.59
-38.24
-42.59
-46.55
-50.22
-53.96
-58.36
-64.00
-71.20
-79.66
-88.19
-94.84
-97.32
-93.76
-83.39
-66.90
-46.20
-23.78
-1.91
17.84
34.61
47.97
57.61
63.17
64.52
62.03
56.77
50.33
44.32
39.92
37.56
36.99
37.60
38.77
40.07
41.31
42.46
43.38
43.90
43.75
42.68
40.61
37.57
33.71
29.19
24.13
18.60
12.70
6.66
0.82
-4.34
-8.43
-11.30
-13.22
-14.80
-16.83
-19.89
-24.14
-29.27
-34.63
-39.56
-43.67
-47.01
-50.00
-53.28
-57.49
-63.15
-70.40
-78.85
-87.31
-93.85
-96.08
-91.88
-80.16
-61.48
-38.01
-12.98
10.29
29.32
42.99
51.51
55.95
57.70
57.91
57.38
56.50
55.42
54.22
52.98
51.82
50.87
50.23
49.92
49.91
50.15
50.56
51.04
51.37
51.21
50.18
47.94
44.36
39.60
34.12
28.49
23.25
18.73
14.94
11.60
8.31
4.65
0.41
-4.31
-9.17
-13.66
-17.36
-20.17
-22.42
-24.72
-27.77
-31.95
-37.13
-42.75
-47.99
-52.22
-55.31
-57.69
-60.22
-63.86
-69.33
-76.72
-85.34
-93.59
-99.24
-99.91
-93.83
-80.48
-60.91
-37.51
-13.37
8.65
26.61
39.77
48.40
53.36
55.66
56.16
55.54
54.25
52.55
50.62
48.53
46.37
44.29
42.49
41.22
40.63
40.77
41.49
42.51
43.43
43.82
43.35
41.78
39.14
35.59
31.41
26.94
22.47
18.28
14.55
11.33
8.50
5.81
2.91
-0.47
-4.36
-8.51
-12.47
-15.83
-18.44
-20.52
-22.58
-25.20
-28.73
-33.16
-38.07
-42.86
-46.90
-49.86
-51.86
-53.45
-55.48
-58.85
-64.19
-71.56
-80.16
-88.41
-94.08
-94.98
-89.48
-77.16
-59.02
-37.24
-14.60
6.24
23.45
36.23
44.78
49.91
52.59
53.60
53.45
52.40
50.60
48.31
45.88
43.71
42.20
41.54
41.68
42.35
43.14
43.71
43.83
43.49
42.74
41.63
40.09
37.96
35.14
31.64
27.67
23.60
19.76
16.33
13.23
10.24
7.14
3.84
0.40
-3.04
-6.40
-9.73
-13.23
-17.09
-21.37
-25.93
-30.42
-34.40
-37.58
-39.96
-41.96
-44.33
-47.89
-53.23
-60.41
-68.73
-76.77
-82.57
-84.20
-80.19
-70.10
-54.67
-35.67
-15.45
3.66
19.95
32.55
41.41
47.01
49.99
50.90
50.16
48.09
45.12
41.78
38.64
36.18
34.66
34.07
34.18
34.71
35.44
36.23
37.04
37.74
38.08
37.69
36.18
33.36
29.39
24.74
20.08
16.01
12.75
10.07
7.40
4.18
0.12
-4.60
-9.49
-13.98
-17.74
-20.84
-23.71
-26.84
-30.57
-34.93
-39.65
-44.28
-48.45
-52.01
-55.13
-58.26
-62.02
-67.01
-73.66
-81.93
-91.07
-99.59
-105.30
-105.89
-99.61
-86.00
-66.23
-42.85
-19.05
2.33
19.51
32.04
40.50
45.97
49.53
51.91
53.53
54.57
55.08
55.09
54.67
53.87
52.83
51.69
50.64
49.89
49.57
49.74
50.26
50.81
50.97
50.32
48.61
45.84
42.21
38.06
33.68
29.29
25.03
21.00
17.28
13.91
10.82
7.80
4.57
0.90
-3.23
-7.61
-11.86
-15.64
-18.79
-21.53
-24.31
-27.66
-31.90
-37.00
-42.61
-48.18
-53.24
-57.58
-61.31
-64.80
-68.61
-73.28
-79.25
-86.66
-95.13
-103.52
-109.94
-112.03
-107.70
-95.88
-77.09
-53.43
-27.97
-3.87
16.52
32.09
42.97
50.08
54.52
57.21
58.69
59.21
58.90
57.90
56.45
54.86
53.44
52.38
51.77
51.56
51.60
51.79
52.02
52.24
52.30
52.00
51.01
49.02
45.83
41.53
36.48
31.31
26.62
22.85
20.04
17.88
15.86
13.44
10.34
6.55
2.36
-1.79
-5.47
-8.42
-10.70
-12.67
-14.88
-17.89
-21.99
-27.00
-32.31
-37.16
-40.97
-43.69
-45.81
-48.23
-51.85
-57.24
-64.43
-72.81
-81.08
-87.41
-89.73
-86.21
-75.92
-59.30
-38.20
-15.40
6.20
24.46
38.40
48.15
54.45
58.11
59.65
59.36
57.46
54.32
50.55
46.86
43.91
42.14
41.64
42.24
43.57
45.19
46.72
47.86
48.38
48.09
46.84
44.57
41.34
37.35
32.98
28.63
24.57
20.87
17.33
13.60
9.39
4.57
-0.70
-6.08
-11.22
-15.86
-20.00
-23.90
-27.96
-32.56
-37.87
-43.76
-49.78
-55.41
-60.23
-64.21
-67.67
-71.30
-75.89
-81.93
-89.44
-97.57
-104.69
-108.54
-106.84
-98.01
-81.85
-59.77
-34.51
-9.32
12.98
30.72
43.53
52.05
57.33
60.33
61.66
61.68
60.63
58.84
56.81
55.01
53.87
53.52
53.86
54.58
55.37
55.95
56.21
56.16
55.77
54.97
53.57
51.35
48.17
44.06
39.25
34.11
29.03
24.33
20.11
16.29
12.62
8.83
4.80
0.57
-3.65
-7.58
-11.00
-13.92
-16.53
-19.24
-22.49
-26.62
-31.67
-37.41
-43.36
-49.01
-53.97
-58.18
-61.92
-65.74
-70.31
-76.24
-83.78
-92.59
-101.48
-108.46
-111.04
-106.98
-95.15
-75.99
-51.68
-25.38
-0.38
20.85
37.13
48.54
55.90
60.27
62.60
63.52
63.43
62.55
61.06
59.13
57.04
55.08
53.55
52.64
52.34
52.44
52.66
52.73
52.47
51.80
50.63
48.87
46.37
43.00
38.78
33.87
28.61
23.45
18.82
15.02
12.04
9.63
7.27
4.42
0.74
-3.80
-8.81
-13.72
-17.96
-21.24
-23.71
-25.87
-28.37
-31.75
-36.18
-41.42
-46.88
-51.86
-55.83
-58.66
-60.65
-62.56
-65.30
-69.75
-76.31
-84.70
-93.64
-101.03
-104.31
-101.25
-90.72
-73.18
-50.68
-26.16
-2.65
17.61
33.57
45.28
53.41
58.75
61.85
63.05
62.62
60.93
58.54
56.09
54.04
52.69
52.01
51.86
52.13
52.75
53.72
54.96
56.21
57.02
56.82
55.21
52.04
47.56
42.34
37.02
32.15
27.96
24.35
20.97
17.41
13.41
9.00
4.47
0.21
-3.48
-6.61
-9.48
-12.54
-16.20
-20.58
-25.47
-30.44
-35.07
-39.12
-42.66
-46.04
-49.79
-54.46
-60.47
-67.86
-76.03
-83.62
-88.55
-88.58
-82.02
-68.44
-49.05
-26.41
-3.64
16.54
32.48
43.76
50.88
54.68
55.93
55.14
52.75
49.22
45.20
41.37
38.35
36.52
35.92
36.37
37.56
39.15
40.83
42.33
43.37
43.67
42.98
41.13
38.10
34.08
29.43
24.60
19.99
15.82
12.09
8.57
4.94
0.94
-3.49
-8.18
-12.80
-17.02
-20.65
-23.78
-26.73
-29.94
-33.78
-38.36
-43.47
-48.63
-53.34
-57.28
-60.52
-63.60
-67.37
-72.64
-79.80
-88.41
-97.05
-103.51
-105.34
-100.62
-88.58
-70.00
-46.98
-22.42
0.78
20.44
35.45
45.77
52.09
55.45
56.78
56.77
55.86
54.30
52.32
50.21
48.30
46.93
46.27
46.33
46.90
47.70
48.47
49.08
49.46
49.55
49.17
48.04
45.90
42.60
38.30
33.40
28.46
23.95
20.09
16.80
13.71
10.40
6.60
2.25
-2.44
-7.09
-11.31
-14.85
-17.73
-20.25
-22.91
-26.18
-30.36
-35.42
-41.02
-46.65
-51.81
-56.23
-59.91
-63.16
-66.53
-70.67
-76.16
-83.21
-91.36
-99.25
-104.70
-105.19
-98.73
-84.63
-63.97
-39.36
-14.14
8.63
27.02
40.45
49.40
54.87
57.85
59.02
58.82
57.57
55.55
53.14
50.70
48.62
47.14
46.40
46.36
46.83
47.60
48.42
49.10
49.50
49.44
48.65
46.82
43.76
39.50
34.38
29.02
24.08
20.03
17.01
14.75
12.71
10.33
7.22
3.31
-1.17
-5.73
-9.90
-13.32
-15.99
-18.16
-20.32
-22.97
-26.40
-30.61
-35.30
-39.98
-44.23
-47.79
-50.75
-53.42
-56.35
-60.13
-65.26
-71.89
-79.54
-86.92
-92.02
-92.57
-86.72
-73.79
-54.67
-31.67
-7.86
13.82
31.33
43.91
51.91
56.32
58.25
58.52
57.58
55.65
52.88
49.64
46.45
43.91
42.53
42.50
43.64
45.44
47.27
48.61
49.15
48.86
47.81
46.08
43.65
40.47
36.60
32.26
27.84
23.72
20.09
16.89
13.80
10.48
6.71
2.52
-1.87
-6.23
-10.43
-14.55
-18.75
-23.14
-27.72
-32.27
-36.53
-40.34
-43.81
-47.34
-51.57
-57.14
-64.36
-73.00
-82.00
-89.55
-93.46
-91.74
-83.29
-68.34
-48.52
-26.36
-4.62
14.50
29.73
40.77
47.90
51.65
52.54
51.10
47.97
43.96
39.98
36.84
35.04
34.71
35.63
37.35
39.39
41.35
42.92
43.91
44.12
43.42
41.76
39.17
35.79
31.85
27.62
23.34
19.10
14.89
10.61
6.17
1.58
-3.06
-7.57
-11.83
-15.83
-19.72
-23.80
-28.31
-33.41
-39.02
-44.83
-50.44
-55.43
-59.62
-63.06
-66.17
-69.63
-74.21
-80.47
-88.39
-97.04
-104.50
-108.25
-105.88
-95.92
-78.56
-55.65
-30.20
-5.45
16.10
33.13
45.56
54.08
59.61
62.95
64.60
64.90
64.14
62.63
60.67
58.57
56.59
54.94
53.79
53.25
53.33
53.93
54.78
55.54
55.81
55.22
53.50
50.54
46.45
41.56
36.36
31.37
26.95
23.19
19.91
16.72
13.18
8.98
4.07
-1.32
-6.72
-11.60
-15.54
-18.45
-20.65
-22.81
-25.65
-29.69
-34.96
-40.98
-47.06
-52.53
-57.09
-60.93
-64.58
-68.77
-74.15
-81.09
-89.45
-98.40
-106.32
-111.00
-110.14
-102.11
-86.57
-64.88
-39.73
-14.41
8.14
26.14
39.13
47.72
53.00
55.98
57.30
57.32
56.29
54.56
52.62
50.99
50.01
49.78
50.16
50.89
51.77
52.70
53.68
54.65
55.45
55.75
55.17
53.40
50.33
46.12
41.14
35.88
30.82
26.36
22.65
19.66
17.07
14.46
11.40
7.71
3.51
-0.75
-4.55
-7.58
-9.95
-12.22
-15.14
-19.29
-24.75
-31.01
-37.21
-42.49
-46.38
-48.93
-50.70
-52.51
-55.19
-59.41
-65.41
-72.81
-80.49
-86.58
-88.86
-85.37
-75.14
-58.65
-37.79
-15.28
6.13
24.40
38.56
48.57
54.95
58.42
59.61
59.01
57.06
54.21
50.96
47.81
45.21
43.51
42.90
43.38
44.72
46.51
48.22
49.34
49.50
48.56
46.57
43.75
40.32
36.48
32.35
28.02
23.56
19.04
14.52
10.01
5.52
1.07
-3.24
-7.31
-11.06
-14.53
-17.91
-21.51
-25.57
-30.16
-35.11
-40.06
-44.58
-48.47
-51.85
-55.23
-59.33
-64.82
-71.92
-80.02
-87.61
-92.54
-92.58
-86.18
-73.04
-54.28
-32.20
-9.57
11.06
27.97
40.45
48.70
53.46
55.68
56.17
55.54
54.22
52.47
50.55
48.72
47.22
46.21
45.73
45.66
45.84
46.07
46.25
46.23
45.90
45.06
43.47
41.01
37.73
33.88
29.81
25.85
22.20
18.92
15.92
13.01
10.02
6.75
3.06
-1.06
-5.51
-10.01
-14.26
-18.04
-21.38
-24.54
-27.91
-31.81
-36.34
-41.28
-46.24
-50.80
-54.74
-58.15
-61.43
-65.23
-70.24
-76.89
-85.05
-93.79
-101.31
-105.25
-103.36
-94.26
-78.06
-56.46
-32.32
-8.78
11.67
27.75
39.39
47.35
52.64
56.10
58.18
59.08
58.89
57.77
55.96
53.77
51.54
49.57
48.08
47.21
47.04
47.54
48.60
49.96
51.24
51.97
51.66
49.96
46.78
42.34
37.13
31.69
26.56
22.11
18.51
15.74
13.60
11.77
9.83
7.35
4.05
-0.11
-4.89
-9.86
-14.58
-18.82
-22.69
-26.61
-31.09
-36.44
-42.62
-49.18
-55.48
-60.95
-65.44
-69.27
-73.22
-78.13
-84.59
-92.60
-101.35
-109.25
-114.24
-114.23
-107.75
-94.44
-75.25
-52.32
-28.41
-6.15
12.58
26.95
37.11
43.81
47.91
50.06
50.65
49.95
48.27
46.08
43.98
42.52
42.02
42.48
43.61
45.07
46.54
47.91
49.12
50.13
50.77
50.73
49.63
47.25
43.65
39.22
34.59
30.41
27.10
24.74
23.03
21.42
19.35
16.44
12.60
8.08
3.32
-1.12
-4.77
-7.40
-9.17
-10.58
-12.34
-15.12
-19.21
-24.45
-30.21
-35.72
-40.36
-44.01
-47.02
-50.11
-54.12
-59.58
-66.57
-74.40
-81.64
-86.34
-86.46
-80.55
-68.31
-50.83
-30.34
-9.55
9.18
24.37
35.64
43.38
48.30
51.01
51.85
50.97
48.57
45.02
40.98
37.18
34.32
32.81
32.64
33.47
34.74
35.88
36.56
36.69
36.31
35.53
34.28
32.41
29.69
26.03
21.57
16.62
11.58
6.75
2.30
-1.76
-5.51
-9.01
-12.35
-15.66
-19.08
-22.83
-27.04
-31.76
-36.84
-42.04
-47.08
-51.81
-56.33
-60.94
-66.10
-72.26
-79.60
-87.74
-95.55
-101.24
-102.69
-98.18
-86.96
-69.70
-48.26
-25.22
-3.06
16.40
32.26
44.35
52.95
58.43
61.13
61.41
59.77
56.89
53.54
50.45
48.21
47.13
47.24
48.25
49.69
51.00
51.71
51.56
50.56
48.91
46.81
44.38
41.57
38.29
34.50
30.31
26.02
21.88
17.96
14.06
9.85
5.05
-0.33
-5.90
-11.13
-15.57
-19.16
-22.27
-25.56
-29.63
-34.75
-40.69
-46.88
-52.70
-57.72
-61.97
-65.87
-70.06
-75.25
-81.93
-90.18
-99.42
-108.24
-114.44
-115.56
-109.53
-95.52
-74.45
-48.85
-22.12
2.52
22.91
38.35
49.39
57.11
62.54
66.21
68.26
68.72
67.72
65.70
63.25
60.98
59.32
58.43
58.23
58.53
59.15
59.91
60.71
61.38
61.71
61.43
60.25
57.98
54.57
50.14
45.01
39.56
34.18
29.15
24.61
20.49
16.58
12.60
8.31
3.65
-1.21
-5.99
-10.36
-14.20
-17.59
-20.89
-24.56
-28.97
-34.28
-40.33
-46.74
-53.03
-58.79
-63.81
-68.18
-72.24
-76.61
-82.00
-89.01
-97.78
-107.62
-116.88
-123.14
-123.79
-116.89
-101.91
-80.06
-54.01
-27.08
-2.26
18.49
34.49
46.10
54.15
59.52
62.78
64.28
64.28
63.14
61.33
59.40
57.85
56.95
56.79
57.24
58.08
59.06
59.97
60.65
60.98
60.84
60.06
58.45
55.82
52.17
47.68
42.79
38.01
33.77
30.21
27.16
24.21
20.91
16.99
12.44
7.54
2.72
-1.51
-4.82
-7.20
-9.05
-11.04
-13.89
-18.04
-23.45
-29.57
-35.57
-40.70
-44.63
-47.56
-50.22
-53.57
-58.50
-65.49
-74.35
-83.98
-92.55
-97.70
-97.23
-89.74
-75.19
-55.00
-31.68
-8.12
13.23
30.89
44.39
54.01
60.27
63.62
64.29
62.56
58.92
54.18
49.39
45.51
43.25
42.82
43.98
46.18
48.75
51.09
52.80
53.64
53.53
52.48
50.54
47.78
44.30
40.20
35.58
30.58
25.32
19.91
14.44
8.96
3.53
-1.83
-7.07
-12.13
-16.99
-21.67
-26.28
-30.99
-35.95
-41.21
-46.62
-51.92
-56.86
-61.42
-65.92
-70.97
-77.30
-85.35
-94.89
-104.75
-112.87
-116.72
-114.00
-103.46
-85.43
-61.83
-35.66
-10.14
12.22
30.06
43.25
52.47
58.66
62.63
64.87
65.67
65.25
63.91
62.03
60.05
58.33
57.14
56.56
56.55
56.93
57.43
57.80
57.78
57.21
56.00
54.13
51.59
48.41
44.66
40.49
36.09
31.73
27.63
23.85
20.24
16.47
12.17
7.17
1.64
-3.92
-8.87
-12.79
-15.68
-18.08
-20.80
-24.58
-29.78
-36.19
-43.15
-49.86
-55.72
-60.57
-64.68
-68.65
-73.17
-78.87
-86.12
-94.72
-103.82
-111.77
-116.36
-115.37
-107.23
-91.74
-70.18
-45.07
-19.35
4.38
24.47
40.31
52.12
60.43
65.80
68.67
69.39
68.33
66.00
62.98
59.90
57.38
55.87
55.58
56.40
57.92
59.51
60.53
60.55
59.45
57.39
54.73
51.79
48.73
45.47
41.79
37.51
32.62
27.32
21.98
16.98
12.55
8.71
5.28
2.03
-1.29
-4.79
-8.50
-12.40
-16.44
-20.56
-24.69
-28.72
-32.60
-36.30
-39.87
-43.40
-46.92
-50.45
-53.97
-57.50
-61.18
-65.28
-70.17
-76.24
-83.75
-92.54
-101.79
-109.91
-114.74
-114.05
-106.32
-91.28
-70.24
-45.66
-20.46
2.83
22.62
38.35
50.21
58.65
64.03
66.54
66.34
63.78
59.55
54.63
50.07
46.72
45.00
44.81
45.69
46.98
48.12
48.78
48.88
48.49
47.65
46.32
44.34
41.61
38.17
34.25
30.20
26.33
22.76
19.39
