1533572601.00
64.000000
-0.00
-0.00
-0.00
-0.00
-0.00
-0.00
-0.00
-0.00
-0.00
-0.00
0.00
0.01
0.01
-0.00
-0.03
-0.05
-0.05
0.00
0.13
0.36
0.66
1.01
1.37
1.72
2.06
2.40
2.79
3.24
3.80
4.42
5.06
5.66
6.20
6.68
7.15
7.68
8.31
9.14
10.09
11.04
11.88
12.56
13.14
13.76
14.65
15.96
17.91
20.32
22.90
25.38
27.58
29.57
31.68
34.32
37.81
42.54
48.15
54.10
59.83
64.97
69.58
74.14
79.34
85.71
93.76
103.00
112.62
121.73
129.77
136.75
143.30
150.75
157.77
166.64
177.95
191.79
206.97
220.57
228.25
225.36
208.53
176.87
132.76
80.05
23.07
-34.94
-92.44
-149.16
-205.23
-260.37
-313.74
-363.87
-409.83
-450.91
-486.50
-515.74
-537.23
-549.22
-549.96
-538.37
-514.21
-478.67
-433.88
-382.45
-327.02
-269.84
-212.63
-156.66
-102.96
-52.38
-5.90
35.60
71.46
101.39
125.52
144.34
158.57
168.91
176.02
180.32
182.12
181.63
179.10
174.85
169.25
162.70
155.56
148.11
140.53
132.91
125.29
117.66
110.02
102.40
94.85
87.45
80.33
73.59
67.28
61.39
55.82
50.42
45.09
39.77
34.59
29.72
25.39
21.74
18.68
15.99
13.33
10.40
7.11
3.66
0.45
-2.09
-3.68
-4.43
-4.75
-5.27
-6.51
-8.65
-11.41
-14.17
-16.24
-17.18
-17.02
-16.24
-15.55
-15.67
-17.16
-20.20
-24.50
-29.17
-32.68
-33.07
-28.52
-18.14
-2.72
15.20
31.96
44.14
49.85
49.31
44.51
38.14
32.36
28.11
25.20
22.94
20.78
18.68
16.89
15.62
14.79
14.00
12.75
10.84
8.44
5.92
3.82
2.45
1.81
1.59
1.31
0.60
-0.65
-2.06
-3.00
-2.74
-0.89
2.39
6.42
10.25
13.04
14.42
14.53
13.91
13.11
12.47
11.97
11.44
10.71
9.85
9.12
8.83
9.20
10.19
11.49
12.68
13.49
13.80
13.67
13.20
12.41
11.12
9.10
6.29
2.69
-1.36
-5.40
-8.98
-11.91
-14.22
-16.11
-17.79
-19.34
-20.75
-21.88
-22.48
-22.33
-21.26
-19.18
-16.20
-12.61
-8.83
-5.39
-2.67
-0.91
-0.12
-0.11
-0.59
-1.32
-2.09
-2.84
-3.58
-4.30
-4.98
-5.50
-5.70
-5.51
-4.94
-4.13
-3.31
-2.70
-2.40
-2.44
-2.75
-3.24
-3.85
-4.56
-5.37
-6.27
-7.22
-8.15
-8.98
-9.63
-10.09
-10.36
-10.53
-10.68
-10.94
-11.38
-12.06
-12.94
-13.86
-14.51
-14.48
-13.35
-10.80
-6.70
-1.08
5.63
12.76
19.62
25.59
30.28
33.54
35.42
36.15
35.99
35.22
34.02
32.49
30.63
28.41
25.84
23.04
20.19
17.51
15.13
13.10
11.42
10.02
8.84
7.86
7.06
6.45
6.00
5.65
5.27
4.74
3.90
2.65
0.98
-1.00
-3.09
-5.13
-7.01
-8.76
-10.55
-12.58
-14.98
-17.77
-20.81
-23.77
-26.19
-27.52
-27.28
-25.18
-21.31
-16.11
-10.30
-4.61
0.41
4.52
7.73
10.20
12.06
13.43
14.33
14.78
14.83
14.52
13.95
13.24
12.55
12.04
11.83
11.90
12.13
12.31
12.32
12.09
11.69
11.17
10.54
9.74
8.68
7.29
5.62
3.76
1.88
0.08
-1.54
-3.01
-4.36
-5.70
-7.13
-8.75
-10.63
-12.81
-15.28
-17.96
-20.62
-22.93
-24.45
-24.74
-23.55
-20.92
-17.19
-12.92
-8.70
-4.97
-1.93
0.43
2.25
3.68
4.77
5.50
5.78
5.56
4.86
3.85
2.77
1.93
1.58
1.83
2.60
3.71
4.89
5.95
6.76
7.24
7.33
6.98
6.13
4.82
3.12
1.24
-0.62
-2.29
-3.73
-5.02
-6.33
-7.78
-9.39
-11.10
-12.80
-14.42
-15.95
-17.36
-18.55
-19.30
-19.30
-18.24
-15.99
-12.66
-8.58
-4.21
0.02
3.80
7.00
9.55
11.46
12.74
13.46
13.72
13.73
13.69
13.77
14.03
14.37
14.62
14.64
14.34
13.77
13.03
12.23
11.41
10.59
9.74
8.83
7.81
6.60
5.15
3.43
1.51
-0.48
-2.36
-4.05
-5.54
-6.93
-8.36
-9.98
-11.84
-13.97
-16.34
-18.91
-21.51
-23.91
-25.73
-26.56
-26.08
-24.15
-20.93
-16.85
-12.44
-8.21
-4.53
-1.54
0.80
2.58
3.89
4.77
5.27
5.49
5.58
5.71
5.98
6.33
6.59
6.59
6.30
5.82
5.38
5.18
5.25
5.46
5.54
5.30
4.69
3.82
2.91
2.11
1.44
0.79
0.04
-0.88
-1.88
-2.77
-3.40
-3.71
-3.82
-4.00
-4.49
-5.40
-6.66
-8.08
-9.50
-10.87
-12.21
-13.53
-14.68
-15.28
-14.88
-13.19
-10.24
-6.48
-2.55
0.93
3.62
5.53
6.82
7.72
8.32
8.59
8.47
7.98
7.27
6.58
6.15
6.12
6.48
7.09
7.73
8.21
8.36
8.13
7.50
6.52
5.25
3.77
2.18
0.63
-0.70
-1.54
-1.68
-0.99
0.45
2.35
4.29
5.84
6.69
6.80
6.28
5.34
4.10
2.56
0.62
-1.75
-4.44
-7.22
-9.83
-12.08
-13.98
-15.56
-16.81
-17.47
-17.22
-15.77
-13.12
-9.62
-5.88
-2.55
-0.02
1.62
2.55
2.99
3.05
2.72
1.95
0.78
-0.61
-1.90
-2.85
-3.35
-3.51
-3.54
-3.60
-3.71
-3.67
-3.32
-2.54
-1.44
-0.30
0.58
1.05
1.18
1.21
1.37
1.75
2.25
2.65
2.73
2.41
1.75
0.92
0.08
-0.68
-1.33
-1.94
-2.58
-3.34
-4.29
-5.49
-6.94
-8.64
-10.61
-12.85
-15.35
-17.95
-20.36
-22.13
-22.83
-22.19
-20.27
-17.41
-14.12
-10.90
-8.13
-6.02
-4.62
-3.87
-3.66
-3.84
-4.24
-4.76
-5.37
-6.05
-6.84
-7.66
-8.38
-8.80
-8.74
-8.09
-6.81
-4.94
-2.56
0.22
3.26
6.43
9.57
12.56
15.29
17.64
19.48
20.65
21.02
20.55
19.29
17.44
15.21
12.85
10.52
8.31
6.23
4.28
2.44
0.65
-1.20
-3.21
-5.42
-7.70
-9.74
-11.11
-11.40
-10.40
-8.21
-5.19
-1.85
1.34
4.06
6.17
7.66
8.62
9.13
9.27
9.13
8.80
8.38
7.94
7.52
7.11
6.68
6.21
5.76
5.41
5.24
5.32
5.61
5.98
6.28
6.35
6.13
5.65
5.02
4.36
3.68
2.95
2.07
0.99
-0.26
-1.58
-2.86
-4.06
-5.23
-6.48
-7.90
-9.55
-11.33
-13.10
-14.63
-15.69
-16.04
-15.52
-14.03
-11.59
-8.42
-4.88
-1.44
1.47
3.59
4.90
5.57
5.88
6.02
6.08
6.05
5.86
5.52
5.14
4.88
4.86
5.02
5.23
5.30
5.15
4.81
4.45
4.28
4.37
4.65
4.91
4.91
4.49
3.62
2.37
0.90
-0.68
-2.27
-3.82
-5.28
-6.57
-7.64
-8.54
-9.42
-10.49
-11.97
-13.98
-16.43
-19.06
-21.42
-23.00
-23.33
-22.12
-19.37
-15.39
-10.70
-5.92
-1.57
1.99
4.69
6.58
7.82
8.58
8.99
9.20
9.33
9.49
9.68
9.83
9.80
9.50
9.02
8.53
8.30
8.54
9.29
10.40
11.61
12.63
13.21
13.23
12.71
11.79
10.64
9.43
8.26
7.12
5.94
4.66
3.26
1.73
0.12
-1.58
-3.36
-5.17
-6.96
-8.69
-10.37
-12.11
-14.09
-16.37
-18.74
-20.74
-21.71
-21.11
-18.75
-14.92
-10.28
-5.61
-1.56
1.53
3.64
4.95
5.72
6.19
6.50
6.71
6.82
6.82
6.72
6.58
6.49
6.52
6.74
7.11
7.59
8.05
8.43
8.69
8.82
8.81
8.59
8.08
7.26
6.14
4.82
3.46
2.14
0.92
-0.27
-1.49
-2.78
-4.11
-5.38
-6.50
-7.43
-8.28
-9.25
-10.62
-12.51
-14.86
-17.33
-19.39
-20.47
-20.18
-18.40
-15.34
-11.46
-7.29
-3.32
0.08
2.73
4.61
5.80
6.48
6.84
7.09
7.40
7.88
8.58
9.48
10.56
11.79
13.17
14.67
16.23
17.72
19.00
19.97
20.65
21.14
21.54
21.77
21.58
20.56
18.39
15.03
10.83
6.36
2.18
-1.32
-4.12
-6.36
-8.26
-9.98
-11.58
-13.12
-14.72
-16.57
-18.83
-21.50
-24.30
-26.74
-28.25
-28.34
-26.80
-23.75
-19.68
-15.25
-11.12
-7.70
-5.05
-3.02
-1.30
0.32
1.89
3.29
4.37
5.07
5.44
5.64
5.81
6.06
6.43
6.88
7.39
7.93
8.47
8.92
9.23
9.38
9.41
9.43
9.50
9.57
9.49
9.10
8.30
7.13
5.70
4.15
2.51
0.71
-1.38
-3.82
-6.53
-9.36
-12.09
-14.54
-16.50
-17.76
-18.07
-17.16
-14.91
-11.46
-7.22
-2.77
1.37
4.90
7.80
10.24
12.41
14.33
15.89
16.85
17.10
16.73
15.99
15.27
14.84
14.79
14.98
15.16
15.12
14.79
14.25
13.65
13.07
12.47
11.70
10.59
9.05
7.08
4.77
2.29
-0.21
-2.55
-4.58
-6.24
-7.54
-8.57
-9.47
-10.42
-11.62
-13.25
-15.41
-18.02
-20.79
-23.27
-24.96
-25.48
-24.77
-23.08
-20.85
-18.47
-16.18
-14.01
-11.89
-9.87
-8.09
-6.75
-5.99
-5.74
-5.79
-5.82
-5.61
-5.07
-4.30
-3.49
-2.79
-2.29
-1.93
-1.63
-1.27
-0.81
-0.27
0.25
0.60
0.62
0.21
-0.63
-1.76
-2.93
-3.89
-4.52
-4.87
-5.20
-5.84
-7.08
-9.02
-11.50
-14.12
-16.33
-17.60
-17.51
-15.96
-13.10
-9.34
-5.16
-1.02
2.76
6.02
8.71
10.83
12.39
13.41
13.97
14.16
14.15
14.07
14.02
14.02
14.04
14.02
13.96
13.90
13.85
13.84
13.84
13.73
13.41
12.83
12.00
11.02
9.99
8.96
7.90
6.73
5.40
3.91
2.33
0.79
-0.63
-1.90
-3.09
-4.27
-5.57
-7.08
-8.88
-10.98
-13.25
-15.46
-17.26
-18.30
-18.29
-17.08
-14.76
-11.53
-7.75
-3.79
-0.02
3.26
5.87
7.74
8.91
9.48
9.60
9.42
9.09
8.74
8.50
8.44
8.61
8.98
9.51
10.13
10.79
11.45
12.09
12.63
13.03
13.26
13.26
13.04
12.58
11.85
10.89
9.75
8.54
7.35
6.22
5.12
3.99
2.76
1.46
0.16
-1.01
-1.99
-2.86
-3.81
-5.06
-6.81
-9.08
-11.74
-14.49
-16.86
-18.38
-18.65
-17.45
-14.86
-11.21
-7.01
-2.86
0.76
3.51
5.31
6.27
6.66
6.76
6.82
6.94
7.08
7.16
7.11
6.97
6.82
6.72
6.69
6.65
6.56
6.42
6.34
6.42
6.71
7.15
7.58
7.82
7.74
7.30
6.57
5.66
4.72
3.89
3.22
2.63
1.97
1.05
-0.23
-1.81
-3.52
-5.12
-6.44
-7.44
-8.20
-8.87
-9.61
-10.52
-11.66
-12.96
-14.25
-15.24
-15.60
-15.03
-13.38
-10.74
-7.35
-3.62
0.01
3.15
5.51
6.99
7.67
7.83
7.81
7.88
8.15
8.55
8.93
9.17
9.27
9.28
9.27
9.23
9.09
8.80
8.41
8.13
8.11
8.43
8.85
9.07
8.73
7.75
6.30
4.78
3.56
2.82
2.48
2.30
2.00
1.40
0.46
-0.78
-2.20
-3.68
-5.09
-6.29
-7.20
-7.85
-8.39
-9.02
-9.95
-11.26
-12.85
-14.48
-15.80
-16.48
-16.25
-14.97
-12.68
-9.53
-5.80
-1.88
1.84
4.99
7.31
8.72
9.33
9.39
9.27
9.27
9.59
10.22
10.99
11.74
12.36
12.86
13.33
13.79
14.16
14.23
13.76
12.59
10.79
8.62
6.40
4.43
2.81
1.52
0.46
-0.44
-1.13
-1.51
-1.49
-1.13
-0.60
-0.17
-0.04
-0.26
-0.70
-1.13
-1.40
-1.49
-1.61
-2.02
-2.92
-4.38
-6.28
-8.41
-10.56
-12.52
-14.05
-14.90
-14.72
-13.26
-10.46
-6.58
-2.15
2.14
5.64
7.95
8.99
8.96
8.23
7.16
6.03
4.95
3.96
3.07
2.37
1.94
1.89
2.20
2.71
3.20
3.49
3.50
3.28
3.02
2.94
3.24
4.04
5.32
6.93
8.56
9.91
10.74
11.01
10.87
10.60
10.45
10.50
10.64
10.62
10.19
9.23
7.78
6.00
4.02
1.94
-0.24
-2.57
-5.01
-7.38
-9.33
-10.40
-10.17
-8.49
-5.57
-1.95
1.61
4.44
6.12
6.64
6.31
5.59
4.92
4.51
4.35
4.23
3.94
3.34
2.43
1.32
0.16
-0.92
-1.83
-2.49
-2.89
-3.04
-2.97
-2.77
-2.54
-2.35
-2.27
-2.36
-2.70
-3.42
-4.59
-6.18
-8.07
-10.01
-11.83
-13.46
-15.00
-16.63
-18.53
-20.69
-23.00
-25.27
-27.30
-28.97
-30.18
-30.79
-30.63
-29.54
-27.48
-24.61
-21.25
-17.72
-14.22
-10.78
-7.28
-3.69
-0.10
3.25
6.01
7.92
8.92
9.18
9.03
8.82
8.78
9.00
9.39
9.78
10.02
10.00
9.75
9.32
8.78
8.08
7.16
5.92
4.40
2.72
1.09
-0.38
-1.67
-2.93
-4.38
-6.11
-8.13
-10.31
-12.49
-14.62
-16.72
-18.94
-21.40
-24.13
-26.98
-29.65
-31.73
-32.84
-32.73
-31.39
-29.04
-26.02
-22.67
-19.25
-15.92
-12.75
-9.73
-6.85
-4.08
-1.38
1.23
3.70
5.89
7.65
8.87
9.53
9.79
9.85
9.97
10.32
10.93
11.68
12.43
13.01
13.37
13.66
14.05
14.76
15.80
17.01
18.06
18.67
18.63
17.97
16.84
15.40
13.80
12.07
10.25
8.39
6.57
4.89
3.33
1.74
-0.11
-2.36
-4.97
-7.64
-9.87
-11.15
-11.19
-10.00
-7.92
-5.48
-3.20
-1.43
-0.23
0.53
1.09
1.69
2.42
3.26
4.11
4.82
5.22
5.18
4.59
3.46
1.92
0.25
-1.17
-2.08
-2.47
-2.59
-2.81
-3.41
-4.39
-5.52
-6.47
-7.08
-7.56
-8.41
-10.31
-13.76
-18.85
-25.21
-32.08
-38.55
-43.93
-47.99
-50.98
-53.56
-56.49
-60.35
-65.40
-71.54
-78.45
-85.59
-92.13
-97.05
-99.25
-97.98
-93.29
-86.11
-77.87
-69.73
-61.86
-53.18
-41.96
-26.80
-7.64
13.83
34.81
52.45
65.07
72.73
76.92
79.79
83.08
87.55
92.90
98.21
102.60
105.56
107.14
107.63
107.32
106.26
104.31
101.36
97.54
93.40
89.79
87.50
86.81
87.15
87.06
84.68
78.51
68.11
54.47
39.68
26.12
15.45
8.08
3.03
-1.38
-6.74
-13.95
-22.84
-32.48
-41.46
-48.36
-52.05
-51.83
-47.56
-39.74
-29.61
-19.06
-10.37
-5.56
-5.74
-10.65
-18.71
-27.55
-34.84
-39.05
-39.76
-37.50
-33.27
-28.06
-22.62
-17.42
-12.80
-8.99
-6.08
-3.99
-2.49
-1.30
-0.26
0.62
1.26
1.54
1.39
0.82
-0.14
-1.47
-3.13
-5.02
-7.03
-8.97
-10.67
-12.02
-12.97
-13.56
-13.88
-14.08
-14.27
-14.49
-14.70
-14.79
-14.62
-14.07
-13.09
-11.70
-9.95
-7.93
-5.71
-3.36
-0.98
1.34
3.47
5.28
6.64
7.43
7.61
7.25
6.57
5.88
5.48
5.55
6.12
7.03
8.10
9.07
9.78
10.12
10.04
9.57
8.84
7.99
7.12
6.26
5.32
4.22
2.93
1.57
0.32
-0.65
-1.31
-1.80
-2.37
-3.27
-4.64
-6.40
-8.33
-10.08
-11.31
-11.69
-11.05
-9.33
-6.66
-3.32
0.29
3.74
6.65
8.78
10.07
10.67
10.81
10.74
10.64
10.55
10.40
10.12
9.69
9.18
8.72
8.46
8.45
8.64
8.90
9.09
9.07
8.82
8.37
7.77
7.06
6.27
5.33
4.22
2.95
1.56
0.16
-1.17
-2.37
-3.46
-4.49
-5.51
-6.55
-7.60
-8.73
-9.93
-11.25
-12.57
-13.68
-14.27
-13.99
-12.64
-10.23
-7.07
-3.64
-0.46
2.15
4.10
5.57
6.81
8.00
9.17
10.18
10.85
11.09
10.95
10.64
10.40
10.36
10.53
10.77
10.96
11.03
11.02
11.05
11.18
11.37
11.49
11.36
10.87
10.02
8.93
7.77
6.62
5.52
4.40
3.20
1.89
0.58
-0.62
-1.63
-2.44
-3.14
-3.90
-4.87
-6.18
-7.85
-9.78
-11.75
-13.42
-14.35
-14.24
-12.92
-10.49
-7.29
-3.79
-0.46
2.38
4.55
6.07
7.05
7.64
7.96
8.08
8.02
7.79
7.45
7.10
6.90
6.98
7.36
7.98
8.65
9.22
9.57
9.69
9.65
9.49
9.22
8.82
8.27
7.57
6.75
5.86
4.94
3.98
2.98
1.91
0.77
-0.45
-1.79
-3.22
-4.69
-6.10
-7.33
-8.35
-9.27
-10.28
-11.59
-13.24
-15.03
-16.53
-17.27
-16.88
-15.30
-12.77
-9.74
-6.65
-3.81
-1.39
0.62
2.26
3.58
4.60
5.37
5.91
6.29
6.53
6.67
6.71
6.69
6.67
6.72
6.93
7.29
7.73
8.12
8.34
8.35
8.15
7.80
7.37
6.89
6.35
5.72
4.93
3.94
2.77
1.53
0.33
-0.74
-1.72
-2.70
-3.88
-5.39
-7.23
-9.30
-11.38
-13.25
-14.67
-15.45
-15.45
-14.57
-12.77
-10.19
-7.09
-3.84
-0.85
1.57
3.25
4.22
4.65
4.73
4.67
4.57
4.45
4.30
4.12
3.95
3.90
4.01
4.26
4.53
4.66
4.55
4.18
3.64
3.10
2.65
2.32
2.01
1.59
0.96
0.06
-1.13
-2.55
-4.14
-5.83
-7.55
-9.23
-10.85
-12.41
-13.92
-15.39
-16.78
-18.06
-19.23
-20.38
-21.61
-23.02
-24.58
-26.05
-27.01
-27.00
-25.59
-22.62
-18.24
-12.90
-7.22
-1.73
3.27
7.87
12.37
17.15
22.32
27.68
32.82
37.31
40.95
43.82
46.14
48.12
49.92
51.76
54.00
57.05
61.12
65.96
70.83
74.78
77.08
77.57
76.69
75.25
73.94
73.06
72.47
71.79
70.65
68.87
66.46
63.48
59.97
55.84
50.94
45.13
38.38
30.85
22.89
14.94
7.31
0.16
-6.47
-12.48
-17.56
-21.18
-22.75
-21.90
-18.67
-13.56
-7.35
-0.88
5.20
10.42
14.58
17.56
19.41
20.36
20.81
21.33
22.43
24.42
27.19
30.29
33.04
34.83
35.31
34.42
32.37
29.44
25.96
22.21
18.39
14.63
10.86
6.86
2.22
-3.44
-10.28
-18.13
-26.52
-34.93
-43.02
-50.76
-58.29
-65.77
-73.04
-79.70
-85.26
-89.48
-92.58
-95.18
-98.05
-101.77
-106.43
-111.60
-116.49
-120.18
-121.91
-121.15
-117.68
-111.62
-103.30
-93.22
-81.93
-70.00
-57.97
-46.35
-35.64
-26.25
-18.37
-12.00
-6.89
-2.69
0.90
4.05
6.82
9.21
11.29
13.23
15.21
17.42
19.87
22.51
25.15
27.70
30.10
32.37
34.61
36.90
39.31
41.88
44.64
47.59
50.72
53.95
57.16
60.15
62.69
64.62
65.86
66.43
66.45
66.04
65.29
64.29
63.07
61.70
60.28
58.86
57.42
55.87
54.04
51.68
48.56
44.47
39.34
33.28
26.58
19.61
12.82
6.49
0.74
-4.53
-9.52
-14.44
-19.41
-24.40
-29.29
-33.85
-37.82
-41.00
-43.27
-44.62
-45.25
-45.43
-45.47
-45.61
-45.95
-46.40
-46.81
-46.97
-46.75
-46.11
-45.10
-43.79
-42.28
-40.69
-39.17
-37.86
-36.91
-36.39
-36.27
-36.44
-36.75
-37.01
-37.10
-36.92
-36.42
-35.59
-34.47
-33.12
-31.58
-29.87
-27.96
-25.81
-23.42
-20.88
-18.32
-16.02
-14.23
-13.23
-13.20
-14.23
-16.19
-18.73
-21.33
-23.43
-24.68
-25.10
-24.99
-24.79
-24.77
-24.95
-25.16
-25.18
-25.03
-24.94
-25.29
-26.34
-28.04
-30.10
-32.15
-33.93
-35.39
-36.64
-37.73
-38.53
-38.76
-38.15
-36.67
-34.50
-31.93
-29.05
-25.60
-20.96
-14.40
-5.50
5.69
18.60
32.32
45.79
58.03
68.14
75.23
78.38
76.88
70.59
60.32
47.76
35.11
24.24
16.17
10.73
6.96
3.67
0.12
-3.75
-7.37
-9.95
-10.80
-9.62
-6.63
-2.55
1.45
4.06
4.16
1.34
-3.92
-10.57
-17.67
-25.12
-33.73
-44.89
-59.56
-77.53
-97.25
-116.38
-132.66
-144.69
-152.04
-154.98
-153.91
-149.03
-140.42
-128.42
-113.80
-97.79
-81.63
-66.15
-51.66
-38.11
-25.47
-14.08
-4.56
2.45
6.76
8.79
9.58
10.45
12.56
16.59
22.65
30.33
38.95
47.77
56.10
63.41
69.33
73.60
76.14
77.02
76.49
74.88
72.49
69.45
65.64
60.87
55.02
48.29
41.20
34.47
28.71
24.17
20.67
17.73
14.83
11.67
8.32
5.09
2.45
0.73
0.06
0.34
1.31
2.69
4.23
5.78
7.29
8.81
10.42
12.24
14.33
16.61
18.93
21.04
22.71
23.79
24.32
24.44
24.37
24.26
24.14
23.96
23.61
22.99
22.07
20.85
19.36
17.58
15.46
12.92
9.91
6.45
2.60
-1.53
-5.84
-10.24
-14.54
-18.45
-21.58
-23.50
-23.98
-23.10
-21.19
-18.77
-16.22
-13.71
-11.19
-8.53
-5.68
-2.67
0.37
3.44
6.70
10.46
14.93
20.09
25.58
30.82
35.31
38.74
41.11
42.56
43.12
42.63
40.81
37.50
32.92
27.73
22.89
19.19
16.95
15.86
15.24
14.51
13.44
12.16
10.80
9.27
7.19
4.22
0.49
-3.17
-5.45
-5.25
-2.44
1.90
5.81
7.26
5.11
-0.48
-8.18
-16.18
-22.77
-26.78
-27.55
-24.81
-18.57
-9.12
2.84
16.18
29.56
41.77
52.13
60.56
67.44
73.12
77.68
80.80
81.83
80.09
75.20
67.26
56.92
45.26
33.65
23.39
15.46
10.33
7.93
7.70
8.84
10.55
12.17
13.30
13.81
13.78
13.48
13.24
13.38
14.11
15.45
17.19
18.94
20.19
20.49
19.56
17.31
13.93
9.83
5.62
1.99
-0.48
-1.42
-0.94
0.48
2.07
3.08
3.02
1.84
-0.16
-2.53
-4.95
-7.30
-9.70
-12.28
-15.07
-17.96
-20.74
-23.28
-25.62
-27.96
-30.58
-33.73
-37.46
-41.67
-46.17
-50.76
-55.31
-59.79
-64.14
-68.34
-72.26
-75.81
-78.86
-81.30
-83.01
-83.76
-83.34
-81.60
-78.55
-74.43
-69.69
-64.90
-60.60
-57.16
-54.74
-53.30
-52.62
-52.46
-52.54
-52.54
-52.14
-50.93
-48.56
-44.89
-40.13
-34.89
-29.94
-25.98
-23.22
-21.28
-19.30
-16.22
-11.22
-3.96
5.30
15.74
26.07
34.88
40.87
43.17
41.62
36.84
30.22
23.53
18.37
15.71
15.50
16.81
18.33
18.96
18.21
16.22
13.35
9.88
5.78
0.85
-4.91
-11.11
-17.14
-22.49
-27.09
-31.34
-35.70
-40.24
-44.40
-47.17
-47.61
-45.33
-40.76
-34.89
-28.87
-23.52
-19.05
-15.14
-11.13
-6.37
-0.53
6.34
13.86
21.51
28.86
35.71
42.08
48.11
54.08
60.23
66.80
73.96
81.62
89.37
96.42
101.70
104.20
103.30
99.01
91.97
83.19
73.67
64.14
54.94
46.15
37.77
29.85
22.52
16.02
10.64
6.65
4.23
3.42
4.02
5.62
7.70
9.75
11.41
12.43
12.68
12.05
10.48
8.12
5.32
2.60
0.45
-0.92
-1.67
-2.27
-3.21
-4.77
-6.86
-9.19
-11.45
-13.52
-15.51
-17.64
-20.01
-22.51
-24.94
-27.17
-29.30
-31.70
-34.73
-38.50
-42.63
-46.40
-49.15
-50.71
-51.61
-52.79
-55.01
-58.35
-61.99
-64.64
-65.11
-62.84
-58.07
-51.51
-43.89
-35.68
-27.10
-18.30
-9.55
-1.22
6.43
13.40
19.90
26.23
32.52
38.67
44.45
49.62
54.06
57.76
60.68
62.73
63.78
63.67
62.30
59.61
55.52
49.95
42.86
34.36
24.81
14.81
5.17
-3.23
-9.65
-13.63
-15.14
-14.69
-13.19
-11.80
-11.60
-13.26
-16.85
-21.83
-27.28
-32.16
-35.64
-37.32
-37.24
-35.71
-33.17
-29.99
-26.46
-22.81
-19.22
-15.84
-12.72
-9.74
-6.70
-3.34
0.44
4.52
8.60
12.29
15.26
17.38
18.74
19.55
20.11
20.68
21.36
22.14
22.84
23.27
23.33
23.02
22.49
21.96
21.55
21.30
21.12
20.83
20.33
19.56
18.57
17.36
15.90
14.05
11.73
9.00
6.20
3.95
2.87
3.36
5.44
8.69
12.43
15.95
18.72
20.43
21.02
20.69
19.83
19.02
18.84
19.74
21.75
24.44
26.91
28.13
27.24
23.93
18.60
12.32
6.62
3.00
2.41
4.93
9.69
15.22
20.07
23.30
24.68
24.57
23.45
21.63
19.08
15.64
11.23
6.08
0.65
-4.55
-9.14
-13.04
-16.44
-19.64
-22.95
-26.40
-29.68
-32.13
-32.86
-31.17
-26.82
-20.27
-12.59
-5.08
1.23
5.87
9.03
11.26
13.13
14.98
16.79
18.37
19.47
19.90
19.54
18.31
16.22
13.35
9.95
6.41
3.19
0.74
-0.60
-0.58
0.98
4.15
8.73
14.19
19.68
24.17
26.81
27.18
25.41
22.00
17.66
12.98
8.34
3.96
-0.07
-3.67
-6.85
-9.73
-12.59
-15.77
-19.42
-23.43
-27.30
-30.36
-31.97
-31.80
-29.90
-26.67
-22.66
-18.36
-14.02
-9.62
-4.97
0.17
5.92
12.25
18.93
25.64
31.96
37.41
41.56
44.07
44.83
44.03
42.10
39.66
37.17
34.81
32.30
29.08
24.51
18.27
10.54
2.01
-6.40
-13.80
-19.69
-23.97
-26.79
-28.38
-28.78
-27.93
-25.76
-22.44
-18.41
-14.30
-10.68
-7.89
-5.93
-4.62
-3.75
-3.22
-2.99
-3.02
-3.08
-2.80
-1.72
0.44
3.66
7.65
11.88
15.88
19.37
22.29
24.81
27.11
29.35
31.52
33.49
35.06
36.08
36.45
36.27
35.71
35.03
34.46
34.12
34.04
34.10
34.14
33.94
33.31
32.14
30.45
28.36
26.08
23.79
21.54
19.23
16.74
13.93
10.80
7.44
3.96
0.42
-3.18
-6.82
-10.44
-13.90
-17.09
-20.04
-23.00
-26.29
-30.15
-34.52
-38.98
-42.81
-45.23
-45.63
-43.74
-39.70
-34.06
-27.64
-21.45
-16.40
-13.15
-11.94
-12.47
-14.09
-15.92
-17.19
-17.27
-15.88
-13.06
-9.18
-4.94
-1.20
1.22
1.82
0.59
-1.90
-4.83
-7.33
-8.86
-9.27
-8.71
-7.46
-5.77
-3.79
-1.62
0.62
2.74
4.54
5.82
6.50
6.67
6.59
6.52
6.69
7.10
7.51
7.52
6.72
4.89
2.17
-1.04
-4.15
-6.58
-7.98
-8.23
-7.37
-5.67
-3.46
-1.10
1.02
2.57
3.26
2.84
1.04
-2.42
-7.68
-14.58
-22.57
-30.66
-37.64
-42.37
-44.02
-42.19
-36.98
-28.86
-18.60
-7.15
4.44
15.15
24.04
30.40
33.70
33.72
30.61
24.97
17.83
10.44
3.90
-1.17
-4.78
-7.41
-9.67
-11.97
-14.36
-16.66
-18.65
-20.27
-21.63
-22.86
-24.00
-24.97
-25.55
-25.52
-24.75
-23.23
-21.12
-18.62
-16.03
-13.60
-11.48
-9.73
-8.31
-7.13
-6.12
-5.30
-4.71
-4.45
-4.51
-4.85
-5.33
-5.78
-6.06
-6.05
-5.72
-5.14
-4.41
-3.73
-3.24
-3.04
-3.15
-3.54
-4.19
-5.10
-6.30
-7.79
-9.49
-11.31
-13.13
-14.91
-16.67
-18.51
-20.48
-22.58
-24.76
-26.95
-29.16
-31.46
-33.89
-36.44
-38.85
-40.74
-41.67
-41.31
-39.58
-36.69
-32.98
-28.86
-24.54
-20.07
-15.38
-10.44
-5.45
-0.90
2.57
4.35
4.12
1.98
-1.67
-6.12
-10.57
-14.11
-15.79
-14.70
-10.26
-2.50
7.75
19.03
29.61
38.17
44.19
48.00
50.57
52.97
55.92
59.65
63.90
68.14
71.72
74.14
75.05
74.34
72.00
68.06
62.51
55.36
46.73
37.01
26.82
16.91
7.93
0.23
-6.15
-11.31
-15.34
-18.17
-19.76
-20.26
-20.16
-20.24
-21.20
-23.28
-26.08
-28.63
-29.83
-29.01
-26.25
-22.41
-18.75
-16.43
-16.05
-17.49
-20.02
-22.67
-24.53
-24.98
-23.78
-21.07
-17.27
-13.01
-8.94
-5.55
-3.03
-1.28
-0.05
0.85
1.43
1.60
1.40
1.08
1.07
1.79
3.35
5.46
7.57
9.14
9.96
10.19
10.33
11.00
12.76
15.90
20.35
25.51
30.24
32.94
31.94
25.99
14.77
-0.80
-18.77
-36.52
-51.45
-61.48
-65.31
-62.58
-53.75
-40.01
-23.14
-5.32
11.29
24.88
34.33
39.43
40.80
39.58
36.99
34.01
31.09
28.22
25.08
21.26
16.59
11.16
5.34
-0.36
-5.49
-9.80
-13.26
-15.97
-18.09
-19.76
-21.10
-22.24
-23.41
-24.81
-26.60
-28.72
-30.86
-32.63
-33.67
-33.91
-33.54
-32.92
-32.31
-31.68
-30.67
-28.80
-25.74
-21.61
-16.96
-12.62
-9.32
-7.43
-6.81
-6.98
-7.34
-7.48
-7.27
-6.91
-6.72
-7.06
-8.14
-9.92
-12.01
-13.59
-13.60
-10.91
-4.77
4.77
16.53
28.28
37.28
41.18
38.91
31.15
20.21
9.27
1.17
-2.41
-1.51
2.34
6.95
10.37
11.60
10.82
9.06
7.62
7.53
9.20
12.48
16.86
21.80
26.83
31.62
35.77
38.83
40.30
39.81
37.33
33.27
28.36
23.43
19.06
15.36
11.97
8.32
4.01
-0.82
-5.47
-8.93
-10.46
-9.94
-8.00
-5.74
-4.29
-4.37
-6.18
-9.49
-13.87
-18.82
-23.79
-28.19
-31.35
-32.72
-32.02
-29.40
-25.43
-20.96
-16.81
-13.46
-10.99
-9.01
-7.01
-4.57
-1.67
1.38
4.06
6.03
7.38
8.51
9.86
11.59
13.42
14.69
14.82
13.52
10.92
7.50
3.81
0.37
-2.47
-4.47
-5.47
-5.48
-4.65
-3.35
-1.95
-0.73
0.31
1.31
2.43
3.65
4.72
5.27
5.00
3.82
1.89
-0.38
-2.53
-4.17
-5.09
-5.33
-5.05
-4.46
-3.72
-2.89
-1.95
-0.97
-0.15
0.20
-0.26
-1.67
-3.90
-6.54
-9.08
-11.10
-12.41
-13.09
-13.34
-13.46
-13.79
-14.75
-16.80
-20.23
-24.83
-29.73
-33.57
-34.92
-32.98
-27.90
-20.74
-12.91
-5.59
0.74
6.33
11.73
17.43
23.44
29.30
34.14
36.89
36.69
33.22
26.99
19.41
12.32
7.37
5.35
6.03
8.45
11.52
14.54
17.31
19.83
21.97
23.29
23.23
21.50
18.37
14.57
11.04
8.46
7.01
6.38
5.99
5.36
4.26
2.82
1.31
-0.11
-1.49
-3.17
-5.44
-8.36
-11.54
-14.27
-15.86
-16.01
-15.04
-13.74
-12.98
-13.30
-14.60
-16.36
-17.83
-18.54
-18.44
-17.82
-17.06
-16.36
-15.61
-14.57
-13.11
-11.40
-9.89
-9.04
-9.09
-9.75
-10.41
-10.36
-9.17
-6.97
-4.39
-2.23
-1.16
-1.42
-2.78
-4.73
-6.61
-7.89
-8.21
-7.50
-5.98
-4.11
-2.46
-1.59
-1.78
-2.94
-4.69
-6.47
-7.80
-8.33
-7.92
-6.56
-4.41
-1.81
0.77
2.82
3.95
4.04
3.29
2.08
0.86
-0.00
-0.18
0.62
2.65
6.03
10.67
16.18
22.03
27.68
32.82
37.44
41.78
46.08
50.40
54.40
57.48
58.93
58.28
55.53
51.16
45.94
40.59
35.55
30.90
26.55
22.44
18.71
15.64
13.57
12.66
12.88
14.02
15.66
17.31
18.41
18.45
17.05
13.98
9.29
3.23
-3.74
-10.96
-17.73
-23.45
-27.71
-30.43
-31.87
-32.43
-32.55
-32.44
-32.14
-31.47
-30.23
-28.25
-25.48
-22.03
-18.12
-14.10
-10.36
-7.27
-5.02
-3.65
-3.01
-2.90
-3.22
-4.02
-5.54
-7.97
-11.37
-15.47
-19.67
-23.32
-25.97
-27.66
-28.87
-30.29
-32.42
-35.18
-37.96
-39.84
-40.09
-38.62
-36.07
-33.52
-31.99
-31.98
-33.30
-35.14
-36.51
-36.57
-34.82
-31.19
-25.81
-18.90
-10.76
-1.78
7.40
15.99
23.22
28.56
31.95
33.76
34.57
34.93
35.08
34.94
34.27
32.87
30.79
28.33
25.86
23.70
21.93
20.50
19.24
18.08
17.00
15.99
15.03
14.02
12.83
11.43
9.93
8.60
7.76
7.62
8.19
9.18
10.11
10.46
9.90
8.44
6.42
4.38
2.76
1.75
1.22
0.86
0.30
-0.76
-2.53
-5.10
-8.48
-12.38
-16.31
-19.68
-22.00
-23.31
-24.21
-25.67
-28.49
-32.76
-37.72
-42.06
-44.49
-44.28
-41.50
-36.78
-30.95
-24.75
-18.65
-12.95
-7.90
-3.68
-0.34
2.25
4.41
6.44
8.48
10.32
11.49
11.53
10.17
7.52
4.09
0.58
-2.35
-4.33
-5.48
-6.30
-7.50
-9.66
-13.00
-17.24
-21.79
-25.88
-28.97
-30.83
-31.58
-31.58
-31.24
-30.88
-30.63
-30.41
-29.99
-29.03
-27.27
-24.53
-20.77
-16.11
-10.73
-4.85
1.29
7.37
13.06
18.04
22.15
25.49
28.35
31.01
33.37
34.80
34.43
31.70
27.01
21.85
18.30
18.18
22.10
29.18
37.38
44.50
48.98
50.12
48.00
42.99
35.80
27.64
20.45
16.61
17.96
24.89
35.77
47.44
56.34
59.82
57.05
49.03
38.08
26.95
18.06
12.92
11.87
14.07
17.74
20.82
21.66
19.57
14.84
8.45
1.49
-5.24
-11.31
-16.48
-20.65
-23.85
-26.38
-28.83
-31.92
-36.10
-41.24
-46.58
-51.03
-53.62
-53.93
-52.20
-49.20
-45.88
-42.98
-40.91
-39.65
-38.90
-38.16
-36.96
-35.03
-32.42
-29.43
-26.38
-23.32
-19.90
-15.49
-9.53
-1.95
6.73
15.57
23.63
30.40
35.89
40.47
44.51
48.11
51.09
53.13
54.01
53.80
52.77
51.31
49.74
48.20
46.60
44.77
42.46
39.51
35.82
31.37
26.25
20.70
15.12
10.10
6.26
4.06
3.64
4.69
6.54
8.38
9.58
9.89
9.52
8.93
8.60
8.81
9.54
10.52
11.40
11.80
11.33
9.50
5.82
0.03
-7.60
-15.99
-23.45
-28.10
-28.71
-25.19
-18.74
-11.37
-5.12
-1.35
-0.41
-1.87
-4.97
-9.02
-13.49
-17.95
-21.84
-24.59
-25.82
-25.60
-24.61
-23.85
-24.29
-26.43
-30.14
-34.70
-39.02
-41.93
-42.41
-40.06
-35.32
-29.52
-24.50
-21.73
-21.56
-22.84
-23.34
-20.83
-14.17
-3.89
8.14
19.62
28.91
35.55
40.09
43.55
46.64
49.56
52.01
53.60
54.11
53.63
52.39
50.54
48.12
45.06
41.54
38.05
35.32
33.84
33.40
32.77
29.92
22.79
10.06
-8.23
-30.70
-55.03
-78.55
-98.68
-113.20
-120.46
-119.76
-111.75
-98.38
-82.44
-66.62
-52.67
-41.00
-31.06
-22.02
-13.36
-4.99
2.98
10.58
18.14
26.04
34.46
43.26
52.07
60.42
67.79
73.44
76.45
75.86
71.13
62.55
51.19
38.52
25.83
13.86
2.77
-7.48
-16.79
-24.77
-30.94
-35.05
-37.31
-38.32
-38.86
-39.57
-40.72
-42.27
-43.91
-45.28
-46.06
-46.06
-45.28
-43.91
-42.28
-40.74
-39.64
-39.24
-39.79
-41.49
-44.42
-48.40
-52.94
-57.32
-60.79
-62.84
-63.36
-62.52
-60.56
-57.58
-53.44
-47.97
-41.23
-33.68
-26.10
-19.22
-13.44
-8.61
-4.16
0.54
5.89
11.83
17.96
23.72
28.63
32.37
34.79
35.82
35.54
34.20
32.33
30.59
29.66
30.00
31.78
34.92
39.20
44.31
49.82
55.00
58.82
60.11
58.06
52.60
44.68
35.92
28.11
22.43
19.17
17.66
16.78
15.46
13.06
9.51
5.13
0.38
-4.35
-8.74
-12.54
-15.47
-17.20
-17.50
-16.44
-14.40
-12.10
-10.27
-9.28
-8.89
-8.27
-6.50
-3.03
1.85
7.06
11.16
13.01
12.28
9.62
6.24
3.41
1.90
1.78
2.62
3.83
4.97
5.87
6.55
7.08
7.54
8.11
9.17
11.28
15.03
20.79
28.43
37.24
45.98
53.24
57.88
59.27
57.67
53.91
49.09
43.91
38.42
31.99
23.88
13.97
3.31
-5.93
-11.17
-10.41
-3.03
9.88
25.64
40.36
49.48
48.59
34.56
6.72
-32.22
-76.22
-117.12
-146.76
-159.36
-153.19
-130.92
-98.47
-63.05
-31.02
-6.50
8.95
15.96
16.47
12.93
7.64
2.50
-1.05
-2.15
-0.58
3.15
7.96
12.54
15.81
17.28
17.15
16.07
14.89
14.28
14.56
15.66
17.26
18.90
20.24
21.19
21.84
22.47
23.30
24.44
25.80
27.06
27.80
27.66
26.56
24.85
23.23
22.54
23.30
25.44
28.28
30.73
31.88
31.33
29.37
26.77
24.35
22.64
21.79
21.62
21.88
22.38
23.00
23.58
23.88
23.57
22.35
20.11
17.04
13.55
10.20
7.46
5.52
4.27
3.28
1.98
-0.13
-3.37
-7.75
-13.08
-19.05
-25.29
-31.41
-36.99
-41.55
-44.62
-45.81
-44.93
-42.09
-37.72
-32.48
-27.12
-22.29
-18.37
-15.43
-13.37
-11.97
-11.09
-10.72
-10.93
-11.75
-13.10
-14.76
-16.37
-17.61
-18.27
-18.35
-17.93
-17.23
-16.43
-15.60
-14.76
-13.85
-12.85
-11.79
-10.78
-9.93
-9.31
-8.84
-8.38
-7.82
-7.13
-6.38
-5.65
-4.86
-3.81
-2.21
0.13
3.18
6.65
10.10
13.16
15.64
17.58
19.10
20.29
21.17
21.62
21.55
20.97
19.95
18.66
17.24
15.76
14.27
12.77
11.30
9.91
8.62
7.38
6.07
4.55
2.72
0.56
-1.82
-4.29
-6.70
-8.96
-11.09
-13.20
-15.44
-17.95
-20.74
-23.68
-26.41
-28.49
-29.47
-29.07
-27.26
-24.26
-20.47
-16.31
-12.19
-8.39
-5.06
-2.24
0.11
2.08
3.75
5.12
6.12
6.68
6.76
6.43
5.81
5.03
4.11
2.97
1.49
-0.38
-2.54
-4.77
-6.85
-8.65
-10.18
-11.55
-12.92
-14.37
-15.90
-17.47
-18.98
-20.37
-21.58
-22.64
-23.62
-24.64
-25.79
-27.03
-28.07
-28.39
-27.32
-24.26
-18.95
-11.57
-2.73
6.78
16.24
25.22
33.64
41.58
49.06
55.84
61.51
65.66
68.14
69.08
68.73
67.19
64.22
59.48
52.91
44.97
36.68
29.16
23.16
18.75
15.40
12.39
9.29
6.10
3.12
0.66
-1.27
-2.86
-4.41
-6.02
-7.56
-8.72
-9.27
-9.24
-9.03
-9.21
-10.29
-12.38
-14.98
-17.20
-17.98
-16.64
-13.06
-7.77
-1.64
4.47
9.95
14.51
18.04
20.48
21.72
21.61
20.09
17.21
13.19
8.38
3.26
-1.69
-6.02
-9.44
-11.84
-13.32
-14.17
-14.69
-15.10
-15.48
-15.75
-15.76
-15.44
-14.88
-14.31
-13.99
-14.07
-14.46
-14.88
-14.96
-14.42
-13.27
-11.75
-10.21
-8.95
-8.08
-7.59
-7.34
-7.21
-7.10
-6.91
-6.53
-5.89
-4.99
-3.88
-2.67
-1.34
0.19
2.06
4.35
6.96
9.67
12.20
14.36
16.05
17.20
17.70
17.45
16.37
14.62
12.55
10.57
9.03
7.99
7.32
6.79
6.24
5.64
5.05
4.55
4.12
3.63
2.92
1.95
0.76
-0.49
-1.58
-2.42
-3.02
-3.55
-4.22
-5.17
-6.39
-7.73
-8.99
-10.08
-11.06
-12.07
-13.19
-14.25
-14.86
-14.55
-12.95
-10.11
-6.34
-2.18
1.89
5.60
8.89
11.87
14.60
17.18
19.63
21.95
24.07
25.89
27.25
28.03
28.28
28.21
28.20
28.61
29.66
31.28
33.10
34.59
35.20
34.56
32.59
29.53
25.89
22.36
19.57
17.88
17.19
16.76
15.26
11.02
2.60
-10.66
-28.17
-47.93
-67.06
-82.54
-92.20
-95.28
-92.52
-85.72
-76.98
-68.03
-59.84
-52.71
-46.47
-40.88
-35.76
-30.95
-26.18
-21.04
-15.07
-8.02
-0.10
7.93
15.08
20.49
23.83
25.38
25.78
25.67
25.34
24.71
23.48
21.52
18.95
16.09
13.29
10.71
8.30
6.04
4.15
3.09
3.50
5.80
10.05
15.78
22.17
28.20
32.97
35.83
36.46
34.91
31.48
26.71
21.14
15.26
9.39
3.77
-1.42
-5.92
-9.34
-11.23
-11.20
-9.11
-5.22
-0.18
5.13
9.93
13.89
17.20
20.31
23.59
26.97
29.90
31.62
31.67
30.10
27.52
24.69
22.08
19.68
17.06
13.72
9.42
4.26
-1.43
-7.33
-13.19
-18.85
-24.10
-28.57
-31.79
-33.28
-32.73
-30.17
-25.97
-20.81
-15.54
-10.94
-7.60
-5.68
-4.87
-4.40
-3.40
-1.21
2.28
6.51
10.56
13.53
14.96
14.97
14.09
12.94
11.92
11.14
10.54
10.09
9.93
10.37
11.75
14.30
18.03
22.73
27.91
32.86
36.65
38.30
37.05
32.68
25.66
17.08
8.23
0.15
-6.77
-12.79
-18.47
-24.19
-29.79
-34.44
-37.00
-36.53
-32.81
-26.60
-19.40
-13.00
-8.77
-7.11
-7.32
-7.79
-6.75
-3.02
3.45
11.50
19.05
23.92
24.54
20.46
12.65
3.11
-5.73
-11.91
-14.85
-15.72
-17.11
-21.96
-32.15
-47.22
-64.21
-78.48
-85.47
-82.45
-69.52
-49.52
-26.97
-6.77
7.16
12.58
9.22
-1.30
-15.95
-31.03
-43.08
-49.78
-50.44
-46.00
-38.50
-30.19
-22.83
-17.29
-13.57
-11.08
-9.06
-6.81
-3.88
-0.19
3.99
8.15
11.63
13.85
14.52
13.75
12.05
10.17
8.89
8.65
9.47
10.89
12.20
12.73
12.08
10.25
7.54
4.42
1.37
-1.12
-2.56
-2.52
-0.70
2.89
7.79
13.20
18.13
21.74
23.69
24.10
23.51
22.62
22.11
22.59
24.41
27.55
31.42
34.81
36.08
33.82
27.48
17.79
6.60
-3.79
-11.53
-15.86
-17.29
-17.06
-16.56
-16.69
-17.74
-19.57
-21.89
-24.37
-26.60
-27.96
-27.64
-24.95
-19.72
-12.59
-4.98
1.40
5.11
5.55
3.05
-1.42
-6.69
-11.89
-16.48
-20.18
-22.81
-24.09
-23.75
-21.62
-17.83
-12.81
-7.19
-1.66
3.17
6.85
9.12
9.95
9.58
8.39
6.83
5.21
3.63
1.99
0.17
-1.73
-3.30
-3.93
-3.19
-1.24
0.92
1.61
-0.89
-7.48
-17.62
-29.27
-39.54
-45.57
-45.60
-39.40
-28.15
-13.86
1.25
15.00
25.47
31.10
31.16
26.22
18.29
10.23
4.53
2.27
2.63
3.71
3.72
2.24
0.33
-0.20
1.84
6.20
11.30
15.15
16.62
16.08
15.14
15.67
18.74
24.05
29.98
34.29
35.04
31.39
23.87
14.28
5.04
-1.59
-4.22
-2.62
2.32
8.98
15.50
20.08
21.23
17.83
9.30
-4.18
-21.40
-40.05
-56.98
-68.84
-73.10
-68.70
-56.52
-39.09
-19.83
-2.11
11.68
20.63
25.31
27.19
27.99
28.94
30.41
32.01
32.99
32.72
31.07
28.30
24.91
21.31
17.64
13.83
9.85
5.84
2.14
-0.85
-2.96
-4.29
-5.32
-6.61
-8.62
-11.46
-14.99
-18.83
-22.60
-26.11
-29.34
-32.41
-35.47
-38.50
-41.40
-43.97
-46.10
-47.85
-49.35
-50.75
-52.07
-53.17
-53.79
-53.72
-52.86
-51.21
-48.80
-45.68
-41.97
-37.87
-33.76
-30.08
-27.19
-25.11
-23.54
-21.87
-19.45
-15.82
-10.92
-5.12
0.97
6.62
11.32
14.92
17.61
19.87
22.13
24.70
27.59
30.63
33.58
36.24
38.50
40.19
41.12
40.99
39.57
36.83
33.04
28.74
24.51
20.77
17.62
14.89
12.24
9.40
6.22
2.75
-0.80
-4.11
-6.84
-8.63
-9.20
-8.44
-6.46
-3.63
-0.47
2.57
5.24
7.58
9.81
12.10
14.45
16.69
18.55
19.85
20.66
21.23
21.89
22.84
24.13
25.64
27.21
28.77
30.40
32.23
34.26
36.23
37.64
37.80
36.19
32.58
27.17
20.45
13.08
5.75
-0.94
-6.41
-10.21
-11.95
-11.39
-8.35
-2.87
4.79
13.97
23.56
32.10
38.09
40.39
38.48
32.40
22.63
9.89
-4.89
-20.34
-34.53
-45.16
-50.16
-48.50
-40.71
-28.74
-15.38
-3.24
5.85
11.16
12.83
11.46
7.78
2.32
-4.46
-11.97
-19.23
-24.85
-27.36
-25.94
-20.93
-13.99
-7.49
-3.54
-3.03
-5.19
-8.12
-9.83
-9.16
-6.25
-2.14
1.96
5.28
7.78
9.84
11.85
13.95
16.00
17.75
19.00
19.74
19.98
19.72
18.74
16.73
13.44
8.96
3.83
-0.98
-4.39
-5.64
-4.48
-1.31
3.01
7.53
11.48
14.51
16.56
17.79
18.32
18.22
17.54
16.39
14.99
13.57
12.29
11.12
9.91
8.48
6.77
4.93
3.21
1.86
0.99
0.56
0.37
0.22
-0.06
-0.55
-1.27
-2.22
-3.39
-4.71
-6.12
-7.55
-8.93
-10.27
-11.60
-12.92
-14.28
-15.68
-17.17
-18.83
-20.74
-22.91
-25.21
-27.38
-29.00
-29.66
-29.06
-27.11
-23.96
-19.97
-15.61
-11.31
-7.38
-3.98
-1.17
1.09
2.81
4.04
4.85
5.33
5.61
5.79
5.92
6.00
5.99
5.90
5.72
5.52
5.37
5.31
5.36
5.46
5.54
5.50
5.25
4.68
3.77
2.53
1.09
-0.41
-1.81
-3.05
-4.13
-5.18
-6.39
-7.94
-9.94
-12.30
-14.75
-16.88
-18.25
-18.48
-17.41
-15.12
-11.86
-8.02
-3.98
-0.11
3.31
6.09
8.12
9.42
10.09
10.33
10.36
10.30
10.19
10.00
9.65
9.15
8.56
7.98
7.55
7.32
7.26
7.29
7.29
7.17
6.87
6.35
5.59
4.54
3.16
1.46
-0.45
-2.40
-4.21
-5.73
-6.98
-8.09
-9.29
-10.84
-12.92
-15.57
-18.68
-21.92
-24.75
-26.55
-26.77
-25.11
-21.70
-17.08
-11.97
-7.05
-2.75
0.81
3.71
6.09
8.06
9.65
10.87
11.73
12.27
12.56
12.65
12.60
12.45
12.22
11.92
11.56
11.13
10.62
10.05
9.45
8.88
8.36
7.87
7.36
6.69
5.75
4.43
2.73
0.78
-1.23
-3.06
-4.54
-5.67
-6.60
-7.61
-9.01
-11.02
-13.67
-16.84
-20.17
-23.19
-25.35
-26.18
-25.36
-22.84
-18.85
-13.85
-8.42
-3.16
1.46
5.13
7.80
9.58
10.78
11.71
12.65
13.72
14.85
15.84
16.48
16.65
16.36
15.75
15.03
14.37
13.88
13.60
13.48
13.41
13.26
12.89
12.23
11.27
10.07
8.74
7.38
6.05
4.73
3.36
1.89
0.28
-1.47
-3.36
-5.37
-7.46
-9.59
-11.72
-13.81
-15.91
-18.09
-20.32
-22.46
-24.16
-24.94
-24.41
-22.36
-18.93
-14.54
-9.77
-5.14
-1.00
2.52
5.41
7.68
9.37
10.48
11.07
11.26
11.21
11.11
11.07
11.15
11.33
11.54
11.73
11.87
12.00
12.16
12.38
12.61
12.75
12.64
12.15
11.20
9.87
8.31
6.73
5.30
4.09
3.06
2.06
0.93
-0.48
-2.15
-3.98
-5.76
-7.36
-8.72
-10.00
-11.41
-13.19
-15.46
-18.18
-21.12
-23.90
-26.07
-27.18
-26.86
-24.97
-21.65
-17.28
-12.43
-7.63
-3.27
0.48
3.58
6.04
7.86
9.02
9.58
9.68
9.55
9.39
9.32
9.34
9.35
9.24
8.96
8.52
8.01
7.49
7.00
6.49
5.88
5.08
4.05
2.83
1.57
0.49
-0.21
-0.34
0.16
1.25
2.84
4.80
7.06
9.49
11.96
14.14
15.55
15.66
14.05
10.62
5.56
-0.68
-7.64
-14.93
-22.22
-29.14
-35.13
-39.50
-41.67
-41.36
-38.80
-34.67
-29.84
-25.02
-20.62
-16.61
-12.81
-9.05
-5.41
-2.20
0.18
1.51
1.86
1.70
1.68
2.35
3.97
6.34
9.00
11.38
13.12
14.18
14.71
14.97
15.11
15.14
14.95
14.47
13.72
12.85
12.06
11.46
11.03
10.57
9.86
8.73
7.17
5.29
3.32
1.50
-0.03
-1.29
-2.41
-3.67
-5.31
-7.48
-10.10
-12.89
-15.37
-16.98
-17.24
-15.89
-13.00
-8.94
-4.30
0.29
4.34
7.59
9.97
11.59
12.57
13.02
13.10
12.95
12.79
12.77
12.92
13.17
13.33
13.31
13.10
12.82
12.61
12.56
12.64
12.71
12.63
12.28
11.66
10.83
9.92
9.00
8.11
7.21
6.18
4.95
3.47
1.82
0.13
-1.45
-2.85
-4.12
-5.41
-6.89
-8.66
-10.82
-13.36
-16.20
-19.16
-21.87
-23.85
-24.58
-23.66
-21.02
-16.99
-12.18
-7.30
-2.89
0.78
3.74
6.14
8.14
9.79
11.02
11.79
12.10
12.03
11.70
11.21
10.62
9.98
9.32
8.75
8.38
8.32
8.56
9.02
9.49
9.76
9.68
9.16
8.25
7.02
5.54
3.86
2.07
0.29
-1.35
-2.73
-3.83
-4.79
-5.87
-7.40
-9.54
-12.28
-15.37
-18.35
-20.68
-21.91
-21.73
-20.09
-17.20
-13.44
-9.28
-5.14
-1.28
2.16
5.15
7.64
9.62
11.06
12.00
12.52
12.76
12.81
12.68
12.34
11.74
10.91
10.03
9.34
9.08
9.35
10.01
10.78
11.30
11.31
10.73
9.73
8.59
7.55
6.64
5.73
4.55
2.93
0.90
-1.33
-3.40
-5.01
-6.11
-6.86
-7.60
-8.73
-10.52
-13.00
-15.99
-19.07
-21.69
-23.27
-23.28
-21.44
-17.73
-12.51
-6.53
-0.71
4.00
7.00
8.22
8.11
7.43
6.91
6.95
7.54
8.37
9.09
9.50
9.63
9.66
9.71
9.81
9.91
9.92
9.87
9.83
9.89
10.10
10.38
10.57
10.49
9.98
9.01
7.68
6.15
4.64
3.28
2.06
0.86
-0.49
-2.10
-3.95
-5.87
-7.64
-9.09
-10.22
-11.21
-12.36
-14.01
-16.39
-19.50
-23.05
-26.43
-28.88
-29.65
-28.29
-24.80
-19.66
-13.68
-7.72
-2.48
1.70
4.80
7.00
8.57
9.74
10.70
11.54
12.33
13.05
13.64
13.99
14.03
13.76
13.26
12.70
12.25
12.03
12.10
12.40
12.83
13.23
13.43
13.31
12.77
11.83
10.57
9.15
7.72
6.38
5.10
3.77
2.23
0.36
-1.81
-4.11
-6.25
-8.01
-9.27
-10.15
-10.94
-11.98
-13.57
-15.86
-18.76
-21.99
-25.06
-27.39
-28.41
-27.75
-25.38
-21.61
-17.03
-12.29
-7.92
-4.23
-1.30
0.94
2.60
3.84
4.78
5.54
6.20
6.80
7.34
7.84
8.35
8.99
9.87
11.05
12.49
14.06
15.67
17.22
18.66
19.90
20.75
21.00
20.44
19.06
17.01
14.59
12.13
9.83
7.74
5.77
3.75
1.57
-0.79
-3.29
-5.85
-8.47
-11.19
-14.08
-17.11
-20.05
-22.47
-23.82
-23.64
-21.75
-18.39
-14.14
-9.72
-5.71
-2.38
0.27
2.42
4.23
5.78
7.05
8.01
8.70
9.21
9.62
9.96
10.15
10.09
9.75
9.20
8.61
8.15
7.92
7.90
7.97
7.93
7.62
6.97
5.98
4.74
3.35
1.86
0.28
-1.37
-3.10
-4.85
-6.59
-8.29
-10.04
-11.97
-14.20
-16.66
-19.08
-21.02
-21.99
-21.68
-19.98
-17.09
-13.38
-9.26
-5.09
-1.17
2.33
5.26
7.51
9.00
9.75
9.87
9.62
9.27
9.09
9.21
9.64
10.28
10.96
11.51
11.82
11.83
11.54
11.01
10.32
9.52
8.67
7.77
6.84
5.88
4.86
3.75
2.53
1.13
-0.41
-2.04
-3.66
-5.15
-6.46
-7.64
-8.82
-10.19
-11.89
-14.00
-16.40
-18.85
-20.91
-22.09
-22.00
-20.43
-17.49
-13.55
-9.18
-4.92
-1.17
1.93
4.44
6.49
8.20
9.61
10.67
11.36
11.69
11.74
11.61
11.38
11.09
10.75
10.38
10.06
9.87
9.88
10.07
10.31
10.42
10.25
9.70
8.78
7.58
6.27
4.99
3.83
2.79
1.81
0.79
-0.34
-1.60
-2.95
-4.35
-5.74
-7.13
-8.50
-9.90
-11.40
-13.12
-15.16
-17.57
-20.17
-22.57
-24.22
-24.53
-23.14
-20.05
-15.66
-10.64
-5.69
-1.32
2.21
4.86
6.78
8.12
9.04
9.67
10.09
10.37
10.56
10.70
10.80
10.84
10.80
10.67
10.49
10.29
10.16
10.15
10.26
10.41
10.46
10.21
9.54
8.40
6.89
5.22
3.64
2.35
1.43
0.81
0.29
-0.40
-1.44
-2.90
-4.65
-6.50
-8.20
-9.63
-10.78
-11.80
-12.91
-14.36
-16.39
-19.06
-22.19
-25.23
-27.39
-27.89
-26.21
-22.43
-17.17
-11.38
-5.95
-1.36
2.44
5.93
9.67
14.02
19.03
24.33
29.28
33.11
35.12
34.81
32.16
27.64
22.28
17.36
14.10
13.33
15.26
19.51
25.28
31.65
37.80
43.15
47.45
50.63
52.62
53.17
51.78
47.87
41.01
31.28
19.42
6.79
-5.01
-14.56
-21.01
-24.19
-24.47
-22.46
-18.75
-13.90
-8.63
-4.06
-1.63
-2.81
-8.43
-18.15
-30.19
-41.81
-50.16
-53.29
-50.84
-43.89
-34.51
-24.78
-16.23
-9.62
-5.14
-2.77
-2.46
-4.07
-7.17
-10.98
-14.49
-16.77
-17.32
-16.20
-13.90
-11.13
-8.46
-6.25
-4.55
-3.26
-2.26
-1.46
-0.84
-0.42
-0.21
-0.24
-0.46
-0.85
-1.43
-2.22
-3.24
-4.47
-5.75
-6.88
-7.67
-8.05
-8.16
-8.31
-8.83
-9.93
-11.65
-13.84
-16.22
-18.45
-20.19
-21.08
-20.83
-19.28
-16.46
-12.67
-8.39
-4.16
-0.42
2.56
4.74
6.20
7.09
7.55
7.66
7.52
7.21
6.83
6.45
6.12
5.85
5.63
5.43
5.28
5.24
5.37
5.71
6.24
6.85
7.41
7.70
7.54
6.76
5.30
3.27
0.91
-1.45
-3.50
-5.07
-6.19
-7.08
-8.06
-9.43
-11.31
-13.57
-15.92
-17.93
-19.22
-19.48
-18.60
-16.62
-13.75
-10.28
-6.58
-2.97
0.33
3.15
5.43
7.14
8.33
9.03
9.26
9.09
8.60
7.95
7.31
6.86
6.70
6.82
7.15
7.55
7.88
8.03
7.93
7.57
6.97
6.24
5.48
4.76
4.07
3.31
2.35
1.11
-0.36
-1.92
-3.41
-4.77
-6.11
-7.62
-9.46
-11.68
-14.14
-16.64
-18.93
-20.73
-21.80
-21.89
-20.79
-18.42
-14.92
-10.62
-6.01
-1.63
2.09
4.92
6.83
8.00
8.70
9.24
9.80
10.40
10.90
11.10
10.86
10.22
9.40
8.70
8.37
8.47
8.84
9.23
9.41
9.30
8.99
8.62
8.25
7.83
7.18
6.13
4.62
2.76
0.77
-1.08
-2.67
-3.97
-5.12
-6.21
-7.35
-8.56
-9.88
-11.42
-13.33
-15.73
-18.52
-21.33
-23.58
-24.58
-23.88
-21.37
-17.39
-12.59
-7.72
-3.37
0.13
2.79
4.84
6.52
8.04
9.46
10.72
11.73
12.46
12.94
13.30
13.64
13.97
14.19
14.15
13.75
13.06
12.30
11.77
11.67
12.01
12.54
12.96
12.95
12.37
11.29
9.86
8.26
6.62
5.01
3.44
1.96
0.55
-0.85
-2.31
-3.96
-5.84
-7.88
-9.95
-11.91
-13.71
-15.43
-17.27
-19.46
-22.15
-25.28
-28.47
-31.13
-32.53
-32.09
-29.64
-25.50
-20.42
-15.35
-11.03
-7.75
-5.40
-3.56
-1.87
-0.28
0.98
1.51
1.08
-0.21
-1.89
-3.35
-4.15
-4.19
-3.86
-3.75
-4.41
-5.95
-7.98
-9.64
-10.00
-8.49
-5.11
-0.43
4.77
9.83
14.43
18.41
21.58
23.68
24.87
26.14
29.46
36.91
49.43
65.73
82.29
94.78
100.05
97.58
89.59
79.65
70.67
63.53
57.15
49.77
40.52
30.25
20.93
14.38
10.98
9.49
8.08
5.72
2.94
1.60
3.25
7.54
11.70
11.58
3.96
-11.36
-31.16
-50.27
-64.21
-71.24
-72.63
-71.26
-69.46
-67.70
-64.77
-59.30
-51.22
-42.29
-35.18
-31.92
-32.49
-34.67
-35.07
-30.62
-19.82
-3.07
17.65
39.35
58.79
73.09
80.20
79.34
71.20
57.66
41.34
24.93
10.75
0.53
-4.67
-4.62
-0.14
6.78
13.26
16.18
13.33
4.20
-9.65
-24.98
-37.80
-44.44
-42.59
-32.08
-15.06
4.41
21.40
31.77
33.54
27.46
16.61
5.00
-4.05
-9.04
-10.70
-11.33
-13.76
-20.26
-31.70
-47.23
-64.28
-78.99
-87.09
-85.09
-71.66
-48.34
-19.47
9.09
31.83
45.18
48.45
43.52
33.73
22.49
12.35
4.48
-1.45
-7.01
-14.68
-26.86
-44.74
-67.40
-91.54
-112.39
-125.17
-126.82
-116.95
-97.83
-73.59
-49.10
-28.79
-15.77
-11.14
-13.55
-19.44
-24.00
-22.84
-13.73
2.61
23.04
43.73
61.90
76.94
89.96
102.63
115.67
128.29
138.62
144.80
146.00
142.58
135.72
126.61
115.90
103.85
90.71
77.19
64.33
52.86
42.50
31.87
19.19
3.57
-14.15
-31.55
-45.79
-55.10
-59.82
-62.02
-64.24
-67.96
-72.92
-77.54
-80.09
-79.74
-76.83
-72.31
-66.93
-60.84
-53.76
-45.66
-37.09
-29.18
-23.21
-19.87
-19.03
-19.55
-19.90
-18.85
-16.08
-12.38
-9.30
-8.45
-10.60
-15.37
-21.28
-26.47
-29.47
-29.68
-27.45
-23.69
-19.32
-14.96
-10.90
-7.25
-4.18
-1.92
-0.60
-0.10
0.01
0.35
1.49
3.68
6.75
10.25
13.58
16.24
17.98
18.83
19.04
18.93
18.78
18.73
18.73
18.63
18.22
17.29
15.76
13.65
11.09
8.36
5.77
3.57
1.89
0.66
-0.42
-1.75
-3.73
-6.55
-10.05
-13.76
-16.98
-19.00
-19.35
-17.87
-14.76
-10.47
-5.56
-0.60
3.94
7.74
10.60
12.54
13.72
14.43
14.92
15.39
15.86
16.25
16.49
16.55
16.51
16.50
16.60
16.80
16.99
17.03
16.78
16.23
15.41
14.44
13.42
12.37
11.25
9.96
8.37
6.46
4.35
2.26
0.45
-0.93
-1.92
-2.78
-3.91
-5.67
-8.23
-11.47
-15.04
-18.43
-21.13
-22.75
-23.04
-21.93
-19.50
-15.95
-11.59
-6.85
-2.17
2.03
5.45
7.99
9.74
10.92
11.79
12.52
13.18
13.71
14.04
14.08
13.85
13.42
12.88
12.33
11.82
11.35
10.91
10.53
10.25
10.12
10.08
9.98
9.58
8.62
7.01
4.82
2.32
-0.15
-2.30
-3.99
-5.28
-6.37
-7.59
-9.24
-11.52
-14.43
-17.69
-20.76
-22.93
-23.54
-22.21
-18.95
-14.20
-8.71
-3.31
1.31
4.78
7.10
8.55
9.54
10.42
11.30
12.06
12.45
12.34
11.83
11.20
10.78
10.74
11.00
11.31
11.39
11.15
10.71
10.32
10.18
10.30
10.43
10.24
9.43
7.88
5.73
3.31
1.00
-0.94
-2.39
-3.52
-4.61
-5.94
-7.70
-9.90
-12.40
-14.97
-17.33
-19.17
-20.15
-19.94
-18.36
-15.44
-11.49
-7.04
-2.67
1.21
4.38
6.85
8.79
10.33
11.55
12.46
12.98
13.09
12.78
12.13
11.29
10.43
9.75
9.34
9.23
9.34
9.53
9.66
9.60
9.30
8.80
8.14
7.39
6.55
5.57
4.36
2.86
1.06
-0.91
-2.88
-4.67
-6.18
-7.43
-8.55
-9.72
-11.15
-13.01
-15.37
-18.13
-20.97
-23.35
-24.61
-24.23
-22.02
-18.23
-13.45
-8.42
-3.78
0.07
3.04
5.23
6.81
7.95
8.78
9.40
9.85
10.18
10.39
10.47
10.40
10.22
10.03
9.90
9.89
9.96
10.03
9.96
9.65
9.08
8.35
7.57
6.88
6.35
5.92
5.44
4.70
3.52
1.84
-0.26
-2.54
-4.74
-6.62
-8.07
-9.15
-10.06
-11.05
-12.35
-14.14
-16.45
-19.12
-21.79
-23.91
-24.88
-24.22
-21.75
-17.70
-12.67
-7.44
-2.74
0.99
3.64
5.42
6.64
7.57
8.36
9.03
9.55
9.94
10.20
10.36
10.38
10.18
9.72
9.02
8.24
7.61
7.34
7.46
7.84
8.26
8.43
8.24
7.68
6.89
6.01
5.14
4.27
3.35
2.29
1.03
-0.41
-1.95
-3.47
-4.87
-6.09
-7.18
-8.24
-9.42
-10.86
-12.67
-14.88
-17.42
-20.04
-22.33
-23.80
-23.98
-22.59
-19.67
-15.56
-10.85
-6.13
-1.89
1.57
4.17
5.96
7.07
7.67
7.95
8.08
8.20
8.35
8.54
8.66
8.61
8.32
7.77
7.11
6.51
6.17
6.22
6.63
7.24
7.80
8.07
7.91
7.32
6.42
5.37
4.36
3.51
2.81
2.13
1.30
0.17
-1.31
-3.01
-4.70
-6.15
-7.27
-8.17
-9.11
-10.36
-12.10
-14.33
-16.96
-19.80
-22.59
-25.02
-26.66
-27.13
-26.13
-23.65
-20.00
-15.72
-11.43
-7.59
-4.43
-1.93
0.02
1.55
2.69
3.46
3.89
4.08
4.21
4.49
5.02
5.81
6.71
7.49
8.04
8.34
8.55
8.90
9.49
10.26
10.99
11.37
11.25
10.67
9.88
9.16
8.65
8.25
7.65
6.55
4.82
2.63
0.39
-1.48
-2.77
-3.56
-4.18
-5.05
-6.43
-8.40
-10.83
-13.52
-16.28
-18.89
-21.07
-22.38
-22.39
-20.77
-17.56
-13.18
-8.34
-3.82
-0.12
2.59
4.45
5.80
6.94
7.97
8.86
9.49
9.77
9.75
9.59
9.48
9.53
9.70
9.84
9.77
9.45
9.00
8.65
8.59
8.87
9.31
9.58
9.36
8.51
7.15
5.62
4.30
3.40
2.87
2.45
1.83
0.79
-0.67
-2.42
-4.17
-5.73
-6.99
-8.01
-8.88
-9.75
-10.77
-12.14
-14.02
-16.50
-19.48
-22.53
-24.99
-26.14
-25.47
-22.88
-18.72
-13.74
-8.69
-4.14
-0.38
2.62
4.98
6.81
8.19
9.16
9.79
10.21
10.55
10.91
11.31
11.66
11.88
11.89
11.69
11.34
10.96
10.64
10.45
10.38
10.37
10.31
10.10
9.70
9.12
8.38
7.53
6.59
5.60
4.57
3.54
2.48
1.33
0.05
-1.43
-3.10
-4.87
-6.61
-8.23
-9.68
-11.03
-12.45
-14.10
-16.12
-18.51
-21.07
-23.46
-25.19
-25.82
-25.06
-22.86
-19.47
-15.24
-10.61
-5.95
-1.54
2.37
5.57
7.96
9.51
10.33
10.68
10.79
10.89
11.07
11.36
11.71
12.04
12.23
12.17
11.78
11.11
10.35
9.72
9.44
9.57
9.97
10.40
10.61
10.44
9.83
8.85
7.57
6.12
4.61
3.15
1.78
0.49
-0.79
-2.13
-3.57
-5.04
-6.41
-7.59
-8.59
-9.54
-10.67
-12.18
-14.21
-16.76
-19.63
-22.44
-24.64
-25.65
-25.01
-22.56
-18.53
-13.46
-8.13
-3.21
0.79
3.74
5.72
7.03
7.93
8.65
9.28
9.82
10.25
10.57
10.78
10.94
11.11
11.31
11.49
11.60
11.61
11.52
11.37
11.24
11.18
11.22
11.26
11.15
10.75
9.97
8.82
7.41
5.92
4.52
3.30
2.22
1.19
0.08
-1.18
-2.58
-4.05
-5.51
-6.92
-8.33
-9.89
-11.79
-14.13
-16.81
-19.52
-21.75
-23.02
-22.93
-21.39
-18.59
-14.91
-10.81
-6.71
-2.91
0.41
3.20
5.48
7.32
8.81
10.04
11.06
11.88
12.44
12.71
12.66
12.35
11.87
11.41
11.16
11.26
11.73
12.45
13.19
13.72
13.89
13.67
13.10
12.24
11.13
9.79
8.27
6.68
5.18
3.88
2.83
1.88
0.85
-0.44
-2.03
-3.79
-5.54
-7.06
-8.31
-9.37
-10.47
-11.88
-13.84
-16.40
-19.36
-22.28
-24.50
-25.38
-24.49
-21.74
-17.48
-12.42
-7.37
-2.98
0.45
2.99
4.93
6.58
8.06
9.32
10.22
10.70
10.85
10.85
10.87
11.00
11.18
11.32
11.36
11.34
11.35
11.43
11.61
11.84
12.05
12.16
12.11
11.83
11.25
10.36
9.21
7.96
6.79
5.80
4.95
4.09
2.98
1.49
-0.38
-2.46
-4.51
-6.33
-7.87
-9.18
-10.42
-11.76
-13.37
-15.33
-17.65
-20.18
-22.58
-24.31
-24.83
-23.75
-21.02
-17.04
-12.45
-7.97
-4.05
-0.88
1.70
3.90
5.89
7.68
9.16
10.21
10.80
11.00
10.97
10.88
10.90
11.09
11.43
11.81
12.08
12.15
12.02
11.77
11.59
11.57
11.69
11.81
11.73
11.34
10.64
9.75
8.80
7.84
6.85
5.68
4.24
2.53
0.65
-1.25
-3.01
-4.57
-5.93
-7.16
-8.33
-9.51
-10.84
-12.44
-14.48
-17.02
-19.96
-22.93
-25.31
-26.44
-25.84
-23.36
-19.33
-14.36
-9.19
-4.41
-0.35
2.92
5.50
7.51
9.01
10.03
10.61
10.84
10.85
10.80
10.76
10.74
10.68
10.56
10.38
10.24
10.26
10.51
10.98
11.56
12.09
12.38
12.30
11.79
10.92
9.80
8.59
7.45
6.45
5.55
4.66
3.66
2.50
1.20
-0.19
-1.62
-3.08
-4.55
-6.01
-7.36
-8.58
-9.73
-11.01
-12.68
-14.91
-17.65
-20.50
-22.84
-23.99
-23.47
-21.18
-17.42
-12.79
-8.00
-3.64
-0.03
2.73
4.77
6.29
7.48
8.45
9.29
10.01
10.59
10.99
11.11
10.90
10.40
9.74
9.14
8.79
8.80
9.15
9.73
10.39
11.03
11.55
11.85
11.86
11.48
10.69
9.57
8.29
7.05
5.97
5.08
4.29
3.50
2.58
1.48
0.16
-1.39
-3.10
-4.86
-6.54
-8.02
-9.25
-10.27
-11.24
-12.32
-13.71
-15.54
-17.79
-20.26
-22.55
-24.09
-24.30
-22.81
-19.59
-15.03
-9.83
-4.72
-0.31
3.03
5.25
6.49
7.01
7.12
7.10
7.15
7.38
7.78
8.27
8.76
9.20
9.54
9.77
9.87
9.81
9.63
9.43
9.37
9.61
10.18
10.94
11.64
11.93
11.54
10.42
8.70
6.72
4.86
3.40
2.43
1.85
1.43
0.91
0.13
-1.00
-2.40
-3.99
-5.65
-7.28
-8.89
-10.49
-12.19
-14.04
-16.09
-18.30
-20.51
-22.43
-23.70
-23.95
-22.88
-20.44
-16.77
-12.30
-7.56
-3.15
0.51
3.18
4.90
5.88
6.43
6.87
7.39
8.06
8.81
9.46
9.88
9.97
9.79
9.49
9.23
9.15
9.23
9.40
9.51
9.47
9.24
8.88
8.43
7.95
7.48
6.99
6.47
5.88
5.12
4.10
2.78
1.23
-0.37
-1.74
-2.72
-3.28
-3.62
-4.06
-4.88
-6.22
-8.04
-10.25
-12.69
-15.28
-17.81
-19.94
-21.21
-21.13
-19.44
-16.23
-11.94
-7.22
-2.74
1.05
3.92
5.88
7.07
7.69
7.96
8.04
8.05
8.04
8.02
7.97
7.86
7.74
7.63
7.56
7.54
7.53
7.52
7.47
7.38
7.22
6.99
6.63
6.12
5.42
4.56
3.64
2.78
2.06
1.48
0.92
0.20
-0.84
-2.20
-3.76
-5.34
-6.75
-7.92
-8.93
-9.97
-11.26
-13.02
-15.33
-18.02
-20.66
-22.62
-23.26
-22.16
-19.34
-15.23
-10.49
-5.80
-1.63
1.84
4.59
6.69
8.23
9.26
9.93
10.39
10.80
11.26
11.75
12.20
12.52
12.65
12.55
12.18
11.51
10.53
9.35
8.12
7.06
6.24
5.64
5.08
4.40
3.52
2.47
1.37
0.24
-0.95
-2.27
-3.78
-5.37
-6.88
-8.17
-9.19
-10.04
-10.91
-12.03
-13.57
-15.53
-17.79
-20.01
-21.69
-22.31
-21.46
-19.04
-15.30
-10.79
-6.17
-1.96
1.56
4.34
6.48
8.05
9.11
9.68
9.83
9.69
9.47
9.32
9.34
9.51
9.74
9.95
10.05
10.01
9.85
9.64
9.46
9.39
9.50
9.69
9.83
9.68
9.06
7.84
6.09
4.01
1.95
0.31
-0.56
-0.47
0.47
1.74
2.52
1.90
-0.78
-5.63
-12.11
-19.26
-25.97
-31.34
-34.78
-36.00
-34.94
-31.70
-26.60
-20.22
-13.27
-6.48
-0.34
5.05
9.91
14.53
19.07
23.43
27.30
30.31
32.26
33.18
33.23
32.64
31.50
29.85
27.68
25.12
22.43
19.95
17.99
16.66
15.81
15.17
14.42
13.38
12.05
10.51
8.81
6.95
4.87
2.59
0.22
-2.01
-3.95
-5.57
-7.05
-8.61
-10.43
-12.51
-14.72
-16.86
-18.85
-20.76
-22.75
-24.95
-27.39
-29.89
-32.15
-33.78
-34.38
-33.66
-31.40
-27.68
-22.84
-17.48
-12.27
-7.75
-4.16
-1.43
0.71
2.51
4.14
5.65
7.00
8.20
9.31
10.36
11.35
12.20
12.82
13.20
13.39
13.46
13.48
13.49
13.50
13.54
13.65
13.85
14.09
14.19
13.94
13.18
11.90
10.27
8.60
7.16
6.11
5.45
4.97
4.44
3.65
2.48
0.97
-0.73
-2.50
-4.25
-5.99
-7.79
-9.79
-12.09
-14.76
-17.73
-20.78
-23.54
-25.48
-26.13
-25.15
-22.56
-18.70
-14.11
-9.36
-4.90
-0.96
2.37
5.03
6.95
8.10
8.52
8.34
7.81
7.17
6.60
6.21
6.03
6.05
6.24
6.56
6.90
7.11
7.09
6.84
6.43
6.00
5.65
5.38
5.10
4.65
3.92
2.91
1.73
0.56
-0.46
-1.28
-1.98
-2.71
-3.62
-4.72
-5.90
-7.02
-7.96
-8.72
-9.38
-10.06
-10.83
-11.72
-12.77
-14.03
-15.52
-17.11
-18.48
-19.09
-18.41
-16.14
-12.33
-7.46
-2.22
2.70
6.87
10.11
12.50
14.21
15.36
16.02
16.19
15.86
15.05
13.84
12.28
10.45
8.41
6.25
4.16
2.41
1.36
1.27
2.19
3.90
6.00
8.05
9.77
11.09
12.06
12.81
13.41
13.77
13.81
13.41
12.62
11.52
10.28
8.94
7.44
5.59
3.20
0.18
-3.38
-7.14
-10.68
-13.54
-15.39
-16.00
-15.22
-13.03
-9.49
-4.85
0.47
5.93
10.95
15.12
18.21
20.19
21.15
21.25
20.69
19.66
18.35
16.91
15.40
13.81
12.13
10.39
8.74
7.30
6.19
5.42
4.87
4.38
3.80
3.09
2.26
1.37
0.48
-0.41
-1.30
-2.24
-3.27
-4.39
-5.54
-6.66
-7.71
-8.72
-9.81
-11.14
-12.83
-14.86
-17.11
-19.36
-21.37
-22.97
-24.02
-24.42
-24.00
-22.60
-20.14
-16.71
-12.68
-8.56
-4.87
-1.94
0.20
1.76
3.06
4.28
5.44
6.39
6.97
7.11
6.91
6.59
6.31
6.15
6.02
5.78
5.31
4.62
3.85
3.19
2.75
2.52
2.30
1.79
0.76
-0.83
-2.81
-4.90
-6.84
-8.52
-10.06
-11.66
-13.47
-15.54
-17.81
-20.18
-22.58
-25.01
-27.49
-30.04
-32.65
-35.32
-38.11
-41.01
-43.89
-46.36
-47.87
-47.86
-46.02
-42.43
-37.54
-31.99
-26.33
-20.89
-15.75
-10.88
-6.24
-1.90
2.02
5.40
8.20
10.54
12.61
14.62
16.75
19.06
21.55
24.15
26.82
29.56
32.45
35.52
38.76
42.08
45.30
48.23
50.69
52.62
54.08
55.25
56.37
57.68
59.30
61.16
62.99
64.42
65.04
64.60
63.03
60.49
57.19
53.33
48.99
44.14
38.68
32.51
25.62
18.17
10.52
3.17
-3.25
-8.24
-11.49
-12.96
-12.95
-11.95
-10.54
-9.29
-8.62
-8.73
-9.57
-10.92
-12.42
-13.73
-14.65
-15.17
-15.41
-15.56
-15.75
-15.97
-16.19
-16.35
-16.45
-16.59
-16.87
-17.39
-18.17
-19.16
-20.26
-21.36
-22.38
-23.37
-24.41
-25.59
-26.92
-28.26
-29.39
-30.09
-30.29
-30.09
-29.70
-29.40
-29.44
-30.03
-31.36
-33.53
-36.44
-39.78
-43.02
-45.53
-46.84
-46.76
-45.41
-43.06
-39.97
-36.29
-31.95
-26.83
-20.82
-13.91
-6.22
2.01
10.44
18.66
26.23
32.76
37.95
41.68
44.02
45.25
45.77
45.97
46.12
46.28
46.29
45.85
44.72
42.81
40.21
37.15
33.88
30.60
27.45
24.54
21.97
19.79
18.02
16.60
15.37
14.17
12.86
11.41
9.84
8.23
6.65
5.07
3.34
1.26
-1.35
-4.52
-8.04
-11.55
-14.68
-17.25
-19.36
-21.37
-23.71
-26.70
-30.35
-34.36
-38.17
-41.06
-42.34
-41.51
-38.33
-32.94
-25.87
-17.84
-9.64
-1.87
5.09
11.11
16.14
20.25
23.51
26.07
28.05
29.50
30.29
30.18
28.96
26.63
23.56
20.30
17.46
15.36
13.95
12.92
11.88
10.58
9.02
7.36
5.68
4.02
2.27
0.36
-1.68
-3.72
-5.54
-7.01
-8.14
-9.12
-10.23
-11.66
-13.46
-15.47
-17.44
-19.18
-20.72
-22.31
-24.32
-27.02
-30.37
-33.98
-37.24
-39.50
-40.31
-39.59
-37.49
-34.42
-30.81
-27.17
-23.96
-21.56
-20.16
-19.71
-19.94
-20.51
-21.14
-21.71
-22.25
-22.81
-23.31
-23.57
-23.27
-22.16
-20.10
-17.11
-13.38
-9.15
-4.69
-0.28
3.79
7.27
9.93
11.63
12.36
12.26
11.58
10.63
9.66
8.80
8.06
7.32
6.44
5.34
3.97
2.42
0.80
-0.74
-2.08
-3.13
-3.90
-4.46
-4.95
-5.48
-6.08
-6.57
-6.61
-5.75
-3.69
-0.39
3.87
8.57
13.22
17.50
21.36
24.95
28.44
31.82
34.87
37.30
38.86
39.50
39.32
38.46
36.99
34.95
32.37
29.46
26.56
24.06
22.24
21.15
20.57
20.23
19.90
19.54
19.23
19.11
19.21
19.44
19.68
19.87
20.14
20.74
21.94
23.84
26.21
28.54
30.18
30.65
29.80
27.87
25.31
22.58
19.89
17.19
14.27
10.90
7.00
2.63
-2.02
-6.69
-11.09
-14.88
-17.66
-19.09
-18.94
-17.23
-14.28
-10.61
-6.85
-3.57
-1.12
0.46
1.39
2.05
2.78
3.75
4.89
5.99
6.81
7.24
7.26
6.94
6.38
5.65
4.83
3.98
3.22
2.64
2.26
2.00
1.67
1.04
-0.06
-1.71
-3.84
-6.24
-8.66
-10.79
-12.44
-13.56
-14.28
-14.87
-15.64
-16.85
-18.58
-20.82
-23.40
-26.09
-28.64
-30.80
-32.37
-33.30
-33.78
-34.21
-35.10
-36.81
-39.31
-42.11
-44.36
-45.19
-44.01
-40.82
-36.09
-30.62
-25.17
-20.23
-15.97
-12.34
-9.24
-6.62
-4.48
-2.82
-1.48
-0.16
1.44
3.59
6.23
9.11
11.77
13.85
15.16
15.82
16.15
16.51
17.13
18.03
19.06
19.96
20.52
20.62
20.24
19.38
18.04
16.18
13.82
11.09
8.24
5.54
3.20
1.24
-0.48
-2.14
-3.86
-5.58
-7.17
-8.53
-9.68
-10.81
-12.15
-13.84
-15.74
-17.47
-18.46
-18.16
-16.24
-12.71
-7.94
-2.55
2.78
7.56
11.51
14.67
17.18
19.17
20.70
21.71
22.15
22.04
21.45
20.48
19.17
17.49
15.36
12.76
9.75
6.50
3.26
0.26
-2.28
-4.29
-5.82
-7.07
-8.28
-9.71
-11.54
-13.81
-16.44
-19.32
-22.32
-25.39
-28.52
-31.70
-34.88
-38.06
-41.28
-44.65
-48.30
-52.23
-56.23
-59.92
-62.82
-64.51
-64.75
-63.36
-60.24
-55.23
-48.19
-39.18
-28.58
-17.18
-5.98
4.05
12.31
18.65
23.31
26.69
29.19
31.09
32.53
33.57
34.28
34.69
34.83
34.71
34.33
33.72
32.93
32.04
31.10
30.13
29.15
28.17
27.23
26.35
25.51
24.67
23.73
22.59
21.19
19.53
17.64
15.57
13.40
11.23
9.18
7.35
5.82
4.63
3.65
2.73
1.65
0.27
-1.34
-2.87
-3.84
-3.70
-2.06
1.16
5.70
10.97
16.32
21.18
25.20
28.30
30.50
31.91
32.63
32.80
32.69
32.62
33.00
34.05
35.72
37.60
39.12
39.67
38.94
36.93
33.94
30.36
26.45
22.27
17.74
12.78
7.40
1.72
-4.08
-9.83
-15.42
-20.78
-25.73
-30.06
-33.46
-35.73
-36.84
-37.02
-36.71
-36.42
-36.59
-37.48
-39.13
-41.39
-43.87
-46.07
-47.38
-47.31
-45.56
-42.21
-37.70
-32.69
-27.88
-23.74
-20.47
-18.00
-16.08
-14.46
-12.96
-11.52
-10.18
-9.04
-8.16
-7.56
-7.19
-6.98
-6.84
-6.72
-6.63
-6.59
-6.71
-7.03
-7.61
-8.44
-9.49
-10.68
-11.93
-13.26
-14.74
-16.50
-18.65
-21.19
-23.99
-26.91
-29.88
-32.87
-35.90
-38.81
-41.23
-42.63
-42.55
-40.80
-37.59
-33.43
-28.91
-24.39
-19.90
-15.16
-9.85
-3.80
2.89
9.86
16.67
22.87
28.12
32.20
34.95
36.28
36.18
34.79
32.42
29.50
26.52
23.82
21.53
19.52
17.56
15.45
13.18
10.93
8.94
7.39
6.33
5.69
5.36
5.31
5.55
6.12
6.95
7.88
8.75
9.49
10.19
11.02
12.09
13.33
14.47
15.17
15.20
14.55
13.44
12.20
11.13
10.36
9.86
9.46
8.90
7.94
6.41
4.23
1.55
-1.25
-3.60
-4.90
-4.71
-2.90
0.25
4.25
8.52
12.60
16.23
19.31
21.82
23.76
25.15
26.03
26.56
26.96
27.42
28.01
28.64
29.11
29.26
29.03
28.50
27.84
27.13
26.40
25.56
24.50
23.16
21.51
19.57
17.29
14.65
11.58
8.14
4.43
0.65
-3.04
-6.49
-9.64
-12.52
-15.22
-17.95
-20.87
-24.13
-27.73
-31.49
-35.16
-38.48
-41.32
-43.64
-45.39
-46.43
-46.41
-44.88
-41.54
-36.33
-29.58
-21.91
-14.00
-6.46
0.33
6.13
10.84
14.37
16.65
17.74
17.77
17.02
15.80
14.44
13.20
12.25
11.72
11.64
12.01
12.70
13.52
14.17
14.42
14.10
13.23
11.90
10.26
8.42
6.37
4.05
1.36
-1.73
-5.11
-8.57
-11.82
-14.63
-16.86
-18.46
-19.54
-20.23
-20.68
-21.06
-21.53
-22.18
-23.08
-24.14
-25.11
-25.64
-25.29
-23.70
-20.69
-16.36
-11.07
-5.41
-0.01
4.66
8.38
11.28
13.63
15.74
17.74
19.52
20.85
21.53
21.47
20.82
19.80
18.67
17.62
16.72
16.00
15.48
15.17
15.01
14.88
14.59
14.00
13.04
11.81
10.50
9.32
8.32
7.43
6.46
5.26
3.80
2.18
0.59
-0.79
-1.90
-2.76
-3.50
-4.26
-5.20
-6.50
-8.28
-10.51
-12.90
-14.95
-16.02
-15.62
-13.60
-10.23
-6.10
-1.88
1.87
4.86
7.04
8.47
9.30
9.71
9.89
10.07
10.42
10.96
11.61
12.15
12.36
12.12
11.41
10.32
9.00
7.60
6.26
5.13
4.29
3.73
3.34
2.94
2.34
1.47
0.40
-0.71
-1.71
-2.53
-3.23
-3.92
-4.72
-5.70
-6.84
-8.13
-9.54
-11.05
-12.67
-14.38
-16.17
-18.03
-19.95
-21.98
-24.08
-26.13
-27.83
-28.75
-28.43
-26.53
-23.03
-18.21
-12.65
-7.07
-2.06
2.00
5.06
7.31
9.07
10.64
12.23
13.87
15.50
17.01
18.27
19.23
19.88
20.25
20.41
20.41
20.30
20.14
20.00
20.00
20.23
20.66
21.14
21.39
21.11
20.11
18.42
16.25
13.92
11.71
9.78
8.14
6.68
5.30
3.94
2.61
1.34
0.10
-1.17
-2.58
-4.25
-6.28
-8.72
-11.53
-14.57
-17.55
-20.08
-21.69
-22.02
-20.86
-18.25
-14.51
-10.11
-5.63
-1.57
1.68
3.98
5.34
5.98
6.20
6.38
6.82
7.74
9.19
11.06
13.20
15.37
17.39
19.07
20.28
20.90
20.89
20.27
19.22
17.97
16.74
15.75
15.04
14.55
14.18
13.75
13.16
12.30
11.13
9.56
7.55
5.12
2.30
-0.77
-3.96
-7.14
-10.17
-13.03
-15.73
-18.39
-21.12
-23.99
-26.93
-29.72
-32.06
-33.63
-34.18
-33.65
-32.11
-29.84
-27.23
-24.74
-22.84
-21.88
-22.03
-23.20
-25.05
-27.00
-28.29
-28.17
-26.08
-21.89
-15.95
-9.05
-2.16
3.90
8.70
12.27
14.97
17.17
19.04
20.43
21.03
20.55
18.90
16.20
12.76
8.94
5.08
1.53
-1.40
-3.45
-4.49
-4.59
-4.08
-3.46
-3.20
-3.60
-4.66
-6.08
-7.38
-8.01
-7.54
-5.72
-2.55
1.74
6.73
11.90
16.75
20.86
23.97
25.99
26.98
27.09
26.55
25.63
24.52
23.33
22.01
20.41
18.39
15.96
13.33
10.86
8.93
7.72
7.17
6.99
6.78
6.27
5.38
4.24
3.10
2.15
1.37
0.60
-0.46
-2.05
-4.23
-6.81
-9.38
-11.52
-12.89
-13.32
-12.83
-11.60
-9.91
-8.15
-6.75
-6.15
-6.63
-8.20
-10.45
-12.69
-14.12
-14.15
-12.62
-9.84
-6.51
-3.40
-1.16
-0.13
-0.36
-1.65
-3.64
-5.90
-8.06
-9.81
-11.03
-11.79
-12.29
-12.76
-13.33
-13.99
-14.54
-14.70
-14.19
-12.84
-10.65
-7.73
-4.33
-0.74
2.71
5.68
7.90
9.18
9.55
9.21
8.50
7.74
7.15
6.75
6.35
5.75
4.78
3.47
1.96
0.44
-0.94
-2.16
-3.25
-4.32
-5.46
-6.77
-8.34
-10.21
-12.27
-14.24
-15.69
-16.12
-15.16
-12.72
-9.02
-4.61
-0.11
3.91
7.09
9.29
10.59
11.16
11.24
11.06
10.81
10.61
10.48
10.36
10.11
9.62
8.79
7.63
6.28
5.00
4.08
3.77
4.13
5.05
6.23
7.27
7.80
7.59
6.55
4.77
2.45
-0.19
-2.97
-5.78
-8.58
-11.35
-14.11
-16.84
-19.50
-21.97
-24.04
-25.52
-26.30
-26.40
-26.01
-25.40
-24.74
-24.00
-22.90
-21.03
-18.10
-14.09
-9.25
-4.06
1.04
5.76
9.99
13.65
16.63
18.80
20.07
20.51
20.37
19.99
19.63
19.35
19.07
18.61
17.86
16.85
15.70
14.55
13.48
12.51
11.60
10.72
9.88
9.06
8.28
7.51
6.73
5.90
4.98
3.96
2.82
1.60
0.33
-0.98
-2.41
-4.03
-5.94
-8.14
-10.59
-13.17
-15.77
-18.28
-20.54
-22.35
-23.42
-23.49
-22.40
-20.24
-17.26
-13.85
-10.40
-7.18
-4.42
-2.20
-0.48
0.90
2.21
3.73
5.58
7.65
9.67
11.35
12.53
13.33
14.00
14.79
15.77
16.83
17.75
18.35
18.54
18.36
17.86
17.04
15.92
14.53
12.98
11.47
10.10
8.89
7.65
6.17
4.27
1.96
-0.59
-3.14
-5.49
-7.58
-9.50
-11.42
-13.44
-15.57
-17.64
-19.46
-20.76
-21.32
-21.05
-19.96
-18.25
-16.23
-14.29
-12.80
-11.92
-11.60
-11.55
-11.37
-10.72
-9.46
-7.69
-5.64
-3.58
-1.67
0.09
1.81
3.66
5.74
8.07
10.55
13.04
15.38
17.44
19.09
20.27
20.90
20.97
20.48
19.49
18.10
16.46
14.74
13.06
11.52
10.13
8.77
7.32
5.59
3.49
1.03
-1.67
-4.40
-7.03
-9.50
-11.87
-14.22
-16.59
-18.89
-20.87
-22.21
-22.61
-21.85
-19.86
-16.80
-13.01
-8.97
-5.23
-2.20
-0.11
1.10
1.64
1.77
1.64
1.32
0.85
0.30
-0.23
-0.67
-1.02
-1.45
-2.09
-3.01
-4.04
-4.87
-5.16
-4.64
-3.29
-1.28
1.13
3.66
6.13
8.40
10.35
11.87
12.86
13.27
13.14
12.60
11.86
11.11
10.46
9.92
9.36
8.66
7.68
6.41
4.90
3.24
1.50
-0.27
-2.07
-3.93
-5.91
-8.06
-10.43
-12.98
-15.55
-17.82
-19.31
-19.54
-18.24
-15.46
-11.60
-7.32
-3.29
0.04
2.48
4.09
5.07
5.62
5.92
6.14
6.42
6.89
7.62
8.52
9.39
9.92
9.92
9.33
8.26
6.96
5.67
4.53
3.53
2.56
1.45
0.08
-1.61
-3.57
-5.64
-7.62
-9.27
-10.42
-10.99
-11.01
-10.68
-10.22
-9.82
-9.50
-9.13
-8.46
-7.25
-5.47
-3.32
-1.24
0.34
1.06
0.91
0.09
-1.00
-1.98
-2.48
-2.25
-1.10
1.07
4.20
8.04
12.17
16.14
19.58
22.37
24.58
26.41
28.10
29.71
31.20
32.42
33.20
33.49
33.37
33.05
32.82
32.94
33.57
34.73
36.28
38.05
39.85
41.55
43.04
44.21
44.93
45.10
44.61
43.46
41.68
39.31
36.42
33.01
29.13
24.84
20.25
15.45
10.46
5.21
-0.52
-6.91
-14.08
-21.93
-30.11
-38.08
-45.16
-50.72
-54.32
-55.82
-55.39
-53.47
-50.61
-47.27
-43.79
-40.32
-36.91
-33.65
-30.66
-28.12
-26.14
-24.78
-23.93
-23.42
-23.02
-22.49
-21.64
-20.37
-18.71
-16.79
-14.82
-12.98
-11.41
-10.11
-9.04
-8.14
-7.40
-6.84
-6.49
-6.37
-6.49
-6.84
-7.39
-8.10
-8.86
-9.57
-10.15
-10.61
-11.04
-11.60
-12.41
-13.54
-15.00
-16.75
-18.72
-20.80
-22.75
-24.22
-24.84
-24.30
-22.53
-19.77
-16.45
-13.08
-10.08
-7.68
-5.94
-4.77
-4.04
-3.60
-3.32
-3.07
-2.84
-2.68
-2.73
-3.09
-3.71
-4.45
-5.10
-5.54
-5.79
-6.02
-6.44
-7.20
-8.36
-9.89
-11.70
-13.61
-15.39
-16.76
-17.49
-17.48
-16.83
-15.78
-14.51
-13.15
-11.67
-10.06
-8.42
-7.00
-6.11
-5.92
-6.40
-7.33
-8.50
-9.79
-11.16
-12.59
-13.86
-14.62
-14.51
-13.30
-11.03
-8.00
-4.66
-1.33
1.81
4.82
7.81
10.91
14.09
17.13
19.77
21.76
22.99
23.55
23.71
23.76
23.91
24.23
24.64
25.02
25.34
25.65
26.06
26.69
27.50
28.33
28.89
28.93
28.30
27.05
25.38
23.55
21.82
20.28
18.90
17.49
15.82
13.73
11.19
8.33
5.40
2.64
0.19
-1.99
-4.10
-6.39
-9.08
-12.24
-15.77
-19.41
-22.78
-25.45
-27.04
-27.26
-26.00
-23.41
-19.88
-15.95
-12.16
-8.96
-6.56
-5.01
-4.26
-4.18
-4.62
-5.38
-6.16
-6.64
-6.56
-5.84
-4.62
-3.20
-1.94
-1.08
-0.68
-0.61
-0.67
-0.68
-0.58
-0.40
-0.25
-0.27
-0.54
-1.05
-1.68
-2.26
-2.61
-2.61
-2.28
-1.76
-1.24
-0.93
-0.94
-1.26
-1.80
-2.38
-2.81
-2.92
-2.66
-2.08
-1.38
-0.81
-0.66
-1.10
-2.08
-3.30
-4.18
-3.94
-1.85
2.59
9.41
18.07
27.61
36.87
44.82
50.86
54.99
57.60
59.39
60.96
62.74
64.77
66.87
68.69
69.78
69.77
68.34
65.36
60.95
55.44
49.37
43.28
37.58
32.34
27.31
21.94
15.68
8.18
-0.54
-10.06
-19.75
-28.96
-37.17
-44.07
-49.53
-53.60
-56.41
-58.24
-59.43
-60.28
-60.87
-61.08
-60.63
-59.35
-57.44
-55.44
-54.04
-53.66
-54.22
-55.10
-55.43
-54.47
-51.90
-47.91
-42.93
-37.45
-31.81
-26.23
-20.89
-16.03
-11.92
-8.77
-6.68
-5.57
-5.22
-5.37
-5.77
-6.18
-6.40
-6.20
-5.37
-3.68
-1.00
2.73
7.43
12.87
18.67
24.34
29.33
33.16
35.53
36.42
36.14
35.11
33.77
32.34
30.76
28.85
26.34
23.09
19.09
14.42
9.21
3.59
-2.23
-7.99
-13.31
-17.87
-21.54
-24.41
-26.84
-29.22
-31.86
-34.78
-37.71
-40.13
-41.45
-41.14
-38.92
-34.84
-29.27
-22.87
-16.33
-10.27
-5.04
-0.77
2.64
5.34
7.50
9.30
10.89
12.39
13.87
15.33
16.73
18.03
19.25
20.46
21.75
23.12
24.50
25.74
26.68
27.25
27.49
27.46
27.22
26.82
26.30
25.78
25.38
25.24
25.42
25.76
26.03
25.95
25.37
24.33
23.00
21.60
20.24
18.80
17.05
14.74
11.74
8.17
4.32
0.65
-2.44
-4.63
-5.77
-5.85
-4.99
-3.42
-1.42
0.75
2.83
4.67
6.18
7.36
8.22
8.79
9.13
9.27
9.26
9.09
8.69
7.99
7.00
5.82
4.66
3.82
3.47
3.66
4.23
4.90
5.37
5.44
5.00
4.13
2.99
1.79
0.71
-0.09
-0.57
-0.80
-0.94
-1.21
-1.79
-2.82
-4.30
-6.07
-7.86
-9.39
-10.44
-11.02
-11.35
-11.82
-12.80
-14.48
-16.75
-19.24
-21.39
-22.64
-22.65
-21.28
-18.70
-15.23
-11.26
-7.24
-3.50
-0.36
2.08
3.79
4.93
5.70
6.30
6.84
7.36
7.85
8.27
8.60
8.82
8.95
8.98
8.95
8.88
8.77
8.61
8.35
7.96
7.42
6.82
6.25
5.79
5.41
4.95
4.26
3.22
1.90
0.45
-0.95
-2.15
-3.19
-4.15
-5.18
-6.39
-7.83
-9.53
-11.45
-13.52
-15.54
-17.18
-18.04
-17.74
-16.11
-13.27
-9.62
-5.75
-2.21
0.59
2.55
3.79
4.59
5.21
5.81
6.37
6.78
6.95
6.87
6.65
6.43
6.27
6.15
5.95
5.55
4.98
4.35
3.88
3.73
3.89
4.17
4.28
3.98
3.19
1.99
0.60
-0.78
-1.99
-3.01
-3.86
-4.65
-5.49
-6.53
-7.90
-9.62
-11.52
-13.24
-14.31
-14.34
-13.17
-10.95
-8.08
-4.99
-2.08
0.49
2.65
4.42
5.81
6.79
7.31
7.40
7.14
6.68
6.17
5.71
5.35
5.09
4.87
4.62
4.30
3.89
3.45
3.05
2.80
2.70
2.65
2.43
1.82
0.67
-0.94
-2.73
-4.35
-5.54
-6.23
-6.61
-7.06
-7.95
-9.48
-11.58
-13.88
-15.81
-16.79
-16.41
-14.63
-11.67
-8.03
-4.18
-0.51
2.78
5.63
8.01
9.88
11.20
11.97
12.20
11.98
11.40
10.56
9.58
8.57
7.67
6.97
6.52
6.31
6.24
6.19
6.06
5.85
5.53
5.02
4.24
3.10
1.65
-0.01
-1.74
-3.38
-4.84
-6.10
-7.25
-8.49
-9.94
-11.70
-13.87
-16.56
-19.59
-22.55
-24.88
-26.08
-25.87
-24.06
-20.83
-16.78
-13.00
-10.17
-8.57
-8.01
-8.20
-8.77
-8.96
-8.22
-6.45
-4.59
-3.10
-2.13
-1.55
-1.42
-1.88
-2.31
-2.05
-0.85
0.08
0.19
-0.63
-1.99
-3.34
-3.71
-0.89
7.06
20.68
37.56
55.45
72.39
87.21
99.10
101.88
91.72
69.80
48.99
33.64
24.50
18.72
14.92
11.90
8.82
6.39
5.73
7.44
9.99
12.42
14.05
14.60
13.72
11.25
8.04
5.16
3.35
2.01
1.23
1.32
2.52
4.35
5.89
6.74
6.92
6.80
6.32
6.05
6.48
7.77
9.44
10.83
11.64
11.95
11.86
11.04
9.22
6.21
2.11
-2.69
-7.50
-11.40
-13.65
-14.03
-12.90
-10.84
-8.30
-5.46
-2.14
1.95
6.90
12.33
17.38
20.87
21.77
19.54
14.32
6.76
-2.26
-11.91
-21.48
-30.24
-37.31
-41.73
-42.70
-39.99
-34.02
-25.75
-16.13
-5.71
5.56
17.95
31.58
45.93
59.84
71.78
80.49
85.25
86.06
83.34
77.58
69.12
58.16
44.90
29.73
13.34
-3.38
-19.51
-34.28
-47.19
-57.99
-66.69
-73.42
-78.32
-81.43
-82.75
-82.38
-80.66
-78.30
-76.29
-75.58
-76.78
-79.85
-84.04
-88.07
-90.53
-90.27
-86.74
-80.10
-71.09
-60.83
-50.44
-40.81
-32.43
-25.46
-19.80
-15.28
-11.77
-9.20
-7.47
-6.38
-5.63
-4.87
-3.80
-2.28
-0.41
1.52
3.19
4.37
5.07
5.49
5.93
6.58
7.40
8.18
8.59
8.44
7.77
6.84
5.98
5.40
5.12
4.86
4.31
3.19
1.48
-0.62
-2.81
-4.80
-6.43
-7.71
-8.73
-9.62
-10.50
-11.51
-12.84
-14.68
-17.07
-19.74
-22.16
-23.58
-23.35
-21.19
-17.32
-12.44
-7.41
-2.95
0.54
3.09
4.98
6.55
8.02
9.43
10.70
11.71
12.42
12.89
13.24
13.57
13.96
14.41
14.88
15.35
15.81
16.25
16.67
17.01
17.17
17.03
16.52
15.62
14.45
13.19
12.04
11.10
10.32
9.54
8.59
7.35
5.82
4.16
2.60
1.26
0.19
-0.73
-1.72
-3.01
-4.72
-6.83
-9.12
-11.23
-12.72
-13.19
-12.40
-10.34
-7.25
-3.56
0.18
3.51
6.13
8.00
9.29
10.21
10.96
11.56
11.93
11.94
11.52
10.72
9.74
8.80
8.09
7.68
7.56
7.61
7.71
7.73
7.56
7.15
6.44
5.45
4.19
2.72
1.07
-0.74
-2.73
-4.90
-7.23
-9.64
-11.99
-14.12
-15.87
-17.09
-17.68
-17.61
-16.96
-15.85
-14.49
-13.02
-11.46
-9.60
-7.03
-3.28
2.04
8.98
17.20
26.05
34.68
42.33
48.50
52.98
55.91
57.64
58.53
58.88
58.71
57.75
55.50
51.36
44.95
36.32
26.08
15.35
5.42
-2.50
-7.57
-9.45
-8.30
-4.74
0.28
5.64
10.36
13.84
16.06
17.46
18.68
20.09
21.59
22.74
23.09
22.59
21.79
21.54
22.53
24.74
27.32
28.82
27.74
23.12
14.86
3.62
-9.42
-23.06
-36.30
-48.39
-58.71
-66.58
-71.27
-72.20
-69.29
-63.12
-54.89
-46.16
-38.28
-32.09
-27.74
-24.81
-22.71
-20.92
-19.29
-17.95
-17.31
-17.78
-19.60
-22.67
-26.53
-30.48
-33.81
-35.98
-36.79
-36.41
-35.13
-33.35
-31.35
-29.31
-27.43
-25.87
-24.82
-24.35
-24.40
-24.80
-25.38
-26.07
-26.90
-27.95
-29.26
-30.78
-32.42
-34.03
-35.46
-36.53
-37.06
-36.91
-36.17
-35.11
-34.22
-33.98
-34.56
-35.65
-36.48
-35.96
-32.98
-26.78
-17.16
-4.77
9.09
22.70
34.48
43.47
49.69
53.99
57.63
61.63
66.34
71.39
76.02
79.43
81.07
80.56
77.57
71.72
62.87
51.47
38.73
26.55
16.84
10.83
8.54
8.88
10.21
11.14
11.17
10.74
10.84
12.27
15.17
18.89
22.33
24.48
24.91
23.84
21.92
19.89
18.14
16.70
15.42
14.16
13.07
12.43
12.50
13.20
14.06
14.32
13.34
10.88
7.30
3.45
0.41
-1.03
-0.59
1.38
4.15
6.93
9.17
10.68
11.56
12.03
12.21
12.14
11.74
10.98
9.88
8.61
7.35
6.30
5.56
5.16
4.99
4.93
4.84
4.62
4.31
4.00
3.82
3.82
3.92
3.90
3.49
2.54
1.06
-0.74
-2.53
-3.99
-5.00
-5.62
-6.10
-6.70
-7.58
-8.71
-9.95
-11.14
-12.17
-13.04
-13.86
-14.72
-15.78
-17.13
-18.81
-20.81
-23.01
-25.18
-26.93
-27.87
-27.59
-25.89
-22.82
-18.72
-14.17
-9.77
-5.97
-2.97
-0.70
1.06
2.52
3.80
4.89
5.74
6.29
6.52
6.45
6.15
5.69
5.20
4.79
4.57
4.56
4.69
4.85
4.93
4.90
4.81
4.71
4.62
4.47
4.17
3.64
2.88
1.93
0.88
-0.24
-1.40
-2.58
-3.72
-4.75
-5.61
-6.27
-6.83
-7.45
-8.37
-9.81
-11.80
-14.21
-16.61
-18.48
-19.27
-18.65
-16.60
-13.46
-9.75
-5.93
-2.36
0.88
3.75
6.20
8.07
9.19
9.55
9.30
8.82
8.49
8.51
8.82
9.18
9.35
9.24
8.98
8.78
8.78
8.98
9.18
9.21
8.98
8.57
8.15
7.90
7.88
8.03
8.19
8.21
7.97
7.45
6.70
5.78
4.74
3.58
2.25
0.74
-0.96
-2.77
-4.60
-6.37
-8.13
-10.00
-12.15
-14.64
-17.27
-19.57
-20.92
-20.77
-18.93
-15.58
-11.27
-6.65
-2.27
1.58
4.82
7.49
9.60
11.11
11.99
12.29
12.14
11.73
11.19
10.53
9.71
8.66
7.42
6.14
4.98
4.11
3.53
3.12
2.70
2.17
1.53
0.90
0.43
0.19
0.13
0.13
0.03
-0.27
-0.78
-1.50
-2.44
-3.62
-5.07
-6.74
-8.50
-10.15
-11.52
-12.55
-13.32
-14.04
-14.93
-16.17
-17.83
-19.84
-21.98
-23.89
-25.17
-25.42
-24.45
-22.23
-19.00
-15.11
-10.96
-6.86
-3.03
0.36
3.19
5.32
6.70
7.38
7.57
7.56
7.60
7.83
8.23
8.67
9.00
9.14
9.13
9.06
9.07
9.21
9.46
9.74
9.97
10.09
10.13
10.09
9.96
9.68
9.20
8.52
7.70
6.78
5.80
4.73
3.51
2.10
0.53
-1.10
-2.74
-4.35
-6.02
-7.90
-10.14
-12.78
-15.68
-18.50
-20.80
-22.10
-22.04
-20.52
-17.70
-13.95
-9.76
-5.55
-1.64
1.74
4.48
6.54
7.93
8.77
9.26
9.59
9.89
10.13
10.22
10.12
9.83
9.51
9.32
9.37
9.63
10.02
10.41
10.74
11.00
11.21
11.32
11.21
10.78
9.96
8.81
7.46
6.09
4.79
3.58
2.39
1.11
-0.32
-1.92
-3.63
-5.32
-6.89
-8.23
-9.37
-10.36
-11.39
-12.70
-14.51
-16.90
-19.70
-22.47
-24.54
-25.24
-24.14
-21.19
-16.76
-11.56
-6.31
-1.59
2.28
5.28
7.57
9.33
10.69
11.72
12.44
12.87
13.07
13.11
13.08
12.98
12.77
12.41
11.94
11.47
11.20
11.28
11.73
12.38
12.95
13.17
12.89
12.13
11.09
9.96
8.91
8.02
7.30
6.68
6.08
5.35
4.34
2.91
1.06
-1.08
-3.23
-5.08
-6.47
-7.44
-8.26
-9.32
-10.91
-13.14
-15.90
-18.91
-21.81
-24.25
-25.93
-26.56
-25.92
-23.86
-20.42
-15.92
-10.83
-5.77
-1.23
2.51
5.44
7.76
9.66
11.28
12.61
13.54
14.02
14.10
13.94
13.73
13.55
13.40
13.17
12.82
12.36
11.94
11.72
11.80
12.13
12.54
12.79
12.66
12.04
10.93
9.46
7.82
6.19
4.69
3.36
2.15
0.98
-0.21
-1.47
-2.78
-4.12
-5.48
-6.89
-8.39
-10.04
-11.92
-14.07
-16.52
-19.24
-22.13
-24.95
-27.31
-28.73
-28.80
-27.36
-24.48
-20.53
-15.99
-11.30
-6.78
-2.59
1.21
4.55
7.36
9.54
11.12
12.18
12.90
13.44
13.86
14.13
14.12
13.78
13.19
12.56
12.19
12.31
12.92
13.83
14.65
15.05
14.88
14.21
13.32
12.48
11.85
11.41
10.94
10.19
9.00
7.33
5.33
3.23
1.26
-0.46
-1.92
-3.20
-4.39
-5.55
-6.70
-7.88
-9.15
-10.65
-12.48
-14.61
-16.88
-18.94
-20.47
-21.23
-21.18
-20.43
-19.13
-17.35
-15.08
-12.25
-8.86
-5.10
-1.30
2.12
4.82
6.67
7.75
8.32
8.62
8.86
9.10
9.34
9.55
9.74
9.97
10.30
10.74
11.24
11.72
12.11
12.37
12.53
12.58
12.49
12.15
11.47
10.42
9.10
7.67
6.29
5.03
3.78
2.41
0.82
-0.99
-2.87
-4.67
-6.28
-7.72
-9.11
-10.58
-12.23
-14.13
-16.31
-18.83
-21.67
-24.64
-27.32
-29.11
-29.36
-27.71
-24.18
-19.25
-13.67
-8.21
-3.42
0.44
3.42
5.66
7.36
8.62
9.51
10.11
10.49
10.71
10.81
10.78
10.62
10.37
10.11
9.96
10.03
10.37
10.94
11.63
12.25
12.65
12.69
12.33
11.63
10.70
9.68
8.64
7.51
6.12
4.33
2.08
-0.49
-3.15
-5.59
-7.62
-9.23
-10.56
-11.88
-13.49
-15.60
-18.26
-21.26
-24.15
-26.34
-27.20
-26.29
-23.51
-19.13
-13.71
-7.93
-2.39
2.49
6.49
9.53
11.72
13.19
14.16
14.81
15.29
15.64
15.87
15.96
15.92
15.82
15.70
15.59
15.48
15.35
15.15
14.94
14.71
14.48
14.15
13.62
12.76
11.55
10.10
8.59
7.23
6.08
5.08
4.04
2.74
1.09
-0.88
-3.01
-5.11
-7.07
-8.85
-10.51
-12.13
-13.77
-15.53
-17.52
-19.91
-22.73
-25.78
-28.55
-30.28
-30.25
-28.03
-23.74
-17.96
-11.54
-5.30
0.20
4.72
8.27
11.00
13.02
14.46
15.41
15.96
16.23
16.30
16.25
16.12
15.98
15.85
15.77
15.76
15.85
16.03
16.30
16.59
16.80
16.76
16.37
15.56
14.36
12.85
11.18
9.45
7.78
6.22
4.80
3.50
2.26
0.94
-0.55
-2.28
-4.21
-6.22
-8.15
-9.93
-11.56
-13.15
-14.89
-16.99
-19.62
-22.83
-26.46
-30.08
-33.03
-34.55
-34.06
-31.34
-26.66
-20.69
-14.28
-8.22
-2.99
1.24
4.53
7.06
8.97
10.34
11.27
11.89
12.31
12.71
13.16
13.70
14.30
14.89
15.41
15.80
16.05
16.16
16.16
16.07
15.90
15.66
15.30
14.78
14.05
13.08
11.89
10.55
9.15
7.78
6.45
5.09
3.60
1.89
-0.09
-2.27
-4.49
-6.61
-8.47
-10.02
-11.34
-12.59
-14.01
-15.87
-18.30
-21.29
-24.56
-27.63
-29.86
-30.66
-29.58
-26.49
-21.60
-15.42
-8.67
-2.06
3.84
8.66
12.29
14.78
16.28
16.96
17.04
16.77
16.40
16.14
16.08
16.16
16.19
15.98
15.46
14.73
13.99
13.49
13.42
13.77
14.38
14.98
15.30
15.16
14.54
13.51
12.17
10.66
9.05
7.42
5.81
4.28
2.84
1.44
-0.04
-1.72
-3.60
-5.57
-7.40
-8.88
-9.99
-10.89
-11.90
-13.35
-15.43
-18.14
-21.17
-23.98
-25.93
-26.40
-24.98
-21.65
-16.80
-11.14
-5.43
-0.32
3.88
7.11
9.50
11.17
12.24
12.79
12.95
12.87
12.69
12.46
12.18
11.82
11.40
11.01
10.76
10.71
10.86
11.15
11.47
11.74
11.90
11.84
11.43
10.60
9.33
7.77
6.12
4.59
3.27
2.09
0.88
-0.46
-1.96
-3.52
-5.05
-6.45
-7.75
-9.02
-10.39
-12.00
-13.95
-16.27
-18.90
-21.62
-24.06
-25.70
-26.06
-24.79
-21.84
-17.52
-12.39
-7.11
-2.27
1.72
4.73
6.81
8.14
8.89
9.16
9.03
8.59
7.98
7.39
6.97
6.79
6.80
6.89
6.97
7.00
7.05
7.18
7.45
7.80
8.12
8.26
8.07
7.46
6.35
4.73
2.61
0.09
-2.63
-5.30
-7.66
-9.53
-10.88
-11.85
-12.67
-13.60
-14.84
-16.44
-18.32
-20.16
-21.53
-21.90
-20.84
-18.17
-14.08
-9.08
-3.87
0.89
4.78
7.64
9.57
10.75
11.36
11.54
11.39
11.00
10.47
9.89
9.30
8.76
8.28
7.93
7.72
7.68
7.75
7.84
7.87
7.75
7.50
7.09
6.52
5.80
4.91
3.91
2.84
1.72
0.51
-0.87
-2.49
-4.35
-6.37
-8.41
-10.34
-12.13
-13.87
-15.73
-17.91
-20.53
-23.54
-26.68
-29.47
-31.31
-31.66
-30.17
-26.85
-22.09
-16.51
-10.78
-5.43
-0.69
3.42
7.06
10.37
13.42
16.19
18.65
20.75
22.47
23.84
24.87
25.58
25.91
25.83
25.30
24.32
22.97
21.41
19.84
18.38
17.10
15.88
14.53
12.87
10.87
8.64
6.42
4.41
2.65
1.02
-0.68
-2.62
-4.78
-7.00
-9.03
-10.68
-11.90
-12.80
-13.59
-14.52
-15.79
-17.52
-19.69
-22.09
-24.26
-25.59
-25.46
-23.44
-19.57
-14.35
-8.62
-3.31
0.95
3.92
5.77
6.88
7.65
8.34
9.05
9.75
10.34
10.78
11.03
11.10
11.02
10.82
10.51
10.13
9.72
9.38
9.25
9.39
9.77
10.18
10.31
9.90
8.88
7.42
5.86
4.55
3.62
2.96
2.33
1.49
0.35
-1.02
-2.47
-3.89
-5.25
-6.60
-7.94
-9.25
-10.49
-11.67
-12.95
-14.54
-16.65
-19.23
-21.97
-24.30
-25.57
-25.28
-23.28
-19.78
-15.28
-10.42
-5.70
-1.42
2.32
5.51
8.16
10.20
11.53
12.14
12.10
11.63
10.96
10.29
9.72
9.25
8.82
8.42
8.08
7.91
8.04
8.53
9.34
10.32
11.21
11.73
11.66
10.94
9.69
8.20
6.75
5.57
4.73
4.15
3.65
3.03
2.17
0.97
-0.52
-2.21
-3.93
-5.49
-6.75
-7.69
-8.46
-9.34
-10.69
-12.74
-15.46
-18.46
-21.07
-22.54
-22.29
-20.18
-16.55
-12.12
-7.68
-3.84
-0.86
1.35
3.03
4.40
5.58
6.53
7.21
7.62
7.82
7.89
7.83
7.63
7.25
6.78
6.37
6.21
6.40
6.89
7.51
8.03
8.30
8.28
8.00
7.50
6.77
5.81
4.62
3.27
1.88
0.58
-0.59
-1.68
-2.78
-3.96
-5.24
-6.55
-7.80
-8.93
-9.95
-10.96
-12.15
-13.72
-15.77
-18.18
-20.53
-22.20
-22.53
-21.10
-17.95
-13.60
-8.79
-4.27
-0.53
2.30
4.32
5.68
6.51
6.86
6.81
6.48
6.02
5.56
5.14
4.74
4.35
3.99
3.72
3.59
3.64
3.78
3.94
4.04
4.05
3.99
3.85
3.59
3.13
2.43
1.49
0.37
-0.86
-2.12
-3.39
-4.67
-5.96
-7.24
-8.48
-9.66
-10.80
-11.90
-13.05
-14.27
-15.57
-16.84
-17.84
-18.23
-17.67
-15.89
-12.86
-8.87
-4.42
-0.17
3.33
5.76
7.15
7.76
7.98
8.13
8.33
8.56
8.67
8.53
8.12
7.51
6.85
6.31
6.02
5.99
6.19
6.51
6.87
7.21
7.44
7.45
7.11
6.30
5.01
3.35
1.59
0.02
-1.18
-2.01
-2.67
-3.40
-4.35
-5.50
-6.69
-7.79
-8.85
-10.06
-11.67
-13.79
-16.23
-18.56
-20.28
-20.96
-20.45
-18.82
-16.29
-13.11
-9.50
-5.65
-1.80
1.77
4.81
7.11
8.61
9.41
9.72
9.77
9.76
9.78
9.80
9.75
9.54
9.17
8.74
8.39
8.25
8.35
8.62
8.90
9.05
9.00
8.75
8.35
7.87
7.31
6.61
5.66
4.44
2.99
1.45
0.01
-1.23
-2.28
-3.28
-4.38
-5.66
-7.04
-8.36
-9.52
-10.60
-11.82
-13.45
-15.57
-17.94
-20.04
-21.22
-20.98
-19.18
-16.05
-12.10
-7.89
-3.82
-0.10
3.26
6.26
8.84
10.85
12.12
12.60
12.43
11.88
11.30
10.88
10.68
10.60
10.54
10.47
10.42
10.51
10.76
11.12
11.46
11.65
11.59
11.27
10.72
9.93
8.90
7.63
6.18
4.70
3.35
2.22
1.25
0.33
-0.71
-1.93
-3.28
-4.63
-5.83
-6.79
-7.55
-8.21
-8.93
-9.86
-11.15
-12.89
-15.06
-17.43
-19.54
-20.85
-20.82
-19.21
-16.15
-12.06
-7.56
-3.19
0.66
3.81
6.23
7.95
9.02
9.53
9.64
9.53
9.37
9.30
9.34
9.46
9.60
9.70
9.75
9.78
9.77
9.72
9.55
9.24
8.79
8.22
7.61
6.97
6.31
5.60
4.83
4.07
3.37
2.80
2.30
1.75
0.98
-0.09
-1.39
-2.73
-3.89
-4.77
-5.48
-6.27
-7.36
-8.80
-10.44
-12.09
-13.62
-15.12
-16.74
-18.48
-20.05
-20.90
-20.47
-18.44
-14.97
-10.65
-6.24
-2.35
0.72
3.02
4.72
6.03
7.02
7.68
8.02
8.12
8.13
8.17
8.32
8.52
8.65
8.59
8.28
7.79
7.23
6.77
6.46
6.30
6.22
6.12
5.94
5.69
5.39
5.05
4.67
4.23
3.66
2.89
1.88
0.62
-0.82
-2.35
-3.82
-5.12
-6.22
-7.14
-7.97
-8.82
-9.80
-11.00
-12.45
-14.04
-15.55
-16.60
-16.77
-15.74
-13.44
-10.06
-6.09
-2.07
1.54
4.47
6.70
8.34
9.53
10.34
10.78
10.82
10.47
9.86
9.18
8.62
8.24
8.01
7.84
7.64
7.43
7.35
7.50
7.88
8.34
8.64
8.53
7.95
7.00
5.88
4.77
3.76
2.80
1.78
0.66
-0.56
-1.79
-2.96
-4.02
-4.99
-5.92
-6.89
-7.89
-8.92
-10.00
-11.23
-12.77
-14.75
-17.16
-19.72
-21.91
-23.10
-22.74
-20.66
-17.10
-12.65
-7.99
-3.69
-0.07
2.87
5.26
7.24
8.88
10.13
10.96
11.43
11.64
11.71
11.71
11.60
11.35
10.96
10.53
10.27
10.34
10.76
11.36
11.88
12.12
12.05
11.78
11.47
11.17
10.76
10.07
9.02
7.67
6.24
4.93
3.81
2.77
1.60
0.16
-1.55
-3.34
-5.01
-6.42
-7.57
-8.60
-9.69
-10.96
-12.46
-14.15
-15.97
-17.82
-19.59
-21.10
-22.05
-22.16
-21.17
-19.00
-15.79
-11.88
-7.67
-3.60
0.04
3.01
5.24
6.73
7.55
7.86
7.84
7.67
7.47
7.30
7.12
6.93
6.71
6.55
6.55
6.77
7.17
7.62
7.95
8.00
7.72
7.11
6.28
5.32
4.34
3.41
2.60
1.92
1.34
0.74
-0.04
-1.18
-2.69
-4.42
-6.11
-7.52
-8.54
-9.28
-10.01
-11.01
-12.43
-14.20
-16.04
-17.55
-18.32
-18.01
-16.50
-13.88
-10.41
-6.48
-2.50
1.18
4.29
6.71
8.41
9.43
9.86
9.82
9.45
8.86
8.17
7.50
6.93
6.52
6.30
6.22
6.26
6.37
6.56
6.82
7.10
7.31
7.33
7.06
6.46
5.62
4.63
3.61
2.58
1.49
0.28
-1.07
-2.49
-3.90
-5.19
-6.33
-7.34
-8.25
-9.16
-10.19
-11.48
-13.16
-15.27
-17.64
-19.89
-21.47
-21.84
-20.71
-18.15
-14.52
-10.36
-6.15
-2.22
1.29
4.31
6.76
8.55
9.62
10.03
9.97
9.72
9.53
9.51
9.60
9.68
9.57
9.21
8.65
8.01
7.44
7.09
7.00
7.12
7.32
7.37
7.08
6.34
5.17
3.69
2.07
0.41
-1.21
-2.81
-4.42
-6.05
-7.73
-9.42
-11.12
-12.77
-14.39
-15.97
-17.59
-19.36
-21.40
-23.81
-26.57
-29.57
-32.54
-35.14
-36.97
-37.69
-37.04
-34.94
-31.47
-26.90
-21.55
-15.79
-9.95
-4.31
0.94
5.71
10.00
13.94
17.67
21.26
24.66
27.65
29.98
31.48
32.12
32.04
31.47
30.65
29.75
28.82
27.84
26.75
25.52
24.16
22.73
21.25
19.71
18.09
16.34
14.51
12.70
11.07
9.66
8.41
7.15
5.68
3.89
1.85
-0.27
-2.27
-4.05
-5.65
-7.20
-8.88
-10.83
-13.08
-15.58
-18.14
-20.45
-22.11
-22.65
-21.73
-19.20
-15.26
-10.40
-5.33
-0.73
2.89
5.33
6.73
7.45
7.93
8.45
9.13
9.87
10.54
11.06
11.44
11.74
11.95
12.00
11.78
11.23
10.50
9.87
9.64
9.95
10.64
11.28
11.44
10.83
9.49
7.78
6.11
4.82
3.99
3.47
2.99
2.30
1.30
0.01
-1.47
-3.01
-4.54
-6.02
-7.46
-8.86
-10.22
-11.59
-13.07
-14.74
-16.63
-18.59
-20.30
-21.32
-21.21
-19.71
-16.86
-12.97
-8.58
-4.21
-0.34
2.72
4.89
6.21
6.88
7.15
7.26
7.40
7.61
7.84
8.03
8.10
8.06
7.97
7.89
7.87
7.93
8.10
8.34
8.62
8.84
8.87
8.63
8.09
7.31
6.40
5.47
4.57
3.65
2.63
1.44
0.07
-1.42
-2.91
-4.32
-5.56
-6.66
-7.68
-8.77
-10.08
-11.70
-13.61
-15.62
-17.47
-18.84
-19.40
-18.91
-17.21
-14.35
-10.55
-6.23
-1.92
1.86
4.72
6.55
7.50
7.88
8.02
8.08
8.08
7.94
7.65
7.28
7.01
6.99
7.28
7.79
8.37
8.92
9.47
10.16
11.15
12.46
13.93
15.20
15.93
15.89
15.08
13.71
12.10
10.51
9.05
7.67
6.25
4.69
3.00
1.24
-0.47
-2.07
-3.58
-5.08
-6.66
-8.36
-10.17
-12.04
-13.96
-15.89
-17.84
-19.70
-21.27
-22.18
-22.04
-20.56
-17.74
-13.89
-9.61
-5.58
-2.28
0.11
1.72
2.83
3.74
4.57
5.32
5.98
6.52
7.02
7.50
7.90
8.10
7.97
7.51
6.83
6.17
5.74
5.62
5.75
5.98
6.13
6.09
5.76
5.11
4.14
2.92
1.59
0.32
-0.74
-1.57
-2.25
-2.89
-3.67
-4.72
-6.18
-8.12
-10.52
-13.13
-15.50
-17.04
-17.21
-15.78
-12.95
-9.32
-5.69
-2.79
-1.04
-0.39
-0.46
-0.63
-0.36
0.65
2.38
4.54
6.74
8.68
10.25
11.47
12.46
13.22
13.67
13.73
13.38
12.75
12.08
11.59
11.40
11.43
11.58
11.65
11.53
11.18
10.62
9.93
9.22
8.65
8.34
8.33
8.51
8.65
8.47
7.80
6.63
5.14
3.62
2.31
1.27
0.40
-0.46
-1.45
-2.58
-3.76
-4.86
-5.85
-6.78
-7.77
-8.89
-10.11
-11.32
-12.39
-13.30
-14.19
-15.33
-16.97
-19.19
-21.81
-24.33
-26.15
-26.69
-25.66
-23.14
-19.59
-15.67
-12.01
-9.01
-6.77
-5.15
-3.92
-2.87
-1.94
-1.15
-0.54
-0.17
-0.04
-0.15
-0.49
-1.03
-1.77
-2.63
-3.56
-4.49
-5.39
-6.23
-6.98
-7.57
-7.90
-7.90
-7.56
-6.86
-5.89
-4.70
-3.32
-1.73
0.14
2.41
5.11
8.16
11.29
14.11
16.20
17.25
17.19
16.18
14.50
12.45
10.26
8.03
5.81
3.60
1.36
-0.93
-3.33
-5.79
-8.16
-10.06
-11.07
-10.83
-9.25
-6.59
-3.34
-0.05
2.89
5.35
7.37
9.03
10.29
11.06
11.19
10.67
9.63
8.37
7.24
6.49
6.25
6.43
6.82
7.18
7.36
7.36
7.28
7.24
7.27
7.29
7.13
6.64
5.81
4.76
3.69
2.75
2.02
1.40
0.79
0.06
-0.82
-1.87
-3.05
-4.31
-5.62
-6.92
-8.20
-9.48
-10.86
-12.43
-14.16
-15.89
-17.25
-17.80
-17.18
-15.26
-12.24
-8.51
-4.53
-0.70
2.65
5.34
7.22
8.27
8.53
8.20
7.54
6.81
6.22
5.86
5.73
5.82
6.08
6.45
6.85
7.19
7.35
7.33
7.18
6.97
6.78
6.60
6.36
5.97
5.40
4.63
3.74
2.79
1.82
0.84
-0.19
-1.31
-2.53
-3.81
-5.08
-6.27
-7.33
-8.33
-9.36
-10.62
-12.27
-14.36
-16.75
-19.09
-20.87
-21.60
-20.97
-18.92
-15.71
-11.82
-7.78
-4.06
-0.96
1.47
3.33
4.81
6.11
7.34
8.57
9.77
10.84
11.68
12.19
12.31
12.08
11.66
11.23
11.02
11.14
11.58
12.18
12.74
13.07
13.08
12.73
12.04
11.04
9.80
8.41
7.00
5.75
4.75
4.01
3.46
2.95
2.38
1.68
0.89
0.10
-0.56
-1.05
-1.39
-1.79
-2.56
-4.00
-6.33
-9.48
-13.12
-16.68
-19.52
-21.09
-21.05
-19.37
-16.32
-12.39
-8.15
-4.13
-0.65
2.16
4.41
6.32
8.04
9.63
10.99
11.99
12.47
12.37
11.72
10.60
9.16
7.56
5.98
4.59
3.48
2.70
2.21
1.90
1.63
1.24
0.60
-0.35
-1.54
-2.79
-3.87
-4.58
-4.88
-4.91
-4.93
-5.17
-5.71
-6.52
-7.45
-8.34
-9.15
-9.90
-10.66
-11.54
-12.62
-14.01
-15.78
-17.93
-20.30
-22.54
-24.17
-24.68
-23.77
-21.39
-17.86
-13.70
-9.49
-5.73
-2.67
-0.40
1.22
2.37
3.24
3.94
4.54
5.00
5.26
5.27
5.03
4.59
3.97
3.24
2.38
1.44
0.47
-0.42
-1.13
-1.65
-2.11
-2.72
-3.65
-4.93
-6.36
-7.62
-8.41
-8.56
-8.04
-6.93
-5.30
-3.23
-0.85
1.60
3.78
5.33
6.03
5.94
5.31
4.49
3.69
2.92
1.94
0.48
-1.58
-4.09
-6.67
-8.79
-9.93
-9.76
-8.25
-5.59
-2.16
1.60
5.29
8.62
11.38
13.45
14.77
15.36
15.28
14.73
13.96
13.18
12.50
11.94
11.41
10.83
10.21
9.60
9.09
8.74
8.56
8.53
8.61
8.79
9.04
9.30
9.47
9.41
9.04
8.33
7.38
6.33
5.25
4.15
2.93
1.50
-0.15
-1.87
-3.40
-4.46
-4.97
-5.11
-5.31
-6.07
-7.69
-10.06
-12.72
-14.97
-16.21
-16.16
-14.89
-12.72
-10.04
-7.15
-4.17
-1.17
1.77
4.48
6.68
8.18
8.92
9.06
8.82
8.45
8.06
7.67
7.24
6.81
6.51
6.48
6.78
7.29
7.78
7.97
7.74
7.15
6.43
5.87
5.62
5.64
5.73
5.63
5.13
4.22
3.05
1.87
0.86
0.08
-0.59
-1.32
-2.24
-3.37
-4.62
-5.86
-6.99
-7.96
-8.75
-9.25
-9.24
-8.46
-6.68
-3.88
-0.26
3.76
7.66
11.01
13.49
15.06
15.82
16.04
15.96
15.77
15.52
15.17
14.68
14.03
13.35
12.85
12.84
13.57
15.24
17.91
21.47
25.54
29.44
32.30
33.22
31.58
27.30
20.89
13.28
5.51
-1.64
-7.78
-12.89
-17.14
-20.69
-23.59
-25.88
-27.63
-29.09
-30.54
-32.25
-34.29
-36.53
-38.56
-39.89
-40.05
-38.80
-36.14
-32.37
-27.91
-23.24
-18.75
-14.68
-11.18
-8.36
-6.25
-4.87
-4.10
-3.71
-3.41
-2.89
-2.00
-0.73
0.81
2.48
4.09
5.51
6.63
7.39
7.83
8.07
8.33
8.75
9.35
9.96
10.28
10.02
9.08
7.58
5.81
4.08
2.57
1.26
0.00
-1.34
-2.82
-4.35
-5.84
-7.20
-8.46
-9.68
-10.97
-12.41
-14.09
-16.11
-18.52
-21.28
-24.11
-26.55
-28.03
-28.12
-26.73
-24.18
-21.04
-17.92
-15.23
-13.13
-11.54
-10.27
-9.07
-7.72
-6.04
-3.86
-1.14
2.12
5.79
9.69
13.58
17.25
20.50
23.17
25.22
26.72
27.81
28.67
29.37
29.83
29.87
29.29
28.03
26.22
24.15
22.09
20.25
18.64
17.16
15.66
14.05
12.30
10.44
8.50
6.53
4.55
2.61
0.79
-0.92
-2.55
-4.20
-5.99
-8.00
-10.25
-12.66
-15.02
-17.00
-18.20
-18.28
-17.02
-14.54
-11.21
-7.58
-4.15
-1.24
1.12
3.04
4.64
5.97
6.98
7.64
7.97
8.15
8.32
8.56
8.80
8.88
8.69
8.25
7.73
7.38
7.37
7.70
8.22
8.65
8.77
8.45
7.72
6.79
5.87
5.13
4.67
4.41
4.16
3.73
2.91
1.62
-0.05
-1.89
-3.64
-5.04
-6.03
-6.72
-7.39
-8.34
-9.79
-11.77
-14.14
-16.60
-18.75
-20.14
-20.38
-19.22
-16.61
-12.87
-8.57
-4.40
-0.92
1.59
3.22
4.29
5.11
5.87
6.60
7.21
7.64
7.90
8.05
8.13
8.18
8.21
8.28
8.47
8.92
9.67
10.64
11.64
12.39
12.66
12.38
11.59
10.49
9.29
8.13
7.05
5.99
4.84
3.47
1.87
0.09
-1.73
-3.44
-4.93
-6.18
-7.26
-8.29
-9.42
-10.78
-12.48
-14.54
-16.88
-19.24
-21.27
-22.53
-22.67
-21.50
-19.07
-15.67
-11.75
-7.80
-4.25
-1.30
1.01
2.85
4.44
5.94
7.36
8.60
9.50
9.99
10.10
9.97
9.77
9.56
9.34
9.06
8.69
8.34
8.15
8.26
8.68
9.28
9.81
10.02
9.77
9.06
8.03
6.84
5.59
4.33
3.00
1.58
0.08
-1.40
-2.75
-3.93
-4.95
-5.85
-6.71
-7.54
-8.31
-9.05
-9.84
-10.88
-12.33
-14.23
-16.42
-18.48
-19.89
-20.21
-19.20
-16.92
-13.69
-9.97
-6.23
-2.85
-0.03
2.14
3.67
4.59
4.99
4.95
4.66
4.31
4.08
4.04
4.14
4.27
4.27
4.07
3.68
3.15
2.54
1.87
1.19
0.47
-0.27
-1.03
-1.89
-2.96
-4.32
-5.98
-7.80
-9.54
-10.93
-11.76
-11.98
-11.66
-10.95
-9.96
-8.73
-7.22
-5.37
-3.19
-0.87
1.33
3.05
4.06
4.26
3.73
2.70
1.45
0.29
-0.49
-0.62
0.03
1.50
3.60
6.05
8.53
10.75
12.53
13.79
14.54
14.81
14.72
14.43
14.13
13.95
13.89
13.86
13.70
13.32
12.77
12.15
11.61
11.21
10.93
10.68
10.41
10.11
9.77
9.40
8.92
8.28
7.44
6.42
5.34
4.32
3.46
2.73
2.01
1.13
0.00
-1.35
-2.76
-4.02
-4.98
-5.60
-6.04
-6.49
-7.22
-8.37
-10.01
-12.03
-14.21
-16.18
-17.55
-17.96
-17.27
-15.54
-13.00
-10.00
-6.81
-3.65
-0.68
1.92
3.96
5.33
6.04
6.30
6.41
6.61
6.96
7.35
7.59
7.53
7.19
6.72
6.28
6.01
5.93
6.00
6.15
6.35
6.54
6.65
6.61
6.30
5.69
4.81
3.78
2.71
1.72
0.84
0.03
-0.79
-1.69
-2.71
-3.84
-5.06
-6.36
-7.80
-9.43
-11.26
-13.10
-14.63
-15.44
-15.17
-13.71
-11.22
-8.11
-4.86
-1.86
0.68
2.70
4.27
5.46
6.35
7.02
7.54
7.94
8.20
8.23
7.97
7.43
6.73
6.04
5.51
5.19
5.02
4.92
4.80
4.64
4.43
4.18
3.89
3.56
3.20
2.78
2.22
1.46
0.41
-0.90
-2.38
-3.86
-5.18
-6.29
-7.22
-8.06
-8.90
-9.86
-11.00
-12.42
-14.09
-15.86
-17.37
-18.12
-17.72
-15.99
-13.09
-9.47
-5.70
-2.25
0.59
2.75
4.29
5.35
6.12
6.77
7.43
8.16
8.87
9.41
9.63
9.44
8.89
8.16
7.46
6.96
6.73
6.73
6.82
6.82
6.59
6.04
5.22
4.24
3.25
2.40
1.74
1.21
0.66
-0.05
-1.04
-2.34
-3.81
-5.28
-6.55
-7.52
-8.27
-9.02
-10.05
-11.55
-13.51
-15.67
-17.58
-18.77
-18.91
-17.90
-15.90
-13.24
-10.24
-7.15
-4.09
-1.13
1.65
4.08
5.99
7.27
7.95
8.20
8.29
8.41
8.62
8.87
9.01
8.96
8.73
8.45
8.26
8.24
8.38
8.54
8.57
8.33
7.81
7.10
6.35
5.69
5.16
4.67
4.12
3.43
2.59
1.67
0.67
-0.44
-1.74
-3.25
-4.89
-6.43
-7.70
-8.69
-9.59
-10.73
-12.34
-14.40
-16.57
-18.35
-19.28
-19.11
-17.85
-15.65
-12.75
-9.36
-5.70
-2.02
1.37
4.18
6.19
7.38
7.89
8.00
8.02
8.18
8.57
9.14
9.75
10.23
10.44
10.35
10.00
9.55
9.15
8.91
8.86
8.95
9.08
9.10
8.92
8.47
7.74
6.78
5.67
4.53
3.43
2.39
1.38
0.36
-0.73
-1.89
-3.05
-4.11
-5.02
-5.81
-6.63
-7.69
-9.21
-11.28
-13.82
-16.52
-18.90
-20.39
-20.57
-19.24
-16.59
-13.13
-9.48
-6.18
-3.46
-1.28
0.55
2.21
3.72
5.01
5.95
6.55
6.93
7.25
7.59
7.93
8.15
8.20
8.13
8.06
8.20
8.62
9.30
10.06
10.72
11.08
11.04
10.55
9.65
8.47
7.16
5.90
4.81
3.94
3.27
2.66
1.99
1.14
0.09
-1.11
-2.34
-3.46
-4.37
-5.09
-5.73
-6.45
-7.44
-8.80
-10.53
-12.44
-14.21
-15.46
-15.81
-15.00
-13.02
-10.06
-6.54
-2.90
0.44
3.22
5.31
6.73
7.55
7.91
7.98
7.97
8.03
8.22
8.50
8.78
8.99
9.12
9.23
9.34
9.45
9.44
9.22
8.78
8.19
7.59
7.11
6.74
6.40
5.93
5.24
4.34
3.33
2.34
1.48
0.77
0.13
-0.51
-1.23
-2.06
-2.97
-3.95
-5.07
-6.42
-8.07
-9.95
-11.75
-13.02
-13.29
-12.29
-10.12
-7.16
-4.00
-1.12
1.15
2.78
3.85
4.50
4.82
4.88
4.75
4.51
4.28
4.13
4.03
3.91
3.70
3.39
3.08
2.88
2.89
3.12
3.48
3.78
3.88
3.70
3.24
2.58
1.83
1.06
0.35
-0.35
-1.08
-1.93
-2.94
-4.08
-5.20
-6.19
-6.94
-7.46
-7.92
-8.56
-9.60
-11.16
-13.13
-15.13
-16.64
-17.14
-16.29
-14.10
-10.94
-7.37
-3.99
-1.23
0.77
2.10
2.96
3.54
3.96
4.27
4.46
4.50
4.41
4.24
4.06
3.95
4.01
4.23
4.62
5.13
5.68
6.21
6.59
6.73
6.54
6.00
5.18
4.23
3.34
2.65
2.17
1.78
1.31
0.63
-0.29
-1.37
-2.44
-3.40
-4.27
-5.19
-6.37
-7.96
-9.95
-12.15
-14.26
-15.98
-17.06
-17.37
-16.84
-15.49
-13.40
-10.73
-7.75
-4.74
-2.03
0.16
1.73
2.78
3.51
4.13
4.82
5.57
6.31
6.88
7.17
7.17
6.99
6.78
6.60
6.44
6.20
5.82
5.32
4.84
4.50
4.29
4.11
3.70
2.96
1.93
0.82
-0.12
-0.80
-1.31
-1.92
-2.88
-4.25
-5.92
-7.57
-8.96
-9.95
-10.68
-11.41
-12.46
-14.07
-16.28
-18.94
-21.67
-23.99
-25.43
-25.64
-24.51
-22.20
-19.13
-15.81
-12.79
-10.35
-8.51
-6.85
-4.72
-1.51
3.11
8.97
15.47
21.79
27.26
31.47
34.39
36.16
36.96
36.95
36.27
35.10
33.72
32.41
31.30
30.34
29.31
27.92
26.01
23.56
20.76
17.91
15.28
13.04
11.18
9.56
7.91
6.07
3.99
1.81
-0.23
-1.87
-2.95
-3.45
-3.50
-3.36
-3.36
-3.82
-4.94
-6.72
-8.93
-11.13
-12.83
-13.63
-13.34
-12.05
-10.09
-7.90
-5.91
-4.43
-3.62
-3.43
-3.72
-4.26
-4.88
-5.42
-5.83
-6.10
-6.24
-6.28
-6.24
-6.14
-6.00
-5.88
-5.77
-5.70
-5.64
-5.55
-5.41
-5.18
-4.88
-4.54
-4.22
-3.96
-3.80
-3.80
-3.96
-4.31
-4.85
-5.54
-6.30
-7.09
-7.89
-8.74
-9.70
-10.79
-11.95
-13.07
-14.07
-14.97
-15.89
-16.96
-18.17
-19.30
-19.99
-19.83
-18.59
-16.26
-13.12
-9.54
-5.90
-2.46
0.62
3.21
5.22
6.57
7.22
7.31
7.05
6.74
6.63
6.88
7.49
8.31
9.12
9.70
9.93
9.80
9.39
8.82
8.24
7.74
7.36
7.09
6.91
6.77
6.66
6.57
6.44
6.19
5.73
5.01
4.08
3.05
2.09
1.28
0.60
-0.08
-0.95
-2.10
-3.52
-5.00
-6.32
-7.27
-7.68
-7.51
-6.72
-5.32
-3.40
-1.14
1.20
3.30
4.91
5.97
6.56
6.90
7.18
7.48
7.76
7.86
7.68
7.24
6.69
6.25
6.10
6.22
6.45
6.54
6.31
5.77
5.12
4.66
4.50
4.58
4.58
4.19
3.22
1.75
0.08
-1.46
-2.67
-3.56
-4.29
-5.06
-5.90
-6.76
-7.48
-8.00
-8.40
-8.79
-9.28
-9.76
-9.95
-9.49
-8.14
-5.90
-3.03
0.07
3.06
5.71
7.96
9.78
11.12
11.90
12.07
11.69
10.92
10.02
9.19
8.55
8.11
7.83
7.67
7.57
7.48
7.35
7.17
6.99
6.85
6.78
6.70
6.43
5.80
4.73
3.32
1.77
0.30
-0.98
-2.07
-3.04
-3.96
-4.89
-5.89
-7.05
-8.49
-10.23
-12.15
-13.88
-14.98
-15.00
-13.75
-11.31
-8.06
-4.51
-1.17
1.62
3.70
5.09
5.86
6.12
5.92
5.34
4.51
3.66
3.04
2.82
3.01
3.41
3.77
3.88
3.67
3.20
2.62
2.04
1.57
1.21
0.97
0.74
0.39
-0.27
-1.33
-2.74
-4.23
-5.47
-6.23
-6.53
-6.63
-6.88
-7.58
-8.79
-10.39
-12.16
-13.85
-15.22
-16.03
-16.01
-14.95
-12.78
-9.67
-6.02
-2.38
0.78
3.10
4.51
5.13
5.24
5.16
5.16
5.34
5.70
6.12
6.46
6.62
6.61
6.46
6.19
5.85
5.44
4.98
4.50
4.02
3.57
3.17
2.79
2.42
1.98
1.40
0.63
-0.32
-1.36
-2.39
-3.29
-4.06
-4.78
-5.59
-6.57
-7.76
-9.13
-10.59
-12.06
-13.42
-14.47
-14.93
-14.54
-13.23
-11.05
-8.31
-5.33
-2.46
0.10
2.24
3.92
5.19
6.09
6.68
7.03
7.15
7.10
6.93
6.75
6.66
6.73
6.93
7.11
7.13
6.91
6.47
5.96
5.55
5.31
5.24
5.27
5.34
5.44
5.53
5.54
5.31
4.72
3.73
2.51
1.35
0.49
0.04
-0.13
-0.30
-0.79
-1.82
-3.45
-5.60
-8.10
-10.72
-13.10
-14.84
-15.54
-14.94
-13.05
-10.18
-6.84
-3.60
-0.88
1.13
2.47
3.31
3.85
4.26
4.64
5.09
5.66
6.37
7.16
7.86
8.21
8.00
7.19
5.92
4.54
3.45
2.92
3.04
3.63
4.39
4.95
5.00
4.40
3.17
1.59
0.03
-1.15
-1.76
-1.84
-1.67
-1.60
-1.89
-2.63
-3.71
-4.94
-6.10
-7.07
-7.85
-8.56
-9.40
-10.57
-12.15
-14.05
-15.97
-17.44
-18.01
-17.42
-15.64
-12.91
-9.65
-6.28
-3.16
-0.50
1.67
3.40
4.81
5.96
6.86
7.46
7.76
7.78
7.64
7.51
7.51
7.63
7.79
7.85
7.80
7.71
7.77
8.10
8.68
9.28
9.62
9.50
8.92
8.06
7.18
6.49
5.97
5.49
4.82
3.84
2.57
1.17
-0.20
-1.42
-2.51
-3.53
-4.52
-5.46
-6.30
-7.03
-7.79
-8.81
-10.32
-12.37
-14.76
-17.01
-18.52
-18.81
-17.73
-15.45
-12.42
-9.11
-5.91
-3.01
-0.46
1.72
3.52
4.88
5.75
6.16
6.20
6.02
5.77
5.52
5.30
5.13
5.02
5.00
5.10
5.32
5.65
6.03
6.37
6.63
6.74
6.72
6.59
6.41
6.25
6.09
5.88
5.49
4.80
3.78
2.51
1.17
-0.06
-1.06
-1.83
-2.49
-3.17
-3.98
-4.93
-5.97
-7.03
-8.10
-9.21
-10.44
-11.83
-13.28
-14.62
-15.54
-15.72
-14.98
-13.30
-10.91
-8.17
-5.48
-3.10
-1.16
0.44
1.83
3.13
4.31
5.28
5.90
6.13
6.07
5.90
5.84
6.00
6.33
6.70
6.93
6.94
6.74
6.46
6.24
6.16
6.20
6.28
6.29
6.15
5.83
5.32
4.66
3.90
3.12
2.40
1.81
1.34
0.90
0.32
-0.50
-1.63
-2.96
-4.30
-5.46
-6.36
-7.04
-7.69
-8.52
-9.65
-11.08
-12.63
-13.99
-14.84
-14.88
-13.98
-12.15
-9.60
-6.61
-3.54
-0.70
1.71
3.56
4.89
5.76
6.25
6.44
6.41
6.27
6.18
6.29
6.65
7.19
7.67
7.87
7.58
6.80
5.63
4.27
2.93
1.72
0.69
-0.13
-0.74
-1.14
-1.38
-1.51
-1.61
-1.70
-1.79
-1.87
-1.97
-2.12
-2.32
-2.54
-2.74
-2.91
-3.09
-3.39
-3.89
-4.62
-5.59
-6.77
-8.14
-9.63
-11.06
-12.10
-12.35
-11.49
-9.46
-6.57
-3.35
-0.38
2.00
3.73
5.02
6.11
7.12
7.98
8.52
8.62
8.33
7.86
7.45
7.28
7.32
7.40
7.35
7.07
6.64
6.22
5.91
5.76
5.69
5.62
5.49
5.30
5.07
4.75
4.25
3.49
2.45
1.26
0.09
-0.93
-1.78
-2.59
-3.52
-4.69
-6.13
-7.73
-9.32
-10.65
-11.51
-11.73
-11.24
-10.10
-8.49
-6.58
-4.53
-2.47
-0.49
1.30
2.76
3.77
4.28
4.37
4.22
4.03
3.93
3.94
3.99
3.99
3.89
3.69
3.46
3.27
3.18
3.19
3.26
3.32
3.26
3.06
2.77
2.43
2.03
1.50
0.73
-0.34
-1.63
-2.99
-4.26
-5.35
-6.30
-7.22
-8.18
-9.23
-10.34
-11.50
-12.71
-13.93
-15.01
-15.65
-15.53
-14.43
-12.37
-9.61
-6.57
-3.64
-1.12
0.90
2.45
3.66
4.67
5.56
6.34
6.96
7.32
7.35
7.10
6.72
6.38
6.24
6.32
6.55
6.83
7.07
7.23
7.25
7.06
6.61
5.90
5.06
4.31
3.83
3.65
3.56
3.25
2.44
1.03
-0.79
-2.69
-4.29
-5.44
-6.15
-6.66
-7.26
-8.24
-9.73
-11.69
-13.87
-15.91
-17.40
-18.04
-17.65
-16.23
-13.89
-10.85
-7.41
-3.92
-0.77
1.75
3.50
4.55
5.17
5.67
6.29
7.06
7.87
8.53
8.91
8.96
8.76
8.42
8.05
7.68
7.31
6.98
6.77
6.77
7.01
7.38
7.68
7.64
7.10
6.07
4.74
3.31
1.99
0.79
-0.34
-1.49
-2.70
-3.92
-5.14
-6.37
-7.67
-9.09
-10.61
-12.13
-13.49
-14.55
-15.18
-15.28
-14.76
-13.48
-11.36
-8.43
-4.85
-0.92
3.03
6.68
9.82
12.36
14.33
15.88
17.17
18.32
19.37
20.28
20.99
21.49
21.82
22.05
22.28
22.56
22.89
23.21
23.41
23.42
23.17
22.67
21.97
21.09
20.07
18.87
17.45
15.79
13.94
12.03
10.19
8.50
6.96
5.48
3.97
2.41
0.84
-0.74
-2.36
-4.13
-6.16
-8.44
-10.79
-12.85
-14.17
-14.37
-13.27
-10.93
-7.67
-3.95
-0.24
3.10
5.86
7.98
9.44
10.25
10.42
10.05
9.30
8.43
7.73
7.40
7.46
7.73
7.93
7.83
7.31
6.50
5.60
4.81
4.20
3.72
3.22
2.54
1.57
0.30
-1.21
-2.82
-4.38
-5.82
-7.07
-8.17
-9.17
-10.14
-11.18
-12.36
-13.77
-15.44
-17.32
-19.13
-20.48
-20.92
-20.13
-18.09
-15.07
-11.58
-8.06
-4.82
-1.92
0.67
3.01
5.02
6.60
7.64
8.18
8.37
8.43
8.49
8.57
8.59
8.50
8.30
8.09
7.99
8.06
8.28
8.48
8.49
8.18
7.45
6.33
4.89
3.22
1.47
-0.22
-1.72
-3.02
-4.17
-5.37
-6.82
-8.69
-11.04
-13.77
-16.61
-19.16
-20.95
-21.53
-20.67
-18.40
-15.08
-11.23
-7.43
-4.05
-1.25
1.00
2.80
4.15
5.00
5.30
5.07
4.47
3.71
2.97
2.36
1.90
1.61
1.50
1.59
1.87
2.26
2.60
2.74
2.60
2.15
1.42
0.48
-0.62
-1.83
-3.13
-4.45
-5.71
-6.83
-7.80
-8.67
-9.59
-10.77
-12.38
-14.41
-16.66
-18.69
-19.96
-19.98
-18.51
-15.62
-11.69
-7.29
-3.01
0.74
3.77
6.09
7.83
9.08
9.88
10.19
10.01
9.42
8.63
7.90
7.46
7.37
7.56
7.86
8.11
8.26
8.33
8.34
8.26
7.99
7.43
6.51
5.29
3.84
2.29
0.74
-0.75
-2.17
-3.49
-4.71
-5.84
-6.92
-8.04
-9.33
-10.90
-12.88
-15.24
-17.79
-20.12
-21.68
-21.93
-20.53
-17.51
-13.31
-8.65
-4.29
-0.81
1.52
2.80
3.34
3.48
3.45
3.31
3.02
2.53
1.83
1.02
0.18
-0.70
-1.68
-2.89
-4.34
-5.97
-7.59
-9.08
-10.44
-11.84
-13.57
-15.87
-18.85
-22.44
-26.44
-30.55
-34.49
-38.08
-41.24
-44.02
-46.55
-48.98
-51.43
-53.89
-56.20
-58.12
-59.44
-60.07
-60.12
-59.87
-59.74
-60.07
-60.92
-61.95
-62.39
-61.24
-57.65
-51.14
-41.89
-30.69
-18.81
-7.62
1.76
8.79
13.67
17.15
20.25
23.76
27.92
32.29
35.97
38.04
38.03
36.12
32.99
29.44
26.05
23.11
20.79
19.41
19.48
21.52
25.71
31.65
38.30
44.21
47.94
48.53
45.71
40.06
32.87
25.80
20.49
18.14
19.15
23.13
29.05
35.60
41.59
46.13
48.63
48.74
46.31
41.42
34.53
26.53
18.61
12.10
8.10
7.26
9.57
14.39
20.62
26.92
32.13
35.51
36.97
36.99
36.36
35.82
35.84
36.44
37.39
38.40
39.28
39.77
39.49
37.92
34.83
30.70
26.94
25.50
27.99
34.74
44.34
54.03
60.84
62.88
60.01
53.66
45.86
38.26
31.68
26.24
21.88
18.76
17.18
17.18
18.10
18.54
16.83
11.81
3.64
-6.06
-14.69
-19.78
-20.14
-16.55
-11.49
-8.11
-9.01
-15.13
-25.73
-38.79
-52.02
-63.46
-71.61
-75.33
-73.59
-65.74
-51.98
-33.82
-14.07
3.89
17.17
24.38
25.95
23.69
19.79
15.90
12.67
10.01
7.70
6.04
5.84
7.92
12.18
17.15
20.22
18.70
11.19
-1.60
-16.98
-31.31
-41.38
-45.39
-43.20
-35.88
-25.12
-12.84
-1.00
8.39
13.47
12.95
6.62
-4.41
-17.81
-30.59
-39.95
-44.00
-42.26
-35.68
-26.28
-16.47
-8.28
-2.91
-0.51
-0.45
-1.70
-3.17
-3.86
-2.98
-0.10
4.63
10.40
15.78
19.27
19.84
17.53
13.42
9.32
6.99
7.53
11.11
17.00
23.96
30.79
36.62
41.14
44.45
46.78
48.17
48.35
46.79
43.08
37.20
29.52
20.68
11.17
1.14
-9.56
-21.06
-33.14
-45.21
-56.51
-66.60
-75.54
-83.80
-91.80
-99.45
-106.05
-110.43
-111.61
-109.22
-103.74
-96.18
-87.55
-78.20
-67.58
-54.41
-37.25
-15.24
11.38
40.97
70.73
97.19
116.84
126.89
125.84
113.98
93.49
68.22
42.86
21.92
8.45
3.18
4.34
8.32
10.95
8.92
0.79
-12.81
-29.73
-47.29
-63.19
-75.93
-84.70
-89.09
-88.89
-84.32
-76.20
-66.05
-55.70
-46.64
-39.49
-33.85
-28.66
-22.78
-15.51
-6.80
2.79
12.38
21.04
28.06
33.22
36.82
39.61
42.45
45.75
49.16
51.59
51.75
48.82
42.97
35.32
27.46
20.74
15.84
12.69
10.82
9.77
9.30
9.36
9.71
9.89
9.46
8.64
8.65
11.40
18.54
30.25
44.75
58.72
68.62
71.95
67.87
56.95
40.55
20.39
-1.37
-21.89
-37.97
-46.91
-47.66
-41.51
-31.56
-21.29
-12.96
-6.77
-1.23
5.72
15.44
27.94
41.88
55.13
65.22
69.74
66.73
55.15
35.67
10.96
-14.52
-35.66
-48.22
-50.19
-42.46
-28.43
-12.82
-0.19
6.13
4.65
-4.28
-18.81
-36.04
-52.47
-64.66
-69.89
-66.91
-56.28
-40.39
-23.00
-8.33
0.05
0.33
-6.93
-18.84
-31.20
-39.88
-42.32
-38.16
-28.97
-17.28
-5.49
4.68
12.17
16.17
15.90
10.94
1.79
-9.65
-20.30
-26.77
-26.73
-19.81
-7.89
5.69
17.39
24.78
27.15
25.48
21.74
18.07
16.04
16.37
18.98
23.31
28.69
34.54
40.37
45.57
49.39
51.00
49.88
46.16
40.70
34.91
30.17
27.31
26.32
26.61
27.53
28.83
30.70
33.46
37.03
40.69
43.25
43.58
41.17
36.38
30.25
24.09
18.96
15.47
13.66
13.13
13.21
12.97
11.49
8.08
2.54
-4.69
-12.61
-20.05
-26.11
-30.44
-33.27
-35.11
-36.42
-37.40
-38.03
-38.29
-38.42
-38.81
-39.95
-42.08
-45.12
-48.68
-52.29
-55.66
-58.75
-61.75
-64.83
-67.94
-70.70
-72.55
-72.90
-71.40
-67.94
-62.50
-54.95
-44.99
-32.30
-16.84
0.83
19.48
37.45
53.04
64.78
71.59
72.69
67.64
56.51
40.23
20.88
1.50
-14.64
-25.09
-29.30
-28.94
-27.28
-27.84
-32.93
-42.74
-55.48
-68.34
-78.83
-85.55
-88.38
-87.91
-84.77
-79.26
-71.46
-61.65
-50.64
-39.69
-30.07
-22.55
-17.14
-13.18
-9.78
-6.30
-2.53
1.34
5.06
8.63
12.45
17.08
22.86
29.46
35.81
40.40
42.01
40.36
36.30
31.54
27.80
26.14
26.56
28.27
30.21
31.70
32.61
33.15
33.43
33.08
31.32
27.32
20.73
12.00
2.27
-7.01
-14.56
-19.59
-21.82
-21.48
-19.11
-15.53
-11.64
-8.17
-5.27
-2.42
1.46
7.38
15.68
25.64
35.71
44.28
50.35
53.93
55.80
56.92
57.88
58.71
59.13
58.82
57.83
56.48
55.20
54.38
54.13
54.32
54.55
54.21
52.65
49.46
44.63
38.61
32.19
26.09
20.76
16.22
12.24
8.62
5.30
2.42
0.06
-1.87
-3.77
-6.14
-9.40
-13.69
-18.83
-24.39
-29.79
-34.51
-38.06
-40.11
-40.57
-39.56
-37.48
-34.90
-32.46
-30.63
-29.65
-29.47
-29.84
-30.49
-31.26
-32.24
-33.69
-35.91
-39.17
-43.55
-48.94
-55.13
-61.81
-68.59
-74.98
-80.50
-84.76
-87.49
-88.66
-88.28
-86.35
-82.78
-77.45
-70.42
-62.03
-52.90
-43.80
-35.44
-28.32
-22.61
-18.24
-14.83
-11.83
-8.49
-3.94
2.50
11.17
21.75
33.31
44.49
53.87
60.30
63.24
62.67
59.03
53.10
45.85
38.48
32.43
29.29
30.52
37.06
48.92
64.97
83.03
100.09
112.74
117.77
112.94
97.85
74.53
47.40
22.24
4.45
-2.83
0.24
10.29
22.25
31.21
34.12
30.45
21.86
11.10
0.78
-7.46
-13.21
-17.05
-19.92
-22.64
-25.56
-28.59
-31.48
-33.97
-35.82
-36.70
-36.06
-33.40
-28.67
-22.66
-16.95
-13.34
-13.10
-16.31
-21.84
-27.84
-32.41
-34.22
-32.84
-28.70
-22.87
-16.75
-11.61
-8.20
-6.50
-5.69
-4.62
-2.25
1.82
7.21
13.03
18.33
22.43
25.14
26.57
27.04
26.98
26.91
27.47
29.28
32.60
37.07
41.65
44.88
45.40
42.58
36.75
29.14
21.30
14.42
8.87
4.13
-0.71
-6.40
-12.91
-19.44
-24.69
-27.56
-27.77
-26.04
-24.02
-23.59
-26.17
-32.15
-40.65
-49.86
-57.48
-61.39
-60.11
-53.10
-40.83
-24.98
-8.44
5.09
12.18
11.04
2.59
-9.46
-20.02
-24.73
-21.90
-13.12
-2.11
7.27
12.95
15.19
15.84
16.77
18.75
21.20
22.88
22.87
21.13
18.50
16.14
15.03
15.58
17.49
19.99
22.18
23.46
23.62
22.96
21.96
21.09
20.49
19.98
19.28
18.19
16.78
15.36
14.36
14.12
14.78
16.24
18.05
19.52
19.81
18.27
14.62
9.15
2.78
-2.98
-6.18
-4.65
3.43
18.71
39.93
63.58
84.48
97.19
97.91
85.84
63.61
36.34
9.80
-11.49
-25.50
-32.87
-36.01
-37.78
-40.16
-43.73
-47.84
-51.40
-53.82
-55.40
-57.04
-59.52
-62.80
-65.80
-67.00
-65.37
-61.04
-55.45
-50.59
-48.08
-48.37
-50.63
-53.14
-54.07
-52.11
-46.86
-38.85
-29.24
-19.51
-11.03
-4.72
-0.75
1.61
3.81
7.64
14.49
24.88
38.25
53.11
67.58
79.91
88.84
93.73
94.54
91.58
85.46
76.91
66.80
56.17
46.09
37.55
31.15
26.88
24.12
21.89
19.28
15.93
12.12
8.67
6.42
5.79
6.57
8.01
9.25
9.65
8.97
7.29
4.80
1.62
-2.29
-7.01
-12.56
-18.80
-25.49
-32.37
-39.24
-46.05
-52.82
-59.60
-66.41
-73.24
-79.98
-86.31
-91.50
-94.29
-93.18
-86.84
-74.69
-57.17
-35.67
-12.09
11.73
34.33
54.60
71.70
84.83
93.44
97.43
97.35
94.21
89.10
82.74
75.26
66.39
55.83
43.65
30.35
16.84
4.04
-7.33
-16.96
-25.00
-31.96
-38.49
-45.13
-52.03
-58.84
-64.85
-69.30
-71.82
-72.66
-72.74
-73.24
-75.29
-79.56
-86.07
-94.15
-102.44
-109.05
-111.85
-109.03
-99.71
-84.48
-65.34
-45.15
-26.68
-11.65
-0.45
7.72
14.02
19.24
23.40
25.95
26.28
24.31
20.69
16.57
13.05
10.74
9.55
9.00
8.61
8.33
8.60
10.16
13.55
18.79
25.16
31.37
36.02
38.12
37.65
35.75
34.48
36.18
42.61
54.32
70.31
88.39
105.72
119.57
127.86
129.41
124.08
112.65
96.61
77.98
58.94
41.48
27.10
16.59
9.94
6.47
5.01
4.22
2.94
0.38
-3.66
-8.91
-14.73
-20.29
-24.75
-27.42
-27.90
-26.16
-22.60
-17.96
-13.07
-8.61
-4.96
-2.15
0.06
1.97
3.77
5.44
6.76
7.45
7.33
6.42
4.94
3.21
1.46
-0.22
-1.91
-3.73
-5.77
-8.04
-10.53
-13.31
-16.62
-20.72
-25.81
-31.82
-38.39
-44.93
-50.91
-56.00
-60.23
-64.05
-68.10
-73.00
-78.98
-85.59
-91.55
-95.05
-94.23
-88.03
-76.65
-61.69
-45.74
-31.51
-20.99
-14.87
-12.53
-12.40
-12.56
-11.27
-7.31
-0.10
10.25
23.05
37.12
51.08
63.65
73.90
81.43
86.31
88.96
89.90
89.60
88.32
86.16
83.10
79.16
74.38
68.84
62.51
55.28
47.03
37.77
27.79
17.69
8.18
-0.16
-7.05
-12.62
-17.18
-21.09
-24.53
-27.61
-30.42
-33.12
-36.01
-39.35
-43.30
-47.87
-52.90
-58.11
-63.15
-67.59
-71.00
-72.99
-73.31
-71.82
-68.48
-63.30
-56.32
-47.69
-37.72
-26.93
-16.01
-5.74
3.24
10.48
15.85
19.46
21.68
23.01
24.09
25.61
28.18
32.26
37.89
44.67
51.73
57.92
62.12
63.53
61.98
57.90
52.16
45.76
39.47
33.69
28.37
23.12
17.40
10.81
3.17
-5.35
-14.34
-23.29
-31.76
-39.55
-46.67
-53.27
-59.55
-65.75
-72.02
-78.36
-84.45
-89.50
-92.14
-90.70
-83.71
-70.53
-51.83
-29.69
-7.06
13.09
28.62
38.68
43.65
44.63
42.89
39.41
34.78
29.37
23.50
17.69
12.62
9.07
7.61
8.47
11.38
15.61
20.19
24.10
26.38
26.22
23.06
16.85
8.35
-0.65
-7.61
-10.02
-6.52
2.22
13.48
23.43
28.63
27.43
20.46
10.20
-0.21
-8.25
-12.78
-14.23
-14.04
-13.88
-14.90
-17.22
-20.02
-21.94
-21.69
-18.50
-12.37
-3.91
5.95
16.25
26.04
34.22
39.45
40.30
35.80
26.19
13.39
0.74
-7.97
-9.91
-4.47
6.48
19.34
30.30
36.92
38.92
37.82
35.92
35.07
35.97
38.32
41.32
44.20
46.49
47.95
48.39
47.64
45.56
42.16
37.56
31.85
24.98
16.80
7.23
-3.35
-14.11
-23.84
-31.38
-36.05
-37.97
-37.89
-36.99
-36.44
-36.98
-38.82
-41.64
-44.82
-47.61
-49.41
-49.84
-48.79
-46.42
-42.89
-38.36
-33.04
-27.24
-21.40
-15.98
-11.19
-7.04
-3.27
0.69
5.35
10.86
16.91
22.86
28.11
32.61
36.68
41.03
46.53
53.84
62.77
72.33
81.00
87.08
89.47
87.33
80.38
69.11
54.82
39.26
24.41
12.05
1.10
-8.44
-16.95
-25.43
-34.75
-44.70
-54.08
-61.84
-67.35
-70.53
-71.63
-71.47
-70.84
-70.25
-68.41
-64.55
-57.99
-48.33
-35.69
-20.67
-4.73
10.34
23.00
32.33
37.99
40.27
39.83
37.41
33.77
29.39
24.70
20.10
16.02
12.54
9.57
6.87
4.16
1.38
-1.37
-3.80
-5.51
-6.17
-5.79
-4.62
-3.06
-1.49
-0.12
0.99
1.90
2.73
3.55
4.29
4.87
5.22
5.26
4.94
4.22
3.08
1.60
-0.11
-1.93
-3.76
-5.57
-7.34
-9.01
-10.34
-11.01
-10.67
-9.10
-6.40
-2.92
0.76
4.08
6.57
8.03
8.43
7.98
6.98
5.76
4.56
3.46
2.45
1.40
0.26
-0.95
-2.15
-3.26
-4.29
-5.37
-6.60
-8.02
-9.55
-11.02
-12.35
-13.60
-14.93
-16.52
-18.39
-20.39
-22.28
-23.91
-25.31
-26.72
-28.42
-30.59
-33.18
-35.98
-38.74
-41.37
-43.89
-46.45
-49.15
-51.92
-54.54
-56.71
-58.10
-58.39
-57.32
-54.62
-50.07
-43.57
-35.17
-25.18
-14.17
-2.94
7.61
16.73
24.05
29.69
34.16
38.08
41.78
45.14
47.66
48.70
47.92
45.44
41.78
37.70
33.90
30.80
28.41
26.31
23.74
19.85
14.15
6.82
-1.11
-8.05
-12.56
-13.98
-12.82
-10.60
-9.17
-9.97
-13.43
-18.80
-24.39
-28.09
-28.16
-23.91
-16.21
-7.29
0.15
4.08
4.21
2.22
1.09
3.68
11.50
23.99
38.49
50.85
56.34
50.89
32.63
3.04
-32.59
-66.20
-89.40
-96.35
-85.78
-61.15
-28.91
4.13
32.99
55.08
69.62
76.44
75.34
66.43
50.91
31.54
12.30
-2.75
-10.67
-10.43
-3.17
8.37
20.71
30.37
34.76
32.72
24.81
13.18
0.88
-9.06
-14.78
-16.24
-15.11
-13.94
-14.98
-19.24
-26.07
-33.46
-38.95
-40.56
-37.64
-31.02
-22.72
-15.10
-9.97
-8.09
-9.05
-11.83
-15.29
-18.55
-20.96
-21.79
-20.12
-15.08
-6.22
6.02
20.22
34.29
46.13
54.28
58.21
58.41
56.12
53.00
50.75
50.71
53.45
58.51
64.42
69.08
70.58
67.95
61.56
52.86
43.47
34.30
25.04
14.43
1.26
-14.57
-31.58
-47.03
-58.05
-62.75
-60.79
-53.24
-41.91
-28.60
-14.72
-1.22
11.22
22.15
31.35
38.92
45.20
50.60
55.38
59.54
62.95
65.54
67.41
68.74
69.61
69.92
69.39
67.69
64.41
58.91
50.11
36.59
17.15
-8.35
-38.18
-68.62
-94.71
-111.89
-117.71
-112.79
-100.66
-86.42
-74.89
-69.10
-69.65
-74.99
-82.43
-89.23
-93.38
-93.80
-90.24
-82.94
-72.49
-59.70
-45.77
-32.01
-19.72
-9.78
-2.43
2.68
6.33
9.23
11.75
13.83
15.15
15.39
14.60
13.24
12.17
12.43
14.96
20.20
27.79
36.48
44.29
49.00
48.99
44.01
35.62
26.84
21.09
20.89
26.74
36.89
48.06
56.70
60.35
58.37
51.81
42.68
32.97
24.01
16.35
10.06
5.02
1.10
-1.93
-4.47
-7.03
-9.99
-13.32
-16.46
-18.50
-18.50
-15.94
-10.99
-4.39
2.73
9.30
14.52
18.02
19.83
20.27
19.80
18.88
17.87
16.92
16.04
15.19
14.31
13.43
12.62
11.86
11.03
9.78
7.68
4.43
0.04
-5.08
-10.19
-14.52
-17.54
-19.12
-19.55
-19.38
-19.20
-19.46
-20.33
-21.69
-23.26
-24.66
-25.58
-25.83
-25.39
-24.40
-23.09
-21.69
-20.37
-19.26
-18.43
-17.95
-17.93
-18.49
-19.77
-21.78
-24.34
-27.09
-29.59
-31.55
-32.93
-33.99
-35.12
-36.56
-38.22
-39.72
-40.48
-40.03
-38.13
-34.80
-30.22
-24.63
-18.27
-11.38
-4.31
2.50
8.44
12.88
15.19
14.94
12.02
6.75
-0.17
-7.73
-14.80
-20.37
-23.75
-24.73
-23.58
-21.00
-17.89
-15.04
-12.94
-11.62
-10.79
-10.03
-9.08
-7.85
-6.38
-4.63
-2.43
0.49
4.24
8.46
12.36
15.00
15.80
15.00
13.74
13.67
16.23
21.89
29.86
38.33
44.99
47.75
45.25
37.20
24.56
9.54
-4.73
-15.04
-19.08
-16.46
-9.02
-0.29
5.88
6.75
1.67
-7.92
-19.34
-29.80
-37.36
-41.27
-41.75
-39.55
-35.56
-30.60
-25.41
-20.59
-16.45
-12.91
-9.47
-5.34
0.12
7.03
14.77
22.08
27.65
30.62
31.01
29.71
28.03
27.22
27.99
30.36
33.76
37.31
40.17
41.80
42.09
41.35
40.19
39.22
38.87
39.13
39.55
39.43
38.14
35.43
31.59
27.41
23.86
21.66
20.93
21.06
20.79
18.62
13.31
4.30
-7.91
-21.77
-35.01
-45.24
-50.73
-50.89
-46.42
-38.91
-30.17
-21.61
-13.97
-7.41
-1.84
2.78
6.42
9.00
10.61
11.49
11.87
11.85
11.42
10.51
9.24
8.03
7.49
8.23
10.62
14.60
19.73
25.21
30.13
33.61
35.04
34.13
30.98
26.06
20.12
14.02
8.61
4.57
2.30
1.78
2.63
4.17
5.60
6.20
5.48
3.33
-0.02
-4.12
-8.43
-12.51
-16.07
-19.16
-22.03
-25.11
-28.77
-33.22
-38.31
-43.63
-48.56
-52.45
-54.81
-55.44
-54.41
-52.08
-48.95
-45.50
-42.06
-38.63
-34.95
-30.50
-24.76
-17.48
-8.76
0.83
10.45
19.23
26.58
32.24
36.23
38.76
40.02
40.19
39.42
37.94
36.07
34.16
32.46
31.00
29.59
27.91
25.63
22.54
18.65
14.07
9.07
4.00
-0.83
-5.06
-8.40
-10.75
-12.13
-12.80
-13.17
-13.72
-14.90
-17.00
-19.96
-23.37
-26.41
-28.00
-27.05
-22.77
-15.03
-4.39
7.99
20.60
31.99
41.09
47.37
50.85
51.99
51.43
49.78
47.56
45.04
42.38
39.67
37.08
34.88
33.36
32.72
32.92
33.66
34.37
34.50
33.65
31.74
29.09
26.20
23.54
21.33
19.43
17.51
15.28
12.75
10.26
8.40
7.64
8.19
9.94
12.69
16.35
20.92
26.37
32.35
38.17
42.88
45.71
46.33
44.90
41.82
37.39
31.62
24.38
15.70
6.07
-3.63
-12.44
-19.90
-26.33
-32.74
-40.30
-49.78
-61.05
-73.11
-84.47
-93.73
-100.22
-104.15
-106.40
-108.00
-109.63
-111.35
-112.72
-113.18
-112.39
-110.43
-107.64
-104.34
-100.60
-96.25
-91.02
-84.75
-77.57
-69.78
-61.67
-53.27
-44.35
-34.58
-23.75
-12.04
-0.04
11.35
21.23
29.15
35.16
39.92
44.35
49.25
55.09
61.82
69.08
76.31
83.03
88.86
93.64
97.38
100.20
102.21
103.41
103.65
102.67
100.22
96.17
90.55
83.50
75.06
65.25
54.03
41.54
28.32
15.24
3.26
-6.88
-14.98
-21.37
-26.65
-31.38
-35.82
-39.85
-43.21
-45.73
-47.46
-48.67
-49.74
-50.89
-52.20
-53.50
-54.55
-55.10
-55.03
-54.34
-53.08
-51.34
-49.11
-46.36
-43.05
-39.18
-34.93
-30.50
-26.08
-21.62
-16.90
-11.54
-5.29
1.80
9.27
16.40
22.43
26.84
29.47
30.51
30.36
29.43
28.08
26.53
24.94
23.45
22.15
21.14
20.39
19.81
19.26
18.52
17.45
15.98
14.14
12.02
9.69
7.27
4.86
2.58
0.52
-1.26
-2.70
-3.78
-4.49
-4.85
-4.92
-4.78
-4.52
-4.23
-3.98
-3.85
-3.89
-4.13
-4.62
-5.45
-6.72
-8.55
-10.95
-13.73
-16.50
-18.69
-19.76
-19.36
-17.47
-14.45
-10.84
-7.21
-4.02
-1.48
0.31
1.40
1.85
1.77
1.30
0.62
-0.09
-0.70
-1.14
-1.43
-1.65
-1.89
-2.24
-2.71
-3.31
-3.99
-4.71
-5.42
-6.07
-6.61
-7.00
-7.24
-7.41
-7.64
-8.04
-8.67
-9.49
-10.34
-11.07
-11.53
-11.73
-11.77
-11.88
-12.37
-13.46
-15.26
-17.61
-20.09
-22.10
-23.03
-22.49
-20.44
-17.22
-13.36
-9.42
-5.80
-2.70
-0.16
1.80
3.14
3.81
3.85
3.42
2.77
2.14
1.63
1.20
0.75
0.20
-0.38
-0.86
-1.11
-1.13
-1.08
-1.17
-1.62
-2.52
-3.80
-5.30
-6.85
-8.34
-9.73
-11.09
-12.55
-14.22
-16.12
-18.17
-20.14
-21.72
-22.65
-22.81
-22.26
-21.26
-20.18
-19.39
-19.16
-19.59
-20.61
-21.96
-23.18
-23.73
-23.11
-21.02
-17.50
-12.92
-7.93
-3.23
0.59
3.23
4.73
5.41
5.71
6.04
6.70
7.73
9.08
10.59
12.14
13.64
15.02
16.20
17.07
17.48
17.40
16.92
16.28
15.78
15.63
15.82
16.11
16.20
15.87
15.12
14.09
12.98
11.80
10.35
8.36
5.66
2.37
-1.17
-4.47
-7.20
-9.23
-10.67
-11.71
-12.57
-13.42
-14.41
-15.67
-17.24
-18.92
-20.23
-20.45
-18.89
-15.21
-9.67
-3.08
3.45
8.96
12.87
15.15
16.20
16.60
16.81
17.13
17.63
18.29
19.05
19.82
20.45
20.74
20.44
19.45
17.88
16.10
14.64
13.97
14.33
15.61
17.38
19.03
20.02
20.03
19.08
17.47
15.66
14.07
12.97
12.40
12.19
12.03
11.63
10.83
9.61
8.12
6.62
5.35
4.51
4.10
3.95
3.72
3.06
1.68
-0.45
-3.05
-5.58
-7.36
-7.85
-6.82
-4.46
-1.30
1.95
4.71
6.62
7.68
8.09
8.09
7.82
7.29
6.43
5.26
3.94
2.71
1.81
1.34
1.16
1.00
0.58
-0.25
-1.43
-2.76
-3.94
-4.78
-5.21
-5.30
-5.20
-5.11
-5.25
-5.83
-7.01
-8.78
-10.95
-13.12
-14.87
-15.88
-16.14
-16.00
-15.95
-16.42
-17.56
-19.18
-20.81
-21.94
-22.17
-21.31
-19.32
-16.34
-12.60
-8.41
-4.12
-0.09
3.41
6.26
8.46
10.14
11.38
12.21
12.54
12.29
11.40
9.98
8.31
6.76
5.74
5.47
5.94
6.87
7.82
8.33
8.07
6.93
4.97
2.42
-0.45
-3.37
-6.13
-8.60
-10.82
-12.94
-15.20
-17.81
-20.79
-23.92
-26.82
-29.14
-30.69
-31.56
-32.05
-32.56
-33.42
-34.83
-36.94
-39.74
-43.14
-46.77
-50.00
-51.96
-51.74
-48.69
-42.65
-34.11
-24.06
-13.79
-4.49
3.02
8.39
11.69
13.27
13.56
13.04
12.14
11.25
10.55
9.82
8.47
5.70
1.03
-5.23
-11.79
-16.73
-18.22
-15.49
-9.26
-1.52
5.35
9.71
11.45
12.01
13.76
18.83
28.17
41.08
55.45
68.58
78.07
82.50
81.65
76.32
68.02
58.63
50.12
44.27
42.31
44.44
49.76
56.45
62.55
66.68
68.63
69.30
70.17
72.62
77.42
84.65
93.68
103.25
111.44
115.82
113.97
104.42
87.45
65.41
42.09
21.33
5.79
-3.84
-8.68
-11.06
-13.53
-18.43
-27.44
-41.43
-60.19
-82.17
-104.39
-123.01
-134.47
-136.64
-129.57
-115.45
-97.63
-79.32
-62.50
-47.74
-34.67
-22.92
-12.73
-4.99
-0.57
0.43
-0.81
-2.16
-1.54
1.93
7.42
12.61
14.82
12.29
5.14
-4.68
-14.26
-21.05
-23.78
-22.81
-19.47
-15.20
-10.64
-5.52
0.91
9.07
18.61
28.39
36.93
43.04
46.08
45.99
43.08
37.76
30.51
22.05
13.42
5.83
0.40
-2.23
-2.09
0.25
3.88
7.86
11.34
13.57
14.02
12.45
9.10
4.66
0.14
-3.45
-5.37
-5.24
-3.06
0.89
6.05
11.57
16.39
19.52
20.36
18.99
16.20
13.11
10.62
9.08
8.21
7.42
6.29
4.85
3.57
3.00
3.42
4.57
5.79
6.37
5.90
4.48
2.60
0.82
-0.57
-1.63
-2.70
-4.08
-5.84
-7.73
-9.32
-10.29
-10.51
-10.18
-9.69
-9.44
-9.73
-10.63
-12.01
-13.60
-15.08
-16.19
-16.81
-16.92
-16.58
-15.95
-15.14
-14.30
-13.59
-13.07
-12.72
-12.43
-12.03
-11.45
-10.82
-10.40
-10.51
-11.32
-12.75
-14.44
-15.88
-16.58
-16.16
-14.47
-11.56
-7.68
-3.19
1.49
5.91
9.71
12.57
14.27
14.68
13.82
11.93
9.46
7.02
5.16
4.21
4.09
4.39
4.61
4.37
3.66
2.77
2.07
1.81
1.96
2.26
2.39
2.13
1.44
0.36
-1.02
-2.60
-4.31
-6.02
-7.57
-8.84
-9.80
-10.56
-11.38
-12.51
-14.14
-16.29
-18.80
-21.33
-23.48
-24.75
-24.72
-23.13
-20.01
-15.67
-10.68
-5.67
-1.17
2.46
5.15
7.01
8.27
9.16
9.76
10.06
9.94
9.27
8.07
6.55
5.06
4.00
3.62
3.94
4.73
5.60
6.17
6.25
5.89
5.28
4.62
4.02
3.40
2.62
1.54
0.18
-1.34
-2.82
-4.14
-5.27
-6.27
-7.22
-8.16
-9.12
-10.12
-11.27
-12.72
-14.52
-16.52
-18.32
-19.37
-19.18
-17.49
-14.42
-10.40
-6.03
-1.85
1.81
4.81
7.18
8.99
10.27
11.05
11.38
11.39
11.26
11.15
11.13
11.14
11.01
10.63
9.98
9.19
8.49
8.06
7.98
8.15
8.37
8.41
8.08
7.32
6.19
4.80
3.30
1.80
0.34
-1.06
-2.45
-3.82
-5.18
-6.49
-7.74
-8.91
-10.03
-11.15
-12.33
-13.57
-14.88
-16.25
-17.67
-19.04
-20.19
-20.83
-20.62
-19.28
-16.71
-13.10
-8.84
-4.44
-0.38
3.05
5.76
7.76
9.11
9.84
9.96
9.51
8.61
7.46
6.28
5.25
4.57
4.38
4.79
5.83
7.41
9.23
10.93
12.20
12.86
12.97
12.68
12.15
11.46
10.61
9.61
8.51
7.44
6.49
5.64
4.77
3.74
2.50
1.09
-0.38
-1.89
-3.58
-5.64
-8.20
-11.11
-13.98
-16.18
-17.18
-16.70
-14.78
-11.75
-8.06
-4.16
-0.39
3.01
5.97
8.48
10.66
12.66
14.58
16.42
18.03
19.28
20.15
20.83
21.66
22.95
24.79
26.93
28.86
29.98
29.96
28.74
26.62
24.05
21.45
19.18
17.54
16.74
16.76
17.15
16.91
14.71
9.39
0.58
-10.98
-23.51
-34.90
-43.54
-48.91
-51.62
-53.01
-54.38
-56.51
-59.49
-62.84
-65.87
-67.82
-68.01
-65.82
-60.88
-53.16
-43.15
-31.76
-20.16
-9.40
-0.18
7.23
12.94
17.34
20.92
24.06
26.90
29.15
30.23
29.59
27.14
23.56
20.25
18.69
19.86
23.69
29.16
34.83
39.43
42.24
42.96
41.42
37.39
30.76
21.88
11.89
2.45
-4.74
-8.67
-9.43
-8.06
-6.07
-4.73
-4.70
-5.89
-7.75
-9.59
-10.92
-11.63
-11.95
-12.38
-13.43
-15.38
-18.15
-21.23
-23.87
-25.31
-25.10
-23.27
-20.24
-16.72
-13.37
-10.65
-8.71
-7.40
-6.41
-5.39
-4.03
-2.12
0.36
3.12
5.59
7.05
6.94
5.35
3.14
1.85
3.09
7.88
16.20
26.96
38.44
49.00
57.44
63.13
65.78
65.23
61.41
54.58
45.53
35.60
26.32
18.86
13.61
10.02
7.00
3.47
-1.09
-6.37
-11.46
-15.35
-17.42
-17.80
-17.25
-16.88
-17.71
-20.28
-24.43
-29.42
-34.08
-37.27
-38.17
-36.65
-33.28
-29.24
-25.92
-24.46
-25.32
-27.93
-30.87
-32.26
-30.49
-24.95
-16.36
-6.65
1.84
7.13
8.35
6.03
1.69
-2.68
-5.32
-5.11
-1.75
4.24
11.64
18.80
24.05
26.18
24.81
20.52
14.48
8.04
2.24
-2.33
-5.40
-6.76
-6.13
-3.34
1.41
7.18
12.40
15.30
14.58
10.12
3.10
-4.25
-9.55
-11.06
-8.25
-1.84
6.45
14.54
20.42
22.64
20.59
14.69
6.30
-2.51
-9.53
-12.97
-11.99
-6.87
1.17
10.53
19.68
27.62
33.94
38.80
42.81
46.72
51.19
56.39
61.74
65.93
67.16
63.75
54.81
40.73
23.31
5.30
-10.27
-20.95
-25.34
-23.44
-16.53
-6.90
2.68
9.45
11.45
7.99
-0.10
-10.65
-20.94
-28.64
-32.70
-33.60
-32.99
-32.78
-34.15
-37.08
-40.50
-42.92
-43.24
-41.19
-37.35
-32.78
-28.44
-24.84
-22.06
-19.90
-18.17
-16.92
-16.31
-16.56
-17.69
-19.45
-21.42
-23.15
-24.40
-25.23
-25.92
-26.85
-28.32
-30.40
-32.97
-35.76
-38.47
-40.75
-42.26
-42.74
-42.06
-40.37
-38.03
-35.51
-33.20
-31.22
-29.42
-27.44
-24.85
-21.17
-15.91
-8.66
0.72
11.83
23.57
34.21
41.84
44.98
43.02
36.44
26.48
14.74
2.79
-7.97
-16.34
-21.27
-22.16
-19.17
-13.40
-6.72
-1.09
2.25
3.24
2.94
2.92
4.39
7.65
11.97
16.05
18.59
18.86
16.79
12.96
8.36
4.13
1.41
1.10
3.68
9.11
16.82
25.90
35.34
44.26
52.05
58.25
62.42
63.93
62.07
56.33
46.71
34.05
19.99
6.68
-3.83
-10.07
-11.56
-8.92
-3.65
2.22
6.60
7.84
5.10
-1.37
-10.28
-19.67
-27.52
-32.43
-33.96
-32.60
-29.46
-25.67
-22.04
-18.87
-16.06
-13.35
-10.45
-7.18
-3.36
1.11
6.15
11.49
16.56
20.67
23.18
23.76
22.45
19.73
16.31
13.02
10.61
9.50
9.64
10.44
10.92
9.97
6.84
1.54
-5.10
-11.62
-16.45
-18.48
-17.49
-14.12
-9.61
-5.36
-2.43
-1.32
-1.91
-3.61
-5.66
-7.43
-8.53
-8.90
-8.70
-8.21
-7.75
-7.61
-7.98
-8.83
-9.82
-10.30
-9.53
-7.05
-2.92
2.12
6.95
10.62
12.86
14.22
15.81
18.72
23.38
29.42
35.79
41.29
44.86
45.70
43.24
37.18
27.70
15.79
3.22
-7.87
-15.79
-20.02
-21.41
-21.75
-22.77
-25.37
-29.30
-33.47
-36.63
-37.89
-37.02
-34.24
-29.92
-24.40
-18.04
-11.20
-4.43
1.55
5.89
7.80
6.75
2.64
-4.11
-12.56
-21.59
-30.11
-37.44
-43.18
-47.05
-48.56
-46.88
-41.20
-31.17
-17.48
-1.82
13.57
26.79
36.92
44.24
49.77
54.62
59.41
64.18
68.63
72.59
76.12
79.48
82.67
85.27
86.36
84.93
80.28
72.44
62.15
50.69
39.43
29.39
21.01
14.16
8.40
3.30
-1.35
-5.49
-8.97
-11.71
-13.91
-15.93
-18.18
-20.97
-24.30
-27.94
-31.53
-34.72
-37.30
-39.25
-40.70
-41.79
-42.73
-43.68
-44.81
-46.22
-47.84
-49.36
-50.25
-49.94
-48.06
-44.64
-40.08
-35.03
-30.02
-25.37
-21.07
-17.07
-13.37
-10.17
-7.70
-6.04
-5.02
-4.23
-3.28
-2.04
-0.66
0.53
1.22
1.36
1.17
1.00
1.17
1.77
2.63
3.42
3.80
3.57
2.81
1.79
0.91
0.45
0.49
0.81
1.03
0.74
-0.22
-1.76
-3.55
-5.16
-6.33
-7.02
-7.41
-7.77
-8.38
-9.38
-10.84
-12.72
-14.91
-17.16
-19.12
-20.33
-20.37
-18.95
-16.05
-11.88
-6.78
-0.96
5.63
13.30
22.31
32.48
42.91
52.03
58.00
59.30
55.25
46.21
33.34
18.10
1.68
-15.28
-32.60
-50.25
-67.85
-84.51
-98.89
-109.46
-114.98
-114.81
-109.17
-99.08
-86.21
-72.52
-59.89
-49.53
-41.77
-36.04
-31.28
-26.56
-21.55
-16.65
-12.54
-9.70
-8.03
-6.88
-5.50
-3.49
-1.00
1.56
3.95
6.42
9.60
14.12
20.06
26.82
33.35
38.58
41.80
42.93
42.36
40.69
38.39
35.68
32.48
28.64
24.11
19.14
14.27
10.18
7.49
6.53
7.22
9.16
11.75
14.40
16.68
18.44
19.71
20.59
21.17
21.51
21.70
21.96
22.55
23.50
24.28
23.79
20.83
14.77
6.16
-3.31
-11.53
-17.11
-20.04
-21.50
-22.95
-25.00
-26.92
-27.13
-24.24
-18.06
-9.81
-1.46
5.29
9.73
12.30
14.04
15.99
18.77
22.40
26.47
30.32
33.34
35.20
36.03
36.35
36.81
37.83
39.35
40.83
41.67
41.77
41.76
42.81
45.96
51.42
58.26
64.73
69.07
70.19
68.07
63.54
57.78
51.74
45.77
39.71
33.03
25.13
15.45
3.60
-10.53
-26.68
-43.94
-60.75
-74.97
-84.37
-87.23
-82.94
-72.21
-56.94
-39.40
-21.53
-4.42
11.72
27.00
41.26
53.82
63.63
69.76
71.94
70.75
67.27
62.56
57.16
51.04
43.78
34.98
24.51
12.61
-0.42
-14.46
-29.66
-46.21
-63.82
-81.30
-96.51
-106.99
-110.91
-107.96
-99.76
-89.16
-79.16
-71.66
-66.82
-63.37
-59.43
-53.57
-45.36
-35.37
-24.70
-14.49
-5.67
1.10
5.34
6.77
5.52
2.31
-1.55
-4.30
-4.30
-0.59
6.78
16.67
27.31
36.94
44.37
49.24
51.97
53.31
53.86
53.86
53.15
51.54
49.11
46.37
44.10
42.97
43.11
43.94
44.41
43.44
40.59
36.20
31.29
26.94
23.65
21.10
18.29
14.18
8.29
0.94
-6.84
-13.83
-19.11
-22.38
-23.92
-24.43
-24.83
-25.98
-28.52
-32.56
-37.55
-42.28
-45.21
-45.08
-41.47
-35.02
-27.21
-19.73
-13.86
-10.04
-7.87
-6.47
-4.93
-2.63
0.61
4.54
8.58
12.11
14.64
16.02
16.60
17.11
18.37
21.01
25.19
30.59
36.53
42.16
46.65
49.30
49.70
47.81
44.01
38.98
33.59
28.57
24.30
20.61
16.90
12.32
6.16
-1.86
-11.36
-21.44
-30.93
-38.79
-44.43
-47.89
-49.72
-50.71
-51.46
-52.14
-52.40
-51.56
-48.83
-43.62
-35.82
-25.95
-15.24
-5.33
2.14
6.17
6.87
5.54
4.26
5.08
9.27
16.93
27.12
38.32
48.99
57.87
64.10
67.21
67.12
64.18
59.08
52.73
46.00
39.61
34.19
30.27
28.27
28.26
29.83
31.98
33.50
33.46
31.66
28.76
25.92
24.28
24.42
26.18
28.68
30.58
30.51
27.43
21.05
11.97
1.55
-8.55
-16.93
-22.95
-26.72
-28.91
-30.29
-31.40
-32.56
-33.93
-35.77
-38.39
-42.00
-46.45
-51.16
-55.23
-57.86
-58.76
-58.32
-57.58
-57.74
-59.67
-63.50
-68.47
-73.24
-76.30
-76.42
-72.92
-65.74
-55.37
-42.77
-29.20
-15.97
-4.12
5.88
14.17
21.31
27.88
34.21
40.20
45.48
49.71
52.74
54.61
55.29
54.61
52.23
47.91
41.74
34.29
26.37
18.67
11.44
4.37
-3.20
-11.89
-21.78
-32.38
-42.61
-51.23
-57.16
-59.79
-59.07
-55.47
-49.75
-42.74
-35.18
-27.53
-20.01
-12.70
-5.63
1.08
7.25
12.66
17.19
20.87
23.75
25.79
26.76
26.33
24.19
20.35
15.26
9.74
4.70
0.78
-1.97
-4.09
-6.52
-10.04
-14.89
-20.50
-25.67
-29.07
-29.78
-27.59
-23.03
-17.03
-10.61
-4.67
0.03
3.00
4.19
4.14
3.88
4.56
6.77
10.14
13.47
15.40
15.19
13.17
10.42
8.00
6.14
4.17
0.96
-4.10
-10.56
-16.89
-21.23
-22.26
-19.73
-14.54
-8.15
-1.93
3.47
8.27
13.29
19.44
27.08
35.73
44.06
50.42
53.52
52.95
49.30
43.83
37.89
32.38
27.64
23.57
20.00
16.91
14.47
12.81
11.76
10.82
9.31
6.72
3.06
-1.13
-5.01
-7.86
-9.53
-10.47
-11.59
-13.77
-17.40
-22.28
-27.71
-32.82
-36.95
-39.76
-41.24
-41.62
-41.24
-40.52
-39.95
-40.04
-41.19
-43.58
-47.07
-51.23
-55.48
-59.25
-62.21
-64.35
-65.90
-67.17
-68.21
-68.60
-67.39
-63.41
-55.74
-44.19
-29.56
-13.49
1.97
14.98
24.32
29.65
31.46
30.77
28.90
27.03
26.05
26.30
27.57
29.23
30.48
30.62
29.31
26.58
22.82
18.62
14.70
11.82
10.68
11.61
14.42
18.09
20.97
21.30
17.89
10.91
2.02
-6.00
-10.20
-8.45
-0.06
13.97
31.33
48.94
63.62
72.62
74.32
68.68
57.44
43.79
31.51
23.74
21.93
25.43
31.81
37.88
40.95
39.58
33.92
25.30
15.54
6.28
-1.45
-7.32
-11.45
-14.09
-15.38
-15.20
-13.38
-9.94
-5.37
-0.70
2.72
3.73
1.89
-2.16
-6.87
-10.39
-11.45
-9.86
-6.64
-3.46
-1.81
-2.46
-5.20
-9.21
-13.55
-17.67
-21.37
-24.72
-27.67
-29.98
-31.19
-30.91
-29.02
-25.85
-22.03
-18.32
-15.24
-12.96
-11.26
-9.70
-7.82
-5.36
-2.28
1.26
5.01
8.67
12.01
14.77
16.74
17.72
17.50
15.87
12.64
7.67
0.99
-7.06
-15.76
-24.02
-30.56
-34.28
-34.55
-31.39
-25.42
-17.62
-9.02
-0.43
7.64
14.93
21.35
26.80
31.22
34.64
37.21
39.18
40.75
42.19
43.73
45.60
47.88
50.55
53.53
56.60
59.47
61.59
62.33
61.02
57.12
50.30
40.94
30.14
19.30
9.56
1.16
-6.39
-14.02
-22.50
-32.39
-43.38
-54.58
-65.04
-74.02
-81.38
-86.98
-90.45
-91.20
-89.04
-83.86
-75.74
-65.16
-52.79
-39.68
-26.78
-14.78
-1.51
13.02
27.27
39.42
47.65
53.15
57.01
59.72
61.58
62.24
60.90
57.20
51.24
43.27
33.59
22.26
9.85
-2.18
-11.72
-16.82
-16.22
-9.87
0.81
13.52
25.70
35.61
42.69
47.16
49.26
49.01
46.15
40.49
32.37
22.71
13.00
4.93
-0.22
-1.96
-0.36
4.04
10.44
17.81
24.80
29.77
31.19
28.11
20.50
9.42
-3.30
-15.68
-26.15
-33.84
-38.42
-39.60
-37.00
-30.43
-20.60
-9.46
0.08
5.20
4.44
-1.80
-11.26
-20.97
-28.69
-33.75
-36.68
-38.18
-38.16
-35.74
-30.59
-23.23
-15.23
-8.78
-5.85
-7.27
-12.37
-19.55
-27.24
-35.67
-45.35
-56.04
-66.40
-74.51
-78.63
-78.05
-73.53
-67.25
-63.77
-66.32
-75.25
-88.54
-103.58
-118.50
-132.52
-145.31
-156.23
-166.17
-174.44
-178.89
-177.57
-170.50
-159.62
-147.34
-135.16
-109.17
-64.87
-9.30
43.60
83.16
106.59
116.96
119.37
118.21
115.87
110.60
100.31
85.97
70.51
56.91
47.00
41.20
38.91
39.12
39.09
37.26
34.07
31.85
32.13
35.39
41.29
48.98
57.45
64.62
69.26
71.65
73.16
75.26
78.88
83.97
89.49
93.69
94.11
89.07
78.40
63.37
46.08
28.92
13.93
2.44
-5.16
-9.39
-11.18
-11.37
-10.63
-9.53
-8.57
-8.20
-8.71
-10.10
-12.04
-14.05
-15.61
-16.41
-16.52
-16.19
-15.82
-15.69
-15.91
-16.42
-17.00
-17.43
-17.55
-17.33
-16.82
-16.15
-15.40
-14.69
-14.04
-13.48
-13.02
-12.67
-12.42
-12.18
-11.88
-11.47
-11.03
-10.74
-10.87
-11.66
-13.23
-15.49
-18.10
-20.59
-22.41
-23.15
-22.60
-20.79
-17.97
-14.45
-10.53
-6.46
-2.42
1.37
4.69
7.31
9.02
9.74
9.51
8.54
7.16
5.79
4.88
4.78
5.69
7.60
10.29
13.39
16.50
19.20
21.20
22.29
22.43
21.71
20.32
18.47
16.35
14.09
11.81
9.68
7.88
6.58
5.82
5.47
5.23
4.70
3.54
1.51
-1.48
-5.32
-9.81
-14.58
-19.17
-23.02
-25.60
-26.55
-25.75
-23.43
-20.05
-16.25
-12.66
-9.70
-7.47
-5.86
-4.66
-3.88
-3.77
-4.75
-7.10
-10.61
-14.57
-17.93
-19.79
-19.74
-17.95
-15.05
-11.64
-8.07
-4.40
-0.54
3.47
7.44
11.05
14.11
16.58
18.50
19.83
20.33
19.61
17.32
13.46
8.56
3.54
-0.58
-3.03
-3.61
-2.76
-1.36
-0.47
-0.95
-3.19
-7.03
-11.85
-16.73
-20.70
-23.02
-23.24
-21.35
-17.72
-13.02
-8.07
-3.70
-0.57
0.98
0.96
-0.24
-2.00
-3.64
-4.50
-4.05
-1.84
2.51
9.18
17.92
27.92
37.88
46.43
52.77
57.16
60.99
66.14
74.07
84.91
97.20
108.40
115.92
118.09
114.70
106.82
96.14
84.36
72.76
62.21
53.34
46.48
41.67
38.43
35.71
32.09
26.22
17.39
5.87
-7.00
-19.19
-28.70
-34.11
-35.09
-32.35
-27.22
-21.15
-15.18
-9.81
-5.10
-1.02
2.22
4.09
3.83
0.90
-4.72
-12.23
-20.17
-26.79
-30.71
-31.36
-29.19
-25.36
-21.23
-17.85
-15.70
-14.90
-15.45
-17.42
-20.82
-25.37
-30.20
-34.00
-35.45
-33.74
-29.02
-22.40
-15.64
-10.61
-8.80
-10.93
-16.86
-25.66
-35.76
-45.25
-52.22
-55.14
-53.16
-46.35
-35.63
-22.57
-9.09
3.05
12.52
18.65
21.36
20.98
18.08
13.34
7.61
1.92
-2.62
-5.10
-5.16
-3.19
-0.22
2.47
3.92
3.78
2.36
0.32
-1.66
-3.16
-3.97
-4.10
-3.66
-2.78
-1.58
-0.10
1.76
4.12
7.03
10.29
13.40
15.68
16.66
16.41
15.72
15.89
18.28
23.77
32.38
43.17
54.40
63.96
69.84
70.70
66.35
57.96
47.76
38.38
32.03
29.74
31.18
35.09
39.97
44.91
49.79
55.01
60.74
66.32
70.15
70.13
64.58
52.92
35.88
15.06
-7.74
-31.06
-53.80
-74.88
-92.92
-106.20
-113.29
-113.64
-108.14
-98.81
-88.14
-78.18
-70.03
-63.91
-59.58
-56.91
-55.99
-56.78
-58.67
-60.31
-59.99
-56.32
-48.99
-38.92
-27.92
-17.94
-10.40
-5.75
-3.51
-2.57
-1.54
0.86
5.47
12.43
21.07
30.05
37.82
43.23
45.92
46.38
45.57
44.36
43.07
41.54
39.29
35.95
31.46
26.11
20.31
14.46
8.76
3.21
-2.27
-7.76
-13.40
-19.30
-25.58
-32.26
-39.07
-45.45
-50.58
-53.59
-53.89
-51.37
-46.39
-39.72
-32.26
-24.89
-18.26
-12.87
-8.95
-6.50
-5.25
-4.71
-4.35
-3.73
-2.71
-1.49
-0.40
0.23
0.32
0.10
0.03
0.58
2.03
4.40
7.44
10.81
14.22
17.44
20.34
22.80
24.70
25.90
26.34
26.03
25.01
23.38
21.17
18.48
15.48
12.38
9.38
6.62
4.04
1.53
-0.86
-2.83
-3.87
-3.46
-1.36
2.39
7.57
13.98
21.26
28.55
34.12
35.69
31.27
20.36
4.72
-12.07
-26.04
-34.51
-37.14
