1534174770.00
64.000000
-0.00
-0.00
-0.00
-0.00
-0.00
-0.00
-0.00
-0.00
-0.00
-0.00
0.00
0.01
0.01
-0.00
-0.03
-0.05
-0.05
0.00
0.13
0.36
0.66
1.01
1.37
1.72
2.06
2.40
2.79
3.24
3.80
4.42
5.06
5.66
6.20
6.68
7.15
7.68
8.31
9.14
10.09
11.04
11.88
12.56
13.14
13.76
14.65
15.96
17.91
20.32
22.90
25.38
27.58
29.57
31.68
34.32
37.81
42.54
48.15
54.10
59.83
64.97
69.58
74.14
79.34
85.71
93.76
103.00
112.62
121.73
129.77
136.75
143.30
150.75
157.77
166.64
177.95
191.79
206.97
220.57
228.25
225.36
208.53
176.87
132.76
80.05
23.07
-34.94
-92.44
-149.16
-205.23
-260.37
-313.74
-363.87
-409.83
-450.91
-486.50
-515.74
-537.23
-549.22
-549.96
-538.37
-514.21
-478.67
-433.88
-382.45
-327.02
-269.84
-212.63
-156.66
-102.95
-52.38
-5.91
35.58
71.44
101.39
125.55
144.41
158.67
169.02
176.10
180.34
182.07
181.53
179.00
174.78
169.24
162.75
155.64
148.17
140.52
132.83
125.16
117.55
109.99
102.49
95.04
87.68
80.48
73.58
67.09
61.09
55.57
50.39
45.36
40.31
35.20
30.15
25.42
21.31
17.98
15.37
13.16
10.90
8.21
4.97
1.44
-1.86
-4.36
-5.71
-6.03
-5.87
-6.04
-7.20
-9.55
-12.71
-15.85
-18.08
-18.87
-18.34
-17.09
-16.05
-16.02
-17.54
-20.78
-25.56
-31.07
-35.63
-36.78
-31.97
-19.77
-1.01
21.02
41.47
55.90
62.00
60.41
53.96
46.10
39.22
34.01
29.89
26.02
22.15
18.74
16.48
15.60
15.63
15.58
14.53
12.18
8.90
5.62
3.26
2.31
2.60
3.46
4.05
3.75
2.41
0.32
-1.91
-3.73
-4.80
-5.15
-5.10
-4.98
-5.01
-5.11
-4.91
-3.98
-2.07
0.73
3.99
7.11
9.63
11.38
12.50
13.26
13.91
14.47
14.86
15.02
15.00
14.99
15.15
15.51
15.82
15.76
15.02
13.44
11.16
8.28
5.02
1.52
-2.05
-5.51
-8.68
-11.40
-13.62
-15.40
-16.91
-18.22
-19.36
-20.09
-20.15
-19.22
-17.16
-14.07
-10.30
-6.34
-2.63
0.48
2.76
4.11
4.56
4.31
3.77
3.47
3.89
5.08
6.63
7.81
8.05
7.46
6.90
7.74
11.08
17.13
24.86
32.56
38.64
42.39
44.20
45.23
46.69
49.29
53.00
56.97
60.18
61.90
62.05
61.08
59.90
59.65
61.18
64.87
69.95
74.76
77.02
74.51
65.62
49.69
27.10
-1.28
-31.93
-61.01
-84.78
-100.52
-107.32
-106.23
-99.72
-90.58
-80.91
-71.59
-62.99
-55.44
-49.68
-46.79
-47.50
-51.49
-57.44
-63.44
-67.93
-70.46
-71.50
-71.83
-72.10
-72.69
-73.86
-75.94
-79.22
-83.57
-88.39
-92.64
-95.29
-95.74
-93.92
-90.06
-84.33
-76.75
-67.27
-56.39
-45.16
-35.06
-27.44
-22.90
-21.02
-20.59
-20.10
-18.22
-14.14
-7.58
1.21
11.57
22.52
32.89
41.67
48.23
52.52
54.89
55.83
55.54
53.86
50.39
44.91
37.70
29.62
21.89
15.64
11.67
10.24
11.24
14.26
18.73
23.91
28.91
32.83
34.92
34.83
32.76
29.43
25.84
22.99
21.58
21.86
23.63
26.43
29.70
33.00
36.06
38.76
41.02
42.72
43.77
44.08
43.69
42.72
41.37
39.74
37.80
35.34
31.92
27.11
20.61
12.50
3.36
-5.88
-14.15
-20.53
-24.49
-25.89
-24.90
-21.87
-17.29
-11.88
-6.61
-2.60
-0.87
-2.06
-6.18
-12.69
-20.63
-28.89
-36.38
-42.19
-45.66
-46.48
-44.82
-41.32
-36.94
-32.74
-29.45
-27.32
-26.06
-25.11
-23.87
-21.94
-19.20
-15.73
-11.79
-7.67
-3.69
-0.07
3.05
5.80
8.51
11.60
15.47
20.26
25.78
31.53
36.90
41.33
44.49
46.30
46.81
46.05
43.98
40.49
35.54
29.22
21.90
14.10
6.38
-0.73
-6.82
-11.56
-14.71
-16.19
-16.02
-14.49
-12.07
-9.32
-6.78
-4.87
-3.90
-4.04
-5.46
-8.27
-12.58
-18.33
-25.25
-32.80
-40.17
-46.36
-50.35
-51.31
-48.89
-43.31
-35.37
-26.25
-17.24
-9.38
-3.25
1.10
3.96
5.81
7.02
7.72
7.79
6.94
4.88
1.41
-3.41
-9.25
-15.53
-21.53
-26.60
-30.35
-32.81
-34.42
-35.83
-37.60
-39.93
-42.59
-45.00
-46.48
-46.54
-44.93
-41.60
-36.60
-29.95
-21.67
-11.72
-0.04
13.46
28.77
45.83
64.32
83.59
102.71
120.59
136.15
148.43
156.69
160.33
159.00
152.65
141.62
126.68
109.00
89.90
70.73
52.65
36.56
23.09
12.55
4.95
0.12
-2.30
-2.68
-1.50
0.69
3.25
5.46
6.71
6.59
5.01
2.09
-1.88
-6.57
-11.63
-16.72
-21.39
-25.18
-27.77
-28.98
-28.87
-27.68
-25.69
-23.19
-20.47
-17.89
-15.92
-15.04
-15.58
-17.61
-20.88
-24.94
-29.23
-33.24
-36.52
-38.72
-39.62
-39.18
-37.58
-35.21
-32.59
-30.21
-28.48
-27.62
-27.79
-29.01
-31.27
-34.39
-38.02
-41.61
-44.48
-45.89
-45.13
-41.64
-35.15
-25.69
-13.77
-0.26
13.82
27.54
40.22
51.50
61.15
68.88
74.33
77.07
76.79
73.53
67.60
59.55
49.98
39.37
28.15
16.75
5.66
-4.53
-13.25
-20.14
-25.08
-28.24
-29.94
-30.55
-30.36
-29.65
-28.60
-27.41
-26.25
-25.17
-24.00
-22.33
-19.55
-15.09
-8.71
-0.62
8.44
17.42
25.29
31.29
35.07
36.71
36.51
34.85
32.10
28.58
24.56
20.34
16.21
12.48
9.46
7.42
6.59
7.01
8.53
10.80
13.27
15.37
16.55
16.34
14.41
10.49
4.46
-3.63
-13.45
-24.45
-35.92
-47.19
-57.62
-66.67
-73.77
-78.30
-79.67
-77.49
-71.81
-63.17
-52.48
-40.77
-28.96
-17.65
-7.23
2.06
10.02
16.46
21.26
24.47
26.28
26.92
26.65
25.69
24.24
22.54
20.86
19.38
18.11
16.94
15.72
14.39
13.12
12.11
11.57
11.46
11.49
11.32
10.65
9.42
7.71
5.77
3.86
2.24
1.13
0.73
1.16
2.39
4.22
6.32
8.29
9.85
10.88
11.47
11.74
11.76
11.40
10.41
8.48
5.47
1.49
-3.04
-7.52
-11.38
-14.10
-15.38
-14.95
-12.58
-8.13
-1.73
6.04
14.14
21.13
25.54
26.26
22.78
15.34
4.76
-7.74
-20.83
-33.24
-43.89
-51.99
-57.04
-58.92
-57.90
-54.60
-49.76
-44.13
-38.27
-32.40
-26.50
-20.39
-13.97
-7.32
-0.73
5.30
10.27
13.79
15.78
16.46
16.24
15.53
14.58
13.43
11.97
10.10
7.85
5.46
3.30
1.74
1.04
1.28
2.36
4.00
5.78
7.13
7.43
6.16
3.13
-1.37
-6.65
-11.72
-15.64
-17.77
-17.87
-16.05
-12.70
-8.28
-3.34
1.56
5.90
9.33
11.70
13.21
14.26
15.24
16.36
17.61
18.79
19.72
20.32
20.67
20.87
20.99
20.97
20.75
20.24
19.45
18.49
17.47
16.43
15.33
14.12
12.76
11.27
9.70
8.10
6.49
4.90
3.38
2.09
1.23
1.08
1.88
3.71
6.40
9.57
12.67
15.27
17.11
18.22
18.79
19.08
19.30
19.56
19.90
20.37
20.98
21.72
22.47
23.09
23.44
23.50
23.32
22.96
22.34
21.18
19.07
15.71
11.04
5.33
-0.90
-7.04
-12.59
-17.17
-20.64
-22.99
-24.39
-24.98
-24.87
-24.06
-22.36
-19.51
-15.31
-9.84
-3.54
2.77
8.13
11.57
12.40
10.22
4.94
-3.21
-13.71
-25.68
-37.91
-49.06
-57.83
-63.25
-64.66
-61.51
-53.21
-39.13
-19.08
5.90
32.92
57.32
73.79
78.00
68.16
45.80
15.20
-17.95
-48.21
-71.65
-86.18
-91.41
-88.03
-77.41
-61.28
-41.57
-20.23
0.93
20.39
37.00
49.87
58.30
61.77
60.02
53.20
41.96
27.47
11.29
-4.84
-19.16
-30.06
-36.32
-37.30
-33.08
-24.53
-13.12
-0.66
11.13
20.94
28.10
32.50
34.49
34.68
33.70
32.13
30.36
28.54
26.65
24.51
22.02
19.17
16.18
13.44
11.41
10.45
10.73
12.15
14.37
16.87
19.11
20.67
21.32
21.02
19.87
17.99
15.47
12.39
8.88
5.14
1.42
-2.07
-5.30
-8.36
-11.43
-14.64
-17.98
-21.30
-24.34
-26.86
-28.69
-29.73
-29.96
-29.34
-27.88
-25.60
-22.56
-18.93
-14.98
-11.03
-7.48
-4.68
-2.93
-2.33
-2.73
-3.75
-4.87
-5.57
-5.47
-4.45
-2.62
-0.22
2.47
5.29
8.14
10.97
13.62
15.74
16.86
16.50
14.45
10.89
6.36
1.62
-2.62
-5.88
-7.96
-8.95
-9.10
-8.77
-8.28
-7.92
-7.78
-7.85
-8.01
-8.15
-8.29
-8.59
-9.22
-10.33
-11.84
-13.64
-15.68
-18.06
-20.97
-24.47
-28.27
-31.70
-33.87
-34.03
-31.85
-27.47
-21.39
-14.31
-6.91
0.25
6.68
11.98
15.91
18.37
19.32
18.79
16.82
13.53
9.23
4.49
0.07
-3.35
-5.35
-6.06
-5.96
-5.73
-5.85
-6.50
-7.57
-8.79
-9.96
-11.03
-12.15
-13.65
-15.83
-18.96
-23.09
-28.09
-33.66
-39.42
-45.02
-50.25
-54.95
-59.04
-62.44
-64.96
-66.41
-66.62
-65.59
-63.51
-60.72
-57.68
-54.77
-52.19
-49.87
-47.41
-44.19
-39.44
-32.48
-22.83
-10.22
5.40
23.79
44.38
66.18
87.81
107.70
124.53
137.56
146.88
153.14
157.19
159.71
161.12
161.68
161.64
161.23
160.37
158.41
154.26
146.75
135.35
120.52
103.67
86.58
70.66
56.54
44.15
33.10
23.14
14.42
7.34
2.36
-0.35
-1.06
-0.58
-0.16
-1.22
-4.88
-11.45
-20.19
-29.40
-37.00
-41.30
-41.65
-38.51
-33.26
-27.51
-22.66
-19.51
-18.34
-19.01
-21.14
-24.25
-27.84
-31.53
-35.17
-38.82
-42.69
-46.86
-51.02
-54.55
-56.74
-57.17
-56.00
-53.89
-51.53
-49.17
-46.31
-41.91
-35.06
-25.56
-14.09
-1.76
10.64
22.90
35.04
46.59
56.33
62.63
64.49
62.36
58.03
53.67
50.55
48.39
45.85
41.77
36.18
30.30
25.75
23.24
22.12
20.64
17.01
10.28
0.59
-11.10
-23.54
-35.75
-47.13
-57.49
-66.93
-75.67
-83.86
-91.32
-97.50
-101.45
-102.25
-99.35
-92.87
-83.54
-72.43
-60.56
-48.64
-37.11
-26.25
-16.39
-7.92
-1.11
4.04
7.92
11.08
14.01
16.85
19.45
21.45
22.59
22.91
22.64
22.14
21.64
21.28
21.12
21.23
21.73
22.64
23.82
24.90
25.46
25.19
23.98
22.05
19.79
17.57
15.66
14.13
12.94
12.10
11.72
12.17
13.87
17.08
21.59
26.61
30.90
33.22
32.87
30.07
25.80
21.35
17.56
14.54
11.73
8.53
4.67
0.21
-4.87
-11.26
-20.19
-32.79
-49.07
-67.45
-85.19
-99.63
-109.44
-115.23
-118.94
-122.67
-127.36
-132.33
-135.45
-134.18
-126.47
-111.51
-90.02
-64.28
-37.69
-13.96
3.93
14.65
18.81
18.47
16.09
13.53
11.61
10.45
9.98
10.37
11.79
14.03
16.19
16.97
15.30
11.09
5.48
0.33
-2.62
-2.57
0.14
4.41
9.09
13.56
17.96
23.06
29.71
38.30
48.31
58.27
66.07
69.63
67.57
59.67
46.92
31.07
14.11
-2.21
-16.71
-28.71
-37.94
-44.18
-47.32
-47.22
-43.89
-37.63
-29.16
-19.65
-10.54
-3.27
1.11
2.26
0.59
-2.94
-7.12
-10.72
-12.71
-12.10
-8.14
-0.62
9.70
20.87
29.97
34.01
30.90
20.23
3.21
-17.88
-40.67
-63.19
-83.80
-100.89
-112.62
-117.14
-113.39
-101.81
-84.35
-63.96
-43.38
-24.30
-7.34
7.40
19.55
28.16
32.26
31.87
28.61
25.49
25.66
30.89
40.65
52.39
62.74
69.16
70.92
68.97
65.10
60.80
56.63
52.44
47.87
42.94
38.11
34.09
31.31
29.75
28.87
27.91
26.23
23.61
20.21
16.56
13.26
10.78
9.33
8.78
8.64
8.27
7.04
4.60
1.00
-3.42
-8.07
-12.39
-15.84
-17.99
-18.44
-16.98
-13.63
-8.80
-3.28
2.06
6.43
9.49
11.35
12.48
13.36
14.34
15.45
16.52
17.27
17.48
16.96
15.64
13.55
10.87
7.90
5.05
2.73
1.16
0.31
-0.11
-0.48
-1.13
-2.22
-3.69
-5.43
-7.37
-9.53
-11.99
-14.80
-17.99
-21.55
-25.51
-29.94
-34.79
-39.80
-44.33
-47.52
-48.52
-46.85
-42.59
-36.36
-29.14
-21.99
-15.77
-11.01
-7.87
-6.10
-5.25
-4.63
-3.60
-1.77
0.89
4.02
7.05
9.39
10.69
10.96
10.53
9.90
9.51
9.59
10.07
10.70
11.17
11.28
11.03
10.56
9.95
9.20
8.17
6.63
4.38
1.36
-2.42
-6.87
-11.83
-16.89
-21.45
-24.63
-25.61
-23.89
-19.59
-13.40
-6.43
0.26
5.86
10.02
12.71
14.14
14.63
14.54
14.25
14.04
14.02
14.09
13.97
13.41
12.35
11.00
9.71
8.75
8.20
7.86
7.44
6.74
5.68
4.37
2.90
1.31
-0.34
-1.96
-3.31
-4.20
-4.61
-4.87
-5.67
-7.79
-11.72
-17.27
-23.56
-29.17
-32.64
-32.93
-29.75
-23.62
-15.71
-7.44
-0.09
5.51
9.02
10.56
10.53
9.46
7.90
6.37
5.27
4.75
4.63
4.57
4.21
3.44
2.52
1.97
2.25
3.50
5.39
7.28
8.58
9.02
8.66
7.71
6.28
4.29
1.65
-1.63
-5.22
-8.63
-11.49
-13.78
-15.77
-17.78
-19.82
-21.48
-21.95
-20.53
-16.89
-11.34
-4.75
1.71
6.99
10.45
11.99
12.11
11.54
10.96
10.69
10.62
10.35
9.50
8.06
6.40
5.08
4.53
4.79
5.48
6.03
5.92
4.93
3.08
0.70
-1.83
-4.16
-6.08
-7.57
-8.74
-9.79
-10.93
-12.34
-14.15
-16.53
-19.59
-23.25
-27.09
-30.28
-31.79
-30.71
-26.78
-20.52
-13.09
-5.79
0.41
5.11
8.42
10.62
11.93
12.34
11.88
10.65
9.05
7.64
6.76
6.49
6.57
6.59
6.27
5.68
5.12
5.02
5.60
6.76
8.13
9.18
9.49
8.87
7.40
5.36
3.06
0.84
-1.13
-2.83
-4.46
-6.40
-9.07
-12.79
-17.46
-22.52
-26.97
-29.69
-29.81
-27.04
-21.71
-14.67
-6.98
0.36
6.59
11.31
14.43
16.14
16.78
16.81
16.57
16.24
15.82
15.25
14.57
13.94
13.57
13.62
14.08
14.83
15.82
17.14
18.91
21.17
23.51
25.13
25.15
22.94
18.55
12.72
6.54
1.01
-3.34
-6.49
-8.77
-10.63
-12.54
-14.80
-17.55
-20.65
-23.48
-25.12
-24.57
-21.30
-15.49
-8.14
-0.60
5.88
10.63
13.63
15.21
15.79
15.60
14.79
13.45
11.75
9.89
8.07
6.47
5.17
4.32
4.04
4.41
5.41
6.83
8.31
9.43
9.87
9.48
8.39
6.84
5.10
3.31
1.54
-0.27
-2.21
-4.43
-7.12
-10.46
-14.51
-19.11
-23.72
-27.50
-29.50
-28.97
-25.59
-19.68
-12.10
-4.03
3.33
9.06
12.64
14.07
13.78
12.46
10.79
9.22
7.92
6.79
5.72
4.73
3.97
3.64
3.82
4.38
5.04
5.50
5.64
5.52
5.33
5.22
5.17
4.98
4.35
3.09
1.16
-1.27
-3.88
-6.31
-8.40
-10.16
-11.95
-14.19
-17.26
-21.14
-25.26
-28.62
-30.08
-28.91
-25.04
-19.10
-12.20
-5.36
0.68
5.70
9.76
12.96
15.33
16.78
17.24
16.81
15.79
14.56
13.41
12.52
11.88
11.42
11.06
10.78
10.59
10.53
10.63
10.97
11.50
11.99
12.06
11.24
9.28
6.30
2.83
-0.38
-2.68
-3.83
-4.08
-4.04
-4.50
-6.10
-9.19
-13.74
-19.27
-24.85
-29.30
-31.41
-30.37
-25.99
-18.99
-10.59
-2.24
4.86
10.07
13.37
15.14
15.92
16.13
16.00
15.65
15.21
14.87
14.80
15.10
15.69
16.30
16.67
16.64
16.27
15.81
15.54
15.59
15.85
16.05
15.88
15.11
13.67
11.62
9.09
6.32
3.67
1.44
-0.16
-1.24
-2.27
-4.04
-7.31
-12.39
-18.79
-25.22
-30.00
-31.73
-29.77
-24.56
-17.29
-9.43
-2.12
4.01
8.88
12.59
15.18
16.60
16.74
15.72
13.91
11.85
9.99
8.51
7.33
6.26
5.25
4.40
3.92
3.96
4.47
5.18
5.82
6.11
5.93
5.29
4.22
2.83
1.25
-0.39
-2.03
-3.66
-5.42
-7.55
-10.31
-13.78
-17.93
-22.40
-26.60
-29.75
-31.00
-29.72
-25.69
-19.27
-11.34
-3.07
4.41
10.30
14.25
16.32
16.81
16.11
14.62
12.72
10.81
9.14
7.90
7.09
6.58
6.18
5.78
5.37
4.99
4.78
4.72
4.77
4.72
4.30
3.22
1.34
-1.24
-4.16
-6.92
-9.14
-10.69
-11.85
-13.10
-14.95
-17.72
-21.36
-25.45
-29.25
-31.87
-32.43
-30.37
-25.58
-18.59
-10.50
-2.66
3.73
8.02
10.25
11.06
11.30
11.65
12.44
13.47
14.35
14.69
14.32
13.38
12.22
11.15
10.29
9.60
8.97
8.36
7.93
7.83
8.05
8.30
8.03
6.77
4.41
1.29
-1.87
-4.37
-5.89
-6.59
-7.08
-8.08
-10.15
-13.44
-17.75
-22.42
-26.64
-29.50
-30.18
-28.21
-23.52
-16.53
-8.06
0.83
9.02
15.58
19.93
21.92
21.90
20.58
18.82
17.32
16.41
16.09
16.10
16.09
15.85
15.31
14.62
13.98
13.61
13.67
14.18
14.95
15.71
16.07
15.68
14.31
11.96
8.86
5.41
2.08
-0.83
-3.30
-5.71
-8.58
-12.37
-17.12
-22.19
-26.53
-28.94
-28.58
-25.27
-19.51
-12.34
-4.89
1.88
7.35
11.33
13.84
15.06
15.12
14.12
12.18
9.57
6.74
4.23
2.53
1.90
2.23
3.04
3.75
3.91
3.42
2.50
1.52
0.77
0.30
-0.11
-0.78
-1.91
-3.47
-5.28
-7.08
-8.86
-10.85
-13.47
-17.09
-21.75
-26.95
-31.73
-34.87
-35.37
-32.66
-26.91
-18.89
-9.72
-0.60
7.55
14.06
18.59
21.16
21.97
21.43
20.07
18.38
16.66
14.96
13.13
11.00
8.62
6.38
4.87
4.57
5.57
7.40
9.17
10.04
9.56
7.90
5.74
3.82
2.57
1.91
1.41
0.50
-1.23
-3.92
-7.63
-12.33
-17.77
-23.39
-28.20
-30.92
-30.50
-26.52
-19.44
-10.48
-1.20
7.06
13.50
17.98
20.78
22.33
23.04
23.21
23.05
22.68
22.14
21.42
20.43
19.19
17.91
16.92
16.60
17.19
18.57
20.19
21.37
21.39
20.00
17.35
13.99
10.56
7.50
4.83
2.20
-0.88
-4.82
-9.66
-15.11
-20.58
-25.41
-28.96
-30.68
-30.20
-27.34
-22.32
-15.70
-8.43
-1.59
3.84
7.31
8.79
8.77
7.98
7.08
6.52
6.34
6.30
6.11
5.55
4.70
3.80
3.23
3.17
3.61
4.27
4.83
5.07
4.97
4.66
4.22
3.66
2.77
1.38
-0.63
-3.20
-6.14
-9.26
-12.52
-15.96
-19.56
-23.03
-25.76
-26.98
-26.01
-22.62
-17.15
-10.42
-3.47
2.73
7.50
10.59
12.08
12.37
11.96
11.36
10.86
10.54
10.29
9.91
9.34
8.66
8.07
7.76
7.79
8.12
8.64
9.23
9.73
9.92
9.58
8.51
6.66
4.27
1.78
-0.38
-1.97
-3.11
-4.23
-5.86
-8.38
-11.83
-15.92
-20.03
-23.35
-25.05
-24.50
-21.45
-16.20
-9.56
-2.65
3.46
8.11
11.16
12.98
14.12
15.02
15.80
16.29
16.24
15.49
14.16
12.57
11.15
10.25
9.98
10.25
10.78
11.24
11.34
10.94
10.04
8.76
7.24
5.66
4.05
2.39
0.61
-1.23
-3.04
-4.72
-6.29
-8.10
-10.72
-14.65
-19.92
-25.82
-30.92
-33.57
-32.51
-27.48
-19.42
-10.03
-1.21
5.66
10.07
12.23
12.80
12.45
11.70
10.77
9.73
8.60
7.46
6.43
5.64
5.18
5.06
5.20
5.44
5.59
5.53
5.27
4.93
4.64
4.46
4.26
3.80
2.86
1.43
-0.40
-2.45
-4.61
-7.00
-9.85
-13.42
-17.67
-22.16
-25.97
-27.99
-27.34
-23.69
-17.46
-9.68
-1.62
5.56
11.16
14.92
16.92
17.45
16.88
15.56
13.90
12.23
10.82
9.78
9.02
8.35
7.63
6.84
6.11
5.68
5.70
6.21
7.05
7.83
8.12
7.54
6.00
3.72
1.17
-1.16
-2.97
-4.28
-5.43
-6.84
-8.91
-11.85
-15.71
-20.27
-25.04
-29.25
-31.80
-31.71
-28.42
-22.19
-14.18
-6.00
0.86
5.64
8.42
9.96
11.04
12.12
13.24
14.14
14.64
14.75
14.66
14.53
14.35
13.97
13.24
12.13
10.79
9.52
8.60
8.22
8.35
8.76
9.09
8.95
8.12
6.59
4.63
2.63
0.94
-0.30
-1.29
-2.52
-4.55
-7.83
-12.43
-17.94
-23.52
-28.03
-30.40
-29.91
-26.42
-20.40
-12.78
-4.74
2.67
8.64
12.81
15.22
16.20
16.26
15.88
15.35
14.73
13.93
12.89
11.62
10.36
9.39
8.97
9.17
9.85
10.73
11.47
11.78
11.44
10.40
8.73
6.62
4.32
2.09
0.09
-1.65
-3.34
-5.24
-7.62
-10.68
-14.45
-18.73
-23.03
-26.60
-28.56
-28.11
-24.90
-19.19
-11.83
-4.04
3.02
8.53
12.20
14.17
14.84
14.67
13.97
12.94
11.69
10.31
8.87
7.49
6.32
5.47
5.03
5.03
5.37
5.92
6.43
6.64
6.33
5.36
3.77
1.73
-0.47
-2.52
-4.18
-5.34
-6.15
-6.99
-8.38
-10.86
-14.71
-19.76
-25.25
-29.94
-32.47
-31.78
-27.52
-20.27
-11.28
-2.21
5.52
11.02
14.11
15.17
14.89
13.91
12.67
11.43
10.34
9.51
8.97
8.72
8.63
8.49
8.21
7.77
7.36
7.20
7.47
8.18
9.07
9.72
9.68
8.61
6.44
3.43
0.09
-2.96
-5.25
-6.74
-7.80
-9.15
-11.53
-15.30
-20.27
-25.62
-30.18
-32.77
-32.62
-29.56
-24.10
-17.16
-9.82
-2.96
2.90
7.55
11.07
13.57
15.15
15.85
15.80
15.16
14.21
13.18
12.26
11.52
10.95
10.58
10.43
10.56
10.96
11.50
11.98
12.17
11.93
11.24
10.21
8.97
7.64
6.34
5.08
3.91
2.79
1.61
0.17
-1.83
-4.65
-8.54
-13.44
-19.02
-24.58
-29.15
-31.67
-31.29
-27.67
-21.19
-12.92
-4.32
3.25
8.91
12.50
14.45
15.48
16.21
16.90
17.51
17.91
18.01
17.86
17.57
17.18
16.61
15.73
14.51
13.13
11.91
11.24
11.30
11.97
12.73
12.92
11.97
9.76
6.64
3.25
0.22
-2.21
-4.24
-6.40
-9.22
-12.93
-17.42
-22.28
-26.97
-30.76
-32.84
-32.41
-28.95
-22.48
-13.85
-4.54
3.88
10.23
14.12
15.84
16.06
15.40
14.18
12.53
10.49
8.22
5.95
4.00
2.65
2.02
2.16
2.85
3.75
4.46
4.69
4.40
3.78
3.15
2.68
2.31
1.76
0.73
-0.85
-2.87
-5.01
-7.04
-8.94
-11.01
-13.73
-17.58
-22.65
-28.45
-33.80
-37.17
-37.16
-33.10
-25.40
-15.47
-5.26
3.45
9.65
13.23
14.77
15.10
14.87
14.41
13.76
12.97
12.14
11.47
11.16
11.19
11.38
11.41
11.06
10.31
9.35
8.45
7.74
7.19
6.60
5.73
4.46
2.87
1.09
-0.72
-2.53
-4.40
-6.44
-8.78
-11.54
-14.89
-18.91
-23.48
-28.14
-32.01
-34.05
-33.35
-29.54
-22.97
-14.66
-5.95
1.90
8.02
12.14
14.43
15.44
15.77
15.94
16.22
16.58
16.77
16.49
15.61
14.29
12.92
11.91
11.49
11.64
12.09
12.59
12.94
13.10
13.07
12.78
12.06
10.73
8.70
6.06
3.13
0.23
-2.31
-4.41
-6.24
-8.27
-11.05
-14.94
-19.86
-25.11
-29.46
-31.51
-30.26
-25.53
-18.04
-9.13
-0.20
7.64
13.90
18.56
21.79
23.71
24.35
23.76
22.11
19.78
17.27
15.11
13.61
12.93
12.93
13.33
13.83
14.12
14.01
13.44
12.52
11.36
10.03
8.48
6.57
4.22
1.53
-1.27
-3.83
-5.94
-7.71
-9.51
-11.94
-15.46
-20.21
-25.72
-30.98
-34.67
-35.49
-32.69
-26.37
-17.55
-7.85
1.02
7.80
12.10
14.24
14.92
14.77
14.11
12.94
11.16
8.84
6.28
3.98
2.35
1.54
1.48
1.89
2.48
3.02
3.43
3.63
3.54
3.03
1.99
0.41
-1.53
-3.50
-5.23
-6.66
-8.04
-9.81
-12.42
-16.08
-20.62
-25.51
-30.02
-33.27
-34.45
-33.00
-28.73
-22.08
-13.94
-5.50
2.04
7.89
11.76
13.85
14.66
14.66
14.18
13.42
12.45
11.33
10.12
8.94
7.95
7.27
7.01
7.15
7.59
8.17
8.71
9.02
8.94
8.26
6.88
4.82
2.25
-0.46
-3.02
-5.29
-7.35
-9.51
-12.16
-15.62
-19.92
-24.78
-29.64
-33.70
-36.05
-35.91
-32.81
-26.75
-18.36
-8.84
0.38
8.00
13.26
16.20
17.44
17.79
17.90
17.98
17.84
17.23
16.09
14.66
13.44
12.78
12.78
13.23
13.84
14.37
14.80
15.16
15.42
15.43
14.96
13.93
12.43
10.72
9.09
7.68
6.40
4.98
3.08
0.30
-3.66
-8.96
-15.44
-22.42
-28.63
-32.54
-32.80
-28.87
-21.31
-11.64
-1.80
6.55
12.56
16.29
18.36
19.51
20.19
20.45
20.07
18.95
17.17
15.13
13.27
11.92
11.08
10.58
10.17
9.71
9.19
8.61
7.96
7.07
5.80
4.07
2.01
-0.14
-2.09
-3.71
-5.11
-6.61
-8.68
-11.75
-15.98
-21.09
-26.27
-30.34
-32.08
-30.64
-25.89
-18.54
-9.85
-1.23
6.14
11.66
15.19
17.00
17.44
16.84
15.45
13.44
11.03
8.47
6.11
4.27
3.20
2.90
3.20
3.77
4.25
4.36
4.00
3.24
2.23
1.18
0.12
-0.97
-2.18
-3.56
-5.08
-6.74
-8.68
-11.21
-14.75
-19.53
-25.34
-31.30
-36.05
-38.15
-36.49
-30.95
-22.39
-12.43
-2.91
4.72
9.86
12.70
13.92
14.26
14.14
13.69
12.83
11.58
10.18
8.99
8.26
8.07
8.27
8.60
8.90
9.17
9.45
9.80
10.08
10.07
9.42
7.93
5.58
2.65
-0.41
-3.16
-5.30
-6.84
-8.13
-9.71
-12.18
-15.88
-20.76
-26.27
-31.41
-34.98
-35.91
-33.57
-27.96
-19.80
-10.26
-0.70
7.61
13.81
17.55
19.02
18.90
18.09
17.37
17.16
17.37
17.59
17.39
16.58
15.38
14.14
13.28
12.95
13.05
13.35
13.65
13.83
13.82
13.53
12.82
11.46
9.40
6.74
3.75
0.80
-1.95
-4.59
-7.54
-11.33
-16.30
-22.25
-28.26
-32.84
-34.44
-32.05
-25.67
-16.40
-6.07
3.44
10.80
15.55
18.02
18.84
18.61
17.67
16.17
14.28
12.31
10.65
9.63
9.31
9.45
9.62
9.47
8.87
7.96
7.06
6.42
6.12
5.95
5.61
4.73
3.09
0.70
-2.29
-5.63
-9.08
-12.51
-15.90
-19.30
-22.73
-26.04
-28.84
-30.44
-30.08
-27.15
-21.48
-13.61
-4.67
3.88
10.70
15.01
16.78
16.58
15.30
13.71
12.31
11.17
10.20
9.21
8.19
7.17
6.28
5.63
5.28
5.21
5.32
5.44
5.35
4.87
3.87
2.36
0.46
-1.61
-3.63
-5.46
-7.13
-8.80
-10.77
-13.40
-16.99
-21.61
-26.90
-32.08
-36.04
-37.73
-36.43
-32.11
-25.32
-17.10
-8.62
-0.88
5.41
9.92
12.69
13.98
14.27
13.99
13.51
13.01
12.52
12.04
11.58
11.22
10.99
10.85
10.68
10.37
9.91
9.41
8.95
8.54
8.01
7.08
5.55
3.38
0.77
-1.95
-4.53
-6.88
-9.13
-11.61
-14.69
-18.61
-23.31
-28.27
-32.52
-34.90
-34.40
-30.57
-23.78
-15.09
-5.92
2.52
9.53
14.97
19.13
22.29
24.60
26.02
26.50
26.17
25.34
24.40
23.63
23.14
22.84
22.62
22.43
22.33
22.36
22.48
22.50
22.15
21.22
19.60
17.39
14.74
11.85
8.85
5.82
2.77
-0.27
-3.33
-6.55
-10.21
-14.64
-19.93
-25.66
-30.73
-33.70
-33.25
-28.81
-20.91
-11.04
-1.06
7.39
13.43
17.01
18.61
18.92
18.45
17.43
15.92
13.89
11.42
8.69
6.03
3.84
2.50
2.20
2.92
4.35
5.98
7.28
7.82
7.35
5.94
3.83
1.41
-0.98
-3.11
-4.94
-6.54
-8.14
-10.18
-13.10
-17.24
-22.54
-28.30
-33.25
-35.86
-34.87
-29.85
-21.47
-11.29
-1.25
7.02
12.63
15.54
16.35
15.85
14.75
13.52
12.40
11.40
10.44
9.44
8.36
7.23
6.14
5.18
4.42
3.86
3.47
3.24
3.20
3.29
3.40
3.25
2.54
1.01
-1.30
-4.16
-7.17
-10.06
-12.90
-16.00
-19.74
-24.22
-29.02
-33.21
-35.68
-35.46
-32.20
-26.20
-18.35
-9.73
-1.42
5.84
11.54
15.42
17.46
17.81
16.93
15.46
14.03
13.09
12.71
12.63
12.44
11.88
11.01
10.14
9.70
9.94
10.74
11.68
12.24
11.99
10.75
8.68
6.08
3.36
0.83
-1.33
-3.13
-4.74
-6.50
-8.78
-11.92
-16.07
-20.93
-25.78
-29.55
-31.04
-29.36
-24.23
-16.20
-6.49
3.27
11.55
17.37
20.55
21.56
21.26
20.45
19.63
18.96
18.34
17.65
16.82
15.88
14.92
14.07
13.44
13.09
13.01
13.04
12.91
12.31
11.03
9.08
6.69
4.21
1.91
-0.15
-2.11
-4.20
-6.69
-9.72
-13.39
-17.66
-22.35
-27.03
-30.86
-32.79
-31.86
-27.65
-20.52
-11.64
-2.54
5.31
11.03
14.44
15.89
16.03
15.43
14.50
13.42
12.29
11.22
10.30
9.59
9.06
8.64
8.20
7.67
7.06
6.43
5.80
5.11
4.29
3.27
2.10
0.85
-0.44
-1.91
-3.75
-6.19
-9.27
-12.93
-17.07
-21.59
-26.38
-31.12
-35.12
-37.33
-36.75
-32.85
-25.92
-17.05
-7.69
0.81
7.62
12.51
15.67
17.47
18.23
18.19
17.48
16.28
14.75
13.16
11.74
10.67
9.99
9.59
9.33
9.07
8.82
8.69
8.79
9.08
9.29
9.01
7.83
5.60
2.53
-0.81
-3.80
-6.03
-7.52
-8.76
-10.46
-13.22
-17.29
-22.45
-28.06
-33.27
-37.08
-38.60
-37.10
-32.31
-24.50
-14.59
-3.99
5.85
13.75
19.18
22.24
23.40
23.28
22.45
21.35
20.31
19.53
19.03
18.64
18.06
17.04
15.58
13.97
12.68
12.08
12.22
12.73
13.09
12.74
11.39
9.06
5.95
2.40
-1.24
-4.62
-7.49
-9.74
-11.55
-13.41
-15.94
-19.58
-24.25
-29.18
-33.10
-34.71
-33.13
-28.26
-20.82
-11.97
-3.04
4.89
11.15
15.50
18.02
18.99
18.78
17.78
16.34
14.76
13.25
11.90
10.73
9.68
8.68
7.69
6.72
5.83
5.10
4.57
4.22
3.89
3.35
2.40
0.91
-1.12
-3.52
-6.12
-8.79
-11.57
-14.68
-18.35
-22.67
-27.35
-31.62
-34.36
-34.42
-31.08
-24.38
-15.21
-5.12
4.20
11.44
16.02
18.16
18.54
17.96
16.98
15.83
14.52
13.07
11.65
10.53
9.87
9.66
9.69
9.72
9.59
9.29
8.85
8.26
7.34
5.90
3.85
1.35
-1.24
-3.52
-5.25
-6.49
-7.59
-9.05
-11.33
-14.70
-19.22
-24.61
-30.28
-35.23
-38.29
-38.34
-34.80
-27.87
-18.56
-8.42
1.01
8.59
13.86
16.92
18.18
18.11
17.13
15.66
14.13
12.93
12.31
12.26
12.51
12.72
12.65
12.35
11.98
11.77
11.79
11.89
11.77
11.12
9.78
7.78
5.34
2.74
0.28
-1.82
-3.55
-5.07
-6.78
-9.18
-12.72
-17.60
-23.63
-30.03
-35.61
-39.00
-39.12
-35.55
-28.72
-19.74
-10.04
-0.94
6.65
12.30
15.98
17.95
18.59
18.39
17.80
17.22
16.85
16.68
16.62
16.51
16.32
16.08
15.92
15.86
15.82
15.70
15.46
15.10
14.62
13.92
12.74
10.78
7.85
4.09
-0.04
-3.89
-6.88
-8.79
-9.91
-10.90
-12.56
-15.43
-19.59
-24.59
-29.56
-33.33
-34.80
-33.13
-28.13
-20.36
-11.06
-1.78
6.12
11.88
15.46
17.38
18.26
18.59
18.50
17.96
16.94
15.58
14.09
12.66
11.32
10.02
8.76
7.72
7.17
7.35
8.24
9.52
10.61
10.90
9.99
7.83
4.73
1.19
-2.25
-5.23
-7.63
-9.55
-11.28
-13.21
-15.78
-19.30
-23.82
-28.88
-33.56
-36.61
-36.84
-33.63
-27.19
-18.56
-9.19
-0.50
6.63
11.93
15.62
18.04
19.39
19.64
18.76
16.88
14.40
11.92
10.02
9.00
8.80
9.05
9.31
9.24
8.86
8.42
8.23
8.46
8.98
9.39
9.20
8.04
5.86
2.95
-0.17
-3.00
-5.26
-6.98
-8.48
-10.21
-12.57
-15.81
-20.00
-25.05
-30.56
-35.81
-39.82
-41.47
-39.94
-35.00
-27.22
-17.85
-8.49
-0.44
5.67
9.91
12.82
14.93
16.44
17.23
17.08
16.00
14.40
12.94
12.20
12.38
13.17
13.93
14.09
13.46
12.31
11.17
10.52
10.47
10.73
10.75
9.97
8.12
5.33
2.11
-0.95
-3.35
-5.03
-6.25
-7.53
-9.37
-12.02
-15.48
-19.49
-23.61
-27.35
-30.11
-31.16
-29.89
-25.97
-19.66
-11.74
-3.39
4.23
10.42
15.01
18.24
20.50
22.05
22.93
23.09
22.59
21.68
20.80
20.30
20.31
20.56
20.52
19.75
18.15
16.12
14.41
13.69
14.23
15.81
17.82
19.59
20.51
20.12
18.05
14.00
7.73
-0.84
-11.56
-23.95
-37.22
-50.05
-60.65
-66.85
-66.77
-59.53
-45.78
-27.75
-8.70
7.88
19.08
23.47
21.42
14.84
6.28
-1.94
-8.67
-14.08
-19.49
-26.60
-36.41
-48.55
-61.57
-73.80
-84.03
-91.55
-96.10
-97.54
-96.39
-93.30
-88.87
-83.50
-77.54
-70.93
-63.22
-54.05
-43.56
-33.48
-25.90
-21.95
-20.90
-20.37
-16.98
-7.50
9.72
34.24
61.66
83.41
92.03
86.69
72.67
56.63
43.13
33.94
31.37
34.64
43.64
58.76
79.50
103.05
124.96
141.38
146.13
138.94
123.73
107.01
94.37
87.62
84.05
78.74
68.19
52.67
36.87
26.27
24.75
32.90
48.27
66.97
85.65
102.69
118.09
132.87
147.18
160.17
170.26
175.88
176.08
170.89
161.34
149.02
135.76
122.77
110.58
99.03
87.51
74.97
60.03
41.02
16.49
-14.10
-49.99
-88.87
-127.14
-160.69
-185.69
-199.56
-201.44
-192.17
-173.84
-149.22
-120.94
-91.04
-60.80
-31.11
-3.00
21.88
41.31
53.23
56.46
51.37
39.87
24.72
8.71
-6.04
-18.43
-28.28
-36.07
-42.43
-47.90
-52.82
-57.33
-61.51
-65.39
-68.90
-71.68
-73.00
-72.00
-68.10
-61.55
-53.53
-45.81
-39.94
-36.59
-35.38
-35.38
-35.90
-36.96
-39.19
-43.24
-49.08
-55.77
-61.86
-66.16
-68.32
-69.07
-69.70
-71.37
-74.51
-78.64
-82.73
-85.92
-88.11
-90.13
-93.47
-99.66
-109.55
-122.97
-138.53
-153.92
-166.44
-173.72
-174.46
-168.89
-158.68
-146.31
-134.12
-123.34
-113.65
-103.42
-90.39
-72.77
-49.89
-22.63
6.77
35.06
58.65
74.41
80.71
78.27
70.37
62.17
58.90
63.77
76.53
93.58
109.58
119.99
123.03
120.10
114.44
109.04
105.02
101.46
96.56
89.24
80.03
70.64
62.71
56.66
51.34
44.79
35.60
23.84
11.27
0.61
-5.76
-6.77
-3.08
3.19
9.38
13.23
13.62
10.86
6.36
1.81
-1.43
-2.94
-3.18
-3.09
-3.57
-5.05
-7.43
-10.20
-12.84
-15.03
-16.66
-17.76
-18.29
-18.09
-16.97
-14.77
-11.58
-7.67
-3.39
1.00
5.38
9.88
14.55
19.28
23.65
26.95
28.42
27.63
24.70
20.45
16.13
13.12
12.44
14.51
19.01
25.01
31.27
36.60
40.14
41.55
41.00
39.03
36.31
33.38
30.51
27.76
25.09
22.49
20.05
17.90
16.07
14.46
12.84
11.06
9.15
7.29
5.73
4.62
3.85
3.19
2.36
1.20
-0.37
-2.31
-4.65
-7.45
-10.76
-14.52
-18.45
-22.06
-24.77
-26.01
-25.45
-23.08
-19.19
-14.31
-9.09
-4.09
0.23
3.62
6.01
7.43
8.05
8.09
7.89
7.72
7.76
7.93
7.94
7.47
6.36
4.71
2.91
1.39
0.44
0.06
-0.04
-0.15
-0.55
-1.27
-2.23
-3.29
-4.36
-5.52
-6.96
-8.92
-11.59
-15.05
-19.10
-23.25
-26.70
-28.63
-28.40
-25.89
-21.59
-16.40
-11.36
-7.17
-4.08
-1.85
-0.06
1.63
3.29
4.75
5.71
6.06
5.87
5.46
5.13
5.11
5.43
5.99
6.66
7.31
7.86
8.22
8.24
7.74
6.64
5.00
3.09
1.28
-0.16
-1.19
-2.09
-3.29
-5.20
-7.97
-11.43
-15.14
-18.48
-20.89
-21.91
-21.27
-19.00
-15.40
-11.07
-6.69
-2.87
0.11
2.29
3.94
5.32
6.47
7.28
7.53
7.13
6.24
5.20
4.36
3.97
4.07
4.53
5.11
5.52
5.58
5.12
4.18
2.81
1.17
-0.56
-2.24
-3.73
-4.99
-6.05
-7.21
-8.85
-11.36
-14.86
-18.96
-22.85
-25.54
-26.29
-24.83
-21.53
-17.03
-12.01
-7.00
-2.39
1.55
4.53
6.35
6.97
6.69
6.02
5.50
5.46
5.92
6.66
7.39
7.92
8.24
8.40
8.44
8.28
7.81
6.97
5.84
4.63
3.58
2.85
2.47
2.27
1.90
0.94
-0.99
-4.10
-8.28
-13.05
-17.61
-21.08
-22.71
-22.16
-19.49
-15.16
-9.86
-4.32
0.75
4.83
7.60
9.07
9.58
9.64
9.72
10.12
10.88
11.82
12.73
13.42
13.83
13.94
13.78
13.37
12.76
12.07
11.44
10.98
10.71
10.57
10.41
10.07
9.37
8.17
6.39
4.04
1.22
-1.91
-5.24
-8.70
-12.27
-15.77
-18.84
-20.90
-21.38
-19.94
-16.61
-11.85
-6.36
-0.89
3.96
7.82
10.54
12.19
12.99
13.25
13.26
13.25
13.35
13.55
13.76
13.95
14.03
13.98
13.74
13.29
12.67
11.90
11.00
9.97
8.80
7.50
6.16
4.86
3.66
2.54
1.38
0.07
-1.53
-3.56
-6.17
-9.50
-13.55
-18.00
-22.15
-25.11
-25.99
-24.39
-20.47
-15.00
-8.92
-3.13
1.80
5.68
8.55
10.62
12.16
13.39
14.46
15.45
16.31
16.98
17.40
17.59
17.55
17.31
16.86
16.20
15.44
14.77
14.47
14.63
15.15
15.62
15.49
14.40
12.27
9.41
6.34
3.56
1.38
-0.24
-1.59
-3.13
-5.24
-8.14
-11.75
-15.73
-19.55
-22.69
-24.68
-25.18
-24.06
-21.33
-17.23
-12.21
-6.92
-2.06
1.79
4.40
5.89
6.67
7.19
7.69
8.19
8.49
8.42
7.99
7.45
7.07
7.06
7.39
7.82
8.09
8.05
7.69
7.17
6.61
6.05
5.40
4.54
3.34
1.76
-0.10
-2.13
-4.15
-6.05
-7.93
-10.01
-12.66
-16.11
-20.25
-24.47
-27.81
-29.22
-28.03
-24.22
-18.45
-11.76
-5.23
0.40
4.81
8.07
10.46
12.27
13.70
14.80
15.51
15.74
15.48
14.86
14.14
13.63
13.55
13.92
14.59
15.31
15.84
16.07
16.01
15.70
15.12
14.12
12.58
10.48
7.97
5.30
2.72
0.27
-2.27
-5.25
-9.02
-13.76
-19.31
-25.24
-30.86
-35.29
-37.74
-37.58
-34.58
-28.96
-21.46
-13.10
-4.92
2.21
7.83
11.89
14.64
16.46
17.70
18.59
19.21
19.54
19.49
19.09
18.41
17.65
17.03
16.70
16.62
16.66
16.61
16.36
15.95
15.47
15.05
14.59
13.86
12.57
10.47
7.56
4.00
0.10
-3.87
-7.68
-11.22
-14.53
-17.74
-21.12
-24.93
-29.32
-34.03
-38.40
-41.39
-42.00
-39.59
-34.23
-26.64
-17.97
-9.35
-1.59
4.91
10.17
14.33
17.47
19.57
20.55
20.48
19.67
18.65
17.94
17.87
18.42
19.30
20.16
20.69
20.85
20.70
20.41
20.04
19.59
18.98
18.07
16.71
14.76
12.17
9.03
5.61
2.27
-0.67
-3.12
-5.31
-7.61
-10.44
-14.08
-18.55
-23.64
-28.95
-33.87
-37.70
-39.66
-39.15
-35.86
-30.01
-22.25
-13.55
-4.83
3.12
9.88
15.27
19.30
22.02
23.60
24.30
24.43
24.29
24.09
23.87
23.52
22.92
22.03
20.95
19.92
19.16
18.84
18.98
19.49
20.17
20.75
20.89
20.24
18.55
15.78
12.18
8.29
4.69
1.71
-0.75
-3.21
-6.41
-10.80
-16.41
-22.72
-28.92
-34.16
-37.76
-39.28
-38.46
-35.24
-29.84
-22.80
-15.03
-7.57
-1.31
3.29
6.23
7.89
8.70
9.03
9.11
9.10
9.15
9.36
9.69
9.94
9.92
9.48
8.78
8.13
7.84
8.00
8.38
8.56
8.11
6.85
4.84
2.35
-0.30
-2.91
-5.38
-7.71
-9.97
-12.33
-15.06
-18.46
-22.73
-27.75
-33.00
-37.48
-40.06
-39.77
-36.22
-29.70
-21.14
-11.79
-2.80
5.03
11.40
16.29
19.81
22.00
22.89
22.57
21.39
19.91
18.71
18.16
18.21
18.46
18.40
17.73
16.51
15.09
13.91
13.21
12.91
12.66
12.06
10.86
8.96
6.44
3.43
0.09
-3.46
-7.08
-10.69
-14.33
-18.16
-22.43
-27.31
-32.70
-38.17
-42.85
-45.66
-45.63
-42.22
-35.57
-26.53
-16.36
-6.36
2.52
9.84
15.55
19.80
22.70
24.32
24.79
24.38
23.58
22.87
22.58
22.76
23.19
23.54
23.55
23.10
22.21
21.00
19.67
18.40
17.30
16.35
15.35
13.94
11.79
8.73
4.89
0.66
-3.49
-7.20
-10.44
-13.48
-16.78
-20.81
-25.81
-31.66
-37.83
-43.38
-47.17
-48.13
-45.59
-39.56
-30.76
-20.48
-10.13
-0.88
6.62
12.30
16.52
19.67
22.06
23.75
24.71
24.94
24.63
24.08
23.62
23.45
23.49
23.51
23.20
22.40
21.25
20.07
19.24
18.93
19.00
19.02
18.50
17.06
14.60
11.35
7.68
4.00
0.52
-2.77
-6.08
-9.72
-13.95
-18.79
-24.10
-29.49
-34.33
-37.91
-39.43
-38.24
-34.01
-26.92
-17.74
-7.67
1.94
10.01
15.98
19.90
22.29
23.73
24.69
25.39
25.88
26.17
26.25
26.14
25.71
24.75
22.98
20.36
17.10
13.76
11.03
9.36
8.74
8.70
8.46
7.34
5.06
1.75
-2.11
-5.93
-9.31
-12.12
-14.57
-17.08
-20.16
-24.19
-29.27
-35.01
-40.54
-44.75
-46.54
-45.26
-40.86
-33.90
-25.30
-16.10
-7.20
0.74
7.30
12.34
15.91
18.24
19.69
20.55
20.99
20.98
20.40
19.14
17.33
15.27
13.41
12.15
11.66
11.87
12.50
13.17
13.47
13.08
11.82
9.64
6.69
3.25
-0.34
-3.80
-7.05
-10.20
-13.43
-16.92
-20.77
-24.99
-29.53
-34.21
-38.60
-41.91
-43.16
-41.49
-36.54
-28.70
-19.01
-8.86
0.52
8.37
14.47
18.97
22.10
24.04
24.92
24.88
24.15
23.07
21.99
21.21
20.82
20.71
20.65
20.37
19.76
18.87
17.91
17.12
16.55
16.01
15.14
13.56
11.10
7.85
4.20
0.56
-2.76
-5.69
-8.39
-11.10
-14.11
-17.67
-21.98
-27.15
-33.06
-39.19
-44.57
-47.84
-47.72
-43.41
-35.01
-23.58
-10.88
1.19
11.13
18.17
22.32
24.22
24.76
24.78
24.87
25.28
25.99
26.84
27.65
28.32
28.79
28.97
28.76
28.02
26.69
24.85
22.78
20.80
19.15
17.88
16.75
15.40
13.50
10.89
7.63
3.91
0.03
-3.76
-7.29
-10.47
-13.43
-16.43
-19.84
-23.96
-28.85
-34.22
-39.39
-43.47
-45.58
-45.10
-41.84
-36.02
-28.26
-19.40
-10.38
-2.03
4.96
10.21
13.67
15.61
16.44
16.60
16.44
16.10
15.54
14.63
13.26
11.45
9.44
7.55
6.12
5.39
5.41
6.03
6.96
7.85
8.32
8.06
6.87
4.65
1.45
-2.51
-6.89
-11.30
-15.42
-19.09
-22.40
-25.65
-29.18
-33.13
-37.29
-40.98
-43.19
-42.94
-39.63
-33.32
-24.76
-15.12
-5.61
2.85
9.78
15.12
18.98
21.49
22.76
22.87
22.09
20.79
19.43
18.35
17.65
17.20
16.75
16.07
15.15
14.17
13.37
12.94
12.85
12.85
12.48
11.30
9.04
5.71
1.62
-2.68
-6.72
-10.17
-13.05
-15.67
-18.46
-21.86
-26.08
-31.05
-36.28
-41.00
-44.18
-44.82
-42.25
-36.38
-27.83
-17.72
-7.42
1.91
9.56
15.34
19.44
22.25
24.09
25.16
25.52
25.21
24.32
23.06
21.77
20.79
20.34
20.37
20.66
20.85
20.69
20.10
19.20
18.17
17.11
15.95
14.49
12.55
10.03
7.02
3.68
0.22
-3.18
-6.42
-9.48
-12.44
-15.57
-19.21
-23.72
-29.24
-35.55
-41.96
-47.36
-50.45
-50.22
-46.21
-38.76
-28.90
-18.04
-7.56
1.52
8.69
13.95
17.59
19.99
21.46
22.20
22.41
22.27
22.02
21.87
21.85
21.84
21.64
21.08
20.20
19.24
18.51
18.24
18.39
18.66
18.61
17.87
16.28
13.91
10.97
7.65
4.12
0.55
-2.92
-6.13
-9.04
-11.75
-14.54
-17.78
-21.79
-26.70
-32.33
-38.13
-43.26
-46.70
-47.52
-45.11
-39.40
-30.96
-20.83
-10.28
-0.41
7.99
14.65
19.57
22.94
24.95
25.73
25.47
24.43
22.96
21.44
20.13
19.10
18.29
17.64
17.16
16.93
17.05
17.49
18.05
18.37
18.09
16.96
14.94
12.19
9.05
5.87
2.90
0.24
-2.25
-4.86
-7.92
-11.67
-16.20
-21.40
-27.05
-32.78
-38.01
-41.96
-43.74
-42.57
-38.19
-30.96
-21.95
-12.53
-3.93
3.08
8.38
12.17
14.80
16.47
17.24
17.12
16.27
15.01
13.67
12.49
11.47
10.46
9.27
7.88
6.47
5.37
4.84
4.89
5.26
5.48
5.13
3.95
2.00
-0.50
-3.27
-6.17
-9.19
-12.44
-15.99
-19.86
-24.00
-28.33
-32.74
-36.99
-40.61
-42.82
-42.74
-39.69
-33.55
-24.87
-14.81
-4.71
4.25
11.44
16.73
20.31
22.52
23.62
23.80
23.20
22.00
20.43
18.80
17.43
16.51
16.06
15.91
15.82
15.57
15.15
14.70
14.36
14.05
13.40
11.88
9.06
5.00
0.22
-4.43
-8.24
-11.02
-13.15
-15.42
-18.60
-23.17
-29.03
-35.62
-41.99
-47.03
-49.62
-48.90
-44.50
-36.72
-26.55
-15.42
-4.73
4.44
11.68
17.02
20.83
23.50
25.33
26.46
26.95
26.84
26.15
24.90
23.15
21.05
18.89
17.02
15.78
15.36
15.71
16.51
17.38
17.93
17.88
17.09
15.49
13.07
9.89
6.12
2.07
-1.85
-5.32
-8.28
-10.98
-13.93
-17.67
-22.50
-28.35
-34.66
-40.54
-44.92
-46.81
-45.53
-40.89
-33.26
-23.54
-12.96
-2.76
6.05
12.93
17.75
20.78
22.40
22.98
22.91
22.47
21.93
21.47
21.16
20.99
20.84
20.60
20.21
19.74
19.31
19.06
19.05
19.31
19.70
20.00
19.89
19.00
16.99
13.74
9.44
4.61
-0.01
-3.76
-6.32
-7.94
-9.30
-11.35
-14.81
-19.91
-26.12
-32.30
-37.02
-38.99
-37.49
-32.51
-24.75
-15.34
-5.47
3.78
11.66
17.78
22.01
24.50
25.54
25.53
24.88
23.89
22.73
21.45
20.04
18.50
16.88
15.28
13.84
12.68
11.86
11.37
11.06
10.71
10.07
8.90
7.08
4.58
1.47
-2.14
-6.04
-10.05
-13.99
-17.76
-21.43
-25.20
-29.34
-33.96
-38.83
-43.27
-46.34
-47.09
-44.94
-39.89
-32.52
-23.79
-14.79
-6.43
0.69
6.34
10.53
13.46
15.34
16.36
16.63
16.20
15.13
13.61
11.92
10.41
9.36
8.87
8.87
9.20
9.68
10.18
10.55
10.60
10.08
8.78
6.68
3.92
0.83
-2.26
-5.22
-8.10
-11.14
-14.55
-18.54
-23.18
-28.45
-34.05
-39.45
-43.74
-45.88
-45.00
-40.72
-33.34
-23.78
-13.25
-2.95
6.20
13.60
19.01
22.40
23.97
24.08
23.21
21.90
20.60
19.56
18.92
18.66
18.63
18.63
18.46
17.94
17.07
15.98
14.88
13.97
13.25
12.54
11.55
10.01
7.85
5.19
2.28
-0.64
-3.44
-6.20
-9.19
-12.80
-17.38
-23.10
-29.72
-36.48
-42.20
-45.59
-45.62
-41.93
-34.95
-25.74
-15.64
-5.87
2.77
9.94
15.58
19.81
22.70
24.35
24.92
24.62
23.75
22.58
21.32
20.07
18.90
17.89
17.15
16.78
16.77
16.96
17.11
16.99
16.53
15.71
14.58
13.08
11.05
8.38
5.12
1.57
-1.82
-4.72
-7.04
-9.13
-11.55
-14.90
-19.52
-25.29
-31.60
-37.47
-41.68
-43.14
-41.09
-35.46
-26.88
-16.52
-5.81
4.00
12.09
18.19
22.42
25.09
26.62
27.32
27.48
27.33
27.05
26.74
26.43
26.08
25.60
24.98
24.26
23.57
23.07
22.91
23.16
23.70
24.26
24.44
23.88
22.33
19.76
16.30
12.19
7.69
3.05
-1.55
-5.96
-10.09
-13.95
-17.64
-21.38
-25.36
-29.63
-33.96
-37.74
-40.14
-40.31
-37.69
-32.23
-24.51
-15.59
-6.69
1.14
7.25
11.50
14.10
15.43
15.83
15.53
14.63
13.24
11.53
9.69
7.95
6.45
5.23
4.29
3.59
3.13
2.88
2.79
2.66
2.28
1.45
0.10
-1.69
-3.70
-5.76
-7.86
-10.10
-12.65
-15.63
-19.08
-22.95
-27.05
-31.17
-34.91
-37.76
-39.14
-38.59
-35.87
-31.09
-24.65
-17.15
-9.18
-1.29
6.06
12.44
17.46
20.85
22.56
22.77
21.90
20.44
18.80
17.21
15.71
14.27
12.84
11.51
10.48
10.00
10.19
10.91
11.76
12.18
11.73
10.24
7.89
5.07
2.10
-0.92
-4.13
-7.69
-11.62
-15.78
-19.99
-24.28
-28.84
-33.75
-38.66
-42.60
-44.27
-42.64
-37.47
-29.51
-20.16
-10.86
-2.58
4.36
10.11
14.89
18.77
21.66
23.43
24.11
23.93
23.20
22.19
21.06
19.90
18.78
17.79
17.00
16.38
15.85
15.25
14.52
13.68
12.82
11.95
10.97
9.64
7.71
5.09
1.95
-1.36
-4.43
-7.14
-9.69
-12.57
-16.32
-21.22
-27.02
-32.90
-37.62
-39.86
-38.71
-33.94
-26.10
-16.37
-6.16
3.25
11.09
17.06
21.26
23.98
25.50
26.04
25.73
24.73
23.23
21.50
19.84
18.45
17.43
16.78
16.43
16.28
16.29
16.43
16.70
16.95
16.97
16.41
15.01
12.62
9.37
5.63
1.93
-1.29
-3.78
-5.65
-7.31
-9.45
-12.66
-17.27
-23.09
-29.36
-34.93
-38.57
-39.34
-36.88
-31.48
-23.95
-15.39
-6.90
0.61
6.59
10.83
13.44
14.74
15.07
14.79
14.13
13.18
11.99
10.55
8.91
7.12
5.35
3.76
2.61
2.12
2.36
3.17
4.08
4.47
3.88
2.14
-0.45
-3.37
-6.18
-8.68
-11.05
-13.65
-16.76
-20.51
-24.76
-29.25
-33.61
-37.41
-40.07
-40.79
-38.79
-33.64
-25.54
-15.49
-5.05
4.17
11.09
15.45
17.77
18.91
19.67
20.35
20.80
20.69
19.78
18.11
15.97
13.73
11.67
9.99
8.80
8.18
8.13
8.54
9.09
9.32
8.80
7.29
4.86
1.83
-1.37
-4.40
-7.18
-9.84
-12.71
-16.13
-20.35
-25.37
-30.85
-36.07
-40.04
-41.73
-40.34
-35.61
-27.92
-18.25
-7.87
1.97
10.28
16.57
20.79
23.18
24.17
24.23
23.84
23.37
23.02
22.73
22.26
21.33
19.83
17.94
16.08
14.74
14.22
14.40
14.83
14.96
14.34
12.84
10.56
7.71
4.47
0.96
-2.68
-6.26
-9.63
-12.80
-16.05
-19.80
-24.42
-29.86
-35.43
-39.95
-42.02
-40.63
-35.46
-27.11
-16.88
-6.30
3.26
11.01
16.72
20.61
23.04
24.37
24.85
24.70
24.21
23.61
23.14
22.84
22.65
22.44
22.16
21.88
21.70
21.71
21.84
21.87
21.53
20.60
18.99
16.72
13.92
10.85
7.79
5.01
2.65
0.65
-1.29
-3.56
-6.64
-10.84
-16.26
-22.67
-29.48
-35.77
-40.44
-42.41
-40.91
-35.80
-27.65
-17.62
-7.17
2.40
10.20
15.90
19.64
21.82
22.89
23.24
23.14
22.78
22.22
21.42
20.32
18.85
17.07
15.13
13.30
11.82
10.74
9.95
9.14
7.99
6.22
3.74
0.62
-2.95
-6.68
-10.24
-13.38
-15.95
-18.03
-19.98
-22.31
-25.52
-29.78
-34.79
-39.76
-43.58
-45.11
-43.58
-38.74
-31.03
-21.40
-11.10
-1.32
6.99
13.33
17.56
19.91
20.79
20.67
19.98
19.06
18.08
17.09
16.04
14.91
13.78
12.82
12.21
12.00
12.06
12.14
11.91
11.12
9.70
7.68
5.18
2.33
-0.72
-3.82
-6.88
-9.89
-13.05
-16.70
-21.14
-26.40
-31.98
-36.94
-40.11
-40.46
-37.51
-31.44
-23.01
-13.34
-3.52
5.56
13.27
19.29
23.44
25.71
26.19
25.15
23.06
20.50
18.10
16.33
15.37
15.08
15.02
14.72
13.86
12.43
10.72
9.17
8.06
7.32
6.53
5.11
2.61
-1.04
-5.51
-10.28
-14.84
-19.00
-22.88
-26.81
-31.12
-36.05
-41.66
-47.79
-54.00
-59.58
-63.61
-65.11
-63.42
-58.46
-50.91
-42.04
-33.34
-26.04
-20.74
-17.29
-15.04
-13.20
-11.13
-8.50
-5.20
-1.21
3.54
9.13
15.57
22.65
29.98
37.02
43.27
48.43
52.35
55.03
56.49
56.70
55.60
53.12
49.37
44.57
39.13
33.57
28.37
23.87
20.09
16.75
13.30
9.12
3.78
-2.75
-9.93
-16.80
-22.16
-24.97
-24.62
-21.08
-14.92
-7.04
1.52
9.76
16.93
22.58
26.54
28.92
29.98
30.07
29.53
28.62
27.55
26.42
25.30
24.17
22.97
21.67
20.29
18.99
18.01
17.52
17.53
17.79
17.79
16.98
14.97
11.70
7.47
2.85
-1.56
-5.32
-8.32
-10.75
-13.02
-15.60
-18.93
-23.21
-28.31
-33.65
-38.31
-41.20
-41.41
-38.44
-32.42
-24.12
-14.68
-5.38
2.68
8.86
13.00
15.41
16.60
17.04
17.03
16.64
15.80
14.51
12.89
11.19
9.64
8.42
7.58
7.10
6.95
7.06
7.29
7.34
6.89
5.67
3.66
1.09
-1.67
-4.29
-6.59
-8.63
-10.64
-12.95
-15.87
-19.65
-24.36
-29.75
-35.13
-39.44
-41.46
-40.27
-35.56
-27.85
-18.36
-8.56
0.25
7.31
12.49
16.09
18.58
20.29
21.27
21.40
20.57
18.90
16.76
14.69
13.09
12.06
11.40
10.77
10.01
9.22
8.76
8.97
9.83
10.90
11.39
10.60
8.19
4.39
-0.11
-4.52
-8.22
-11.06
-13.28
-15.42
-18.08
-21.69
-26.36
-31.71
-36.88
-40.72
-41.99
-39.83
-34.01
-25.14
-14.51
-3.77
5.60
12.68
17.27
19.79
20.94
21.36
21.46
21.33
20.93
20.21
19.24
18.13
17.03
16.01
15.07
14.23
13.51
12.97
12.66
12.59
12.66
12.69
12.41
11.56
9.93
7.41
4.11
0.34
-3.45
-6.80
-9.49
-11.53
-13.30
-15.39
-18.34
-22.47
-27.62
-33.12
-37.90
-40.77
-40.76
-37.39
-30.88
-22.06
-12.15
-2.45
5.98
12.58
17.29
20.43
22.48
23.81
24.63
24.94
24.73
24.05
23.08
22.10
21.36
20.96
20.93
21.13
21.36
21.42
21.21
20.71
20.01
19.12
17.97
16.35
13.99
10.81
6.99
2.95
-0.79
-3.93
-6.48
-8.78
-11.28
-14.39
-18.32
-23.08
-28.45
-34.00
-38.98
-42.51
-43.63
-41.73
-36.77
-29.33
-20.52
-11.60
-3.59
2.89
7.67
10.89
12.88
13.97
14.41
14.41
14.06
13.41
12.47
11.35
10.22
9.33
8.90
9.06
9.81
11.00
12.43
13.89
15.20
16.13
16.47
15.94
14.40
11.85
8.61
5.18
2.14
-0.13
-1.57
-2.56
-3.70
-5.57
-8.43
-11.97
-15.32
-17.23
-16.47
-12.22
-4.42
6.16
18.16
30.04
40.54
49.05
55.61
60.68
64.76
68.01
70.05
69.92
66.26
57.54
42.46
20.45
-7.83
-40.22
-73.24
-102.77
-125.06
-137.75
-140.40
-134.50
-122.76
-108.22
-93.48
-80.19
-69.11
-60.32
-53.47
-47.91
-42.74
-36.92
-29.48
-19.78
-7.99
4.88
17.17
27.22
34.25
38.90
43.18
49.73
60.75
77.09
97.99
121.41
144.90
166.27
183.68
195.26
198.99
192.97
176.38
150.32
117.91
83.42
50.68
21.73
-3.63
-27.12
-50.49
-74.28
-97.27
-117.11
-131.53
-139.31
-140.66
-136.99
-130.18
-122.05
-114.08
-107.81
-105.36
-109.34
-121.82
-142.85
-169.61
-196.64
-217.52
-226.91
-222.09
-203.79
-175.34
-140.96
-104.25
-67.74
-32.90
-0.70
28.43
54.57
77.75
97.58
113.04
122.82
125.78
121.73
111.54
96.73
80.71
67.24
57.98
51.95
47.64
43.46
40.39
39.37
40.45
42.67
44.29
44.12
41.51
37.10
32.28
28.53
26.29
25.15
24.33
22.94
20.47
17.01
13.23
9.83
7.17
5.07
3.25
1.83
1.34
2.47
5.79
11.49
18.99
27.20
34.64
40.07
42.83
42.87
40.64
36.91
32.69
28.91
26.17
24.50
23.33
21.83
19.21
15.18
10.07
4.80
0.33
-2.73
-4.36
-5.02
-5.24
-5.33
-5.36
-5.24
-4.92
-4.52
-4.25
-4.27
-4.54
-4.95
-5.44
-6.10
-7.24
-9.22
-12.27
-16.26
-20.69
-24.77
-27.69
-28.86
-28.13
-25.74
-22.25
-18.19
-13.99
-9.89
-6.02
-2.62
-0.06
1.26
1.04
-0.70
-3.53
-6.73
-9.45
-11.05
-11.23
-10.15
-8.40
-6.80
-6.08
-6.57
-8.10
-10.08
-11.81
-12.88
-13.28
-13.40
-13.65
-14.34
-15.47
-16.94
-18.74
-21.02
-24.01
-27.77
-32.04
-36.31
-39.96
-42.60
-44.14
-44.66
-44.21
-42.65
-39.72
-35.25
-29.30
-22.31
-14.81
-7.35
-0.29
6.02
11.22
14.90
16.72
16.67
15.10
12.56
9.52
6.15
2.41
-1.67
-5.67
-8.75
-9.96
-8.61
-4.52
1.88
9.87
18.60
27.22
34.83
40.50
43.33
42.74
38.70
31.77
22.96
13.40
4.08
-4.28
-11.21
-16.44
-19.84
-21.55
-21.92
-21.43
-20.45
-19.05
-16.95
-13.62
-8.62
-1.88
6.21
14.85
23.11
30.18
35.54
38.98
40.60
40.69
39.74
38.35
37.01
35.94
34.97
33.63
31.42
28.05
23.52
18.15
12.38
6.64
1.42
-2.84
-5.74
-7.15
-7.21
-6.49
-5.73
-5.61
-6.39
-7.75
-8.95
-9.11
-7.57
-4.10
1.02
7.19
13.64
19.66
24.77
28.73
31.51
33.17
33.79
33.44
32.29
30.66
28.94
27.48
26.42
25.65
24.78
23.45
21.47
18.99
16.40
14.19
12.74
12.02
11.68
11.16
9.99
7.93
5.10
1.81
-1.65
-5.18
-8.89
-12.88
-17.01
-20.85
-23.74
-25.21
-25.29
-24.52
-23.71
-23.41
-23.63
-23.78
-23.15
-21.34
-18.49
-15.18
-11.99
-9.19
-6.62
-3.88
-0.71
2.71
5.89
8.18
9.18
8.89
7.73
6.32
5.20
4.63
4.43
4.15
3.26
1.44
-1.22
-4.29
-7.18
-9.44
-11.04
-12.35
-13.99
-16.49
-20.05
-24.39
-28.72
-32.08
-33.60
-32.85
-29.98
-25.65
-20.68
-15.74
-11.12
-6.75
-2.44
1.88
6.03
9.67
12.43
14.19
15.07
15.39
15.48
15.52
15.58
15.58
15.48
15.33
15.15
15.00
14.80
14.42
13.71
12.65
11.34
9.96
8.67
7.42
6.01
4.18
1.74
-1.35
-4.98
-9.01
-13.20
-17.21
-20.60
-22.73
-23.05
-21.28
-17.55
-12.44
-6.73
-1.05
4.26
9.19
13.91
18.50
22.81
26.56
29.40
31.19
32.04
32.26
32.24
32.30
32.60
33.20
34.12
35.36
36.86
38.49
40.04
41.20
41.71
41.42
40.35
38.69
36.82
35.10
33.81
32.97
32.34
31.44
29.71
26.64
21.87
15.22
6.67
-3.63
-15.21
-27.32
-38.96
-49.10
-57.03
-62.51
-65.77
-67.27
-67.41
-66.40
-64.24
-60.95
-56.74
-52.06
-47.36
-43.04
-39.16
-35.62
-32.22
-28.80
-25.36
-21.94
-18.57
-15.21
-11.79
-8.23
-4.63
-1.24
1.63
3.70
4.85
5.09
4.56
3.34
1.43
-1.17
-4.41
-8.11
-11.93
-15.42
-18.24
-20.17
-21.25
-21.63
-21.56
-21.21
-20.66
-19.87
-18.73
-17.21
-15.41
-13.58
-12.05
-11.06
-10.66
-10.74
-11.12
-11.69
-12.52
-13.67
-15.06
-16.39
-17.19
-17.03
-15.84
-13.84
-11.37
-8.50
-4.92
-0.04
6.55
14.59
23.04
30.40
35.33
37.23
36.41
33.87
30.69
27.55
24.54
21.36
17.74
13.77
9.88
6.60
4.22
2.49
0.79
-1.58
-4.87
-8.74
-12.25
-14.22
-13.83
-10.93
-6.14
-0.63
4.21
7.11
7.24
4.48
-0.45
-6.09
-10.59
-12.24
-10.04
-4.05
4.73
14.64
23.92
31.08
35.15
35.86
33.68
29.75
25.57
22.43
20.87
20.32
19.33
16.31
10.29
1.37
-9.40
-20.54
-30.70
-38.84
-44.14
-45.77
-42.94
-35.22
-23.00
-7.60
8.84
24.07
36.39
45.03
50.15
52.41
52.56
51.14
48.43
44.59
39.80
34.28
28.24
21.86
15.26
8.62
2.24
-3.38
-7.60
-9.85
-9.78
-7.57
-3.86
0.34
3.99
6.33
7.11
6.64
5.55
4.56
4.17
4.43
4.96
5.09
4.08
1.41
-3.05
-9.00
-15.78
-22.54
-28.51
-33.15
-36.15
-37.42
-36.98
-34.88
-31.26
-26.41
-20.79
-15.00
-9.63
-5.10
-1.57
1.01
2.78
3.78
3.94
3.14
1.36
-1.07
-3.61
-5.52
-6.20
-5.35
-3.07
0.12
3.52
6.39
8.17
8.53
7.44
5.13
2.00
-1.52
-5.14
-8.76
-12.38
-16.05
-19.69
-23.19
-26.38
-29.19
-31.61
-33.56
-34.90
-35.31
-34.45
-32.03
-28.03
-22.73
-16.61
-10.23
-4.08
1.59
6.66
11.15
15.11
18.44
21.04
22.76
23.58
23.60
23.03
22.12
21.04
19.91
18.77
17.72
16.94
16.56
16.58
16.79
16.76
16.12
14.67
12.51
10.02
7.55
5.33
3.32
1.25
-1.12
-3.97
-7.32
-11.07
-15.07
-19.13
-22.97
-26.22
-28.42
-29.14
-28.16
-25.55
-21.69
-17.12
-12.38
-7.86
-3.73
-0.04
3.31
6.39
9.26
11.83
13.96
15.55
16.52
16.96
17.03
16.99
16.97
17.04
17.16
17.23
17.11
16.75
16.10
15.22
14.20
13.09
11.89
10.54
8.89
6.86
4.44
1.73
-1.10
-3.91
-6.64
-9.34
-12.12
-15.07
-18.19
-21.34
-24.26
-26.57
-27.90
-27.89
-26.44
-23.70
-20.08
-16.11
-12.17
-8.40
-4.72
-0.99
2.78
6.32
9.25
11.23
12.22
12.51
12.58
12.82
13.37
14.00
14.34
14.11
13.29
12.14
11.06
10.36
10.10
10.14
10.18
9.91
9.11
7.70
5.74
3.41
0.92
-1.58
-4.05
-6.64
-9.52
-12.85
-16.53
-20.25
-23.50
-25.74
-26.57
-25.80
-23.52
-19.99
-15.61
-10.78
-5.92
-1.30
2.93
6.76
10.22
13.33
15.96
17.93
18.93
18.70
17.13
14.32
10.64
6.68
3.12
0.57
-0.57
-0.27
1.15
3.15
5.12
6.57
7.23
7.03
6.03
4.38
2.20
-0.36
-3.16
-5.98
-8.65
-10.99
-13.03
-14.92
-16.91
-19.20
-21.73
-24.12
-25.78
-26.13
-24.88
-22.15
-18.38
-14.09
-9.72
-5.45
-1.31
2.62
6.17
9.15
11.50
13.32
14.87
16.29
17.60
18.59
19.03
18.82
18.07
17.03
15.98
15.04
14.20
13.43
12.70
12.08
11.64
11.34
10.99
10.33
9.07
7.13
4.61
1.78
-1.04
-3.64
-6.03
-8.46
-11.25
-14.65
-18.69
-23.14
-27.56
-31.42
-34.10
-35.07
-33.97
-30.81
-25.95
-20.09
-13.99
-8.22
-3.00
1.74
6.09
9.99
13.20
15.50
16.83
17.41
17.58
17.63
17.61
17.40
16.90
16.21
15.60
15.37
15.65
16.27
16.90
17.21
17.05
16.43
15.44
14.08
12.26
9.86
6.82
3.32
-0.34
-3.78
-6.72
-9.13
-11.28
-13.61
-16.52
-20.22
-24.49
-28.75
-32.17
-33.98
-33.71
-31.32
-27.17
-21.86
-15.99
-10.04
-4.31
1.00
5.75
9.77
12.93
15.17
16.55
17.26
17.58
17.77
18.06
18.50
18.99
19.34
19.33
18.86
18.00
16.95
15.91
14.97
14.09
13.06
11.66
9.81
7.56
5.08
2.53
-0.03
-2.67
-5.52
-8.71
-12.29
-16.22
-20.38
-24.59
-28.62
-32.13
-34.74
-36.01
-35.55
-33.20
-29.11
-23.68
-17.47
-11.09
-5.06
0.16
4.30
7.24
9.10
10.14
10.74
11.28
11.93
12.70
13.41
13.80
13.68
12.97
11.81
10.51
9.47
9.01
9.29
10.17
11.22
11.89
11.71
10.47
8.24
5.33
2.11
-1.11
-4.18
-7.11
-9.96
-12.87
-15.93
-19.22
-22.70
-26.17
-29.24
-31.44
-32.30
-31.47
-28.86
-24.63
-19.24
-13.28
-7.32
-1.89
2.75
6.47
9.31
11.43
13.06
14.44
15.73
16.93
17.86
18.26
18.01
17.15
16.02
15.02
14.47
14.40
14.59
14.64
14.17
13.02
11.21
8.95
6.40
3.71
0.92
-1.96
-4.94
-8.02
-11.19
-14.49
-18.00
-21.86
-26.12
-30.61
-34.77
-37.80
-38.89
-37.55
-33.78
-28.16
-21.54
-14.77
-8.48
-2.99
1.66
5.52
8.72
11.39
13.67
15.64
17.27
18.46
19.08
19.10
18.62
17.87
17.05
16.26
15.52
14.77
13.93
12.96
11.84
10.61
9.29
7.89
6.40
4.78
2.95
0.86
-1.54
-4.25
-7.28
-10.62
-14.29
-18.30
-22.64
-27.19
-31.61
-35.41
-37.98
-38.80
-37.53
-34.17
-29.08
-22.88
-16.30
-9.92
-4.10
1.04
5.50
9.33
12.50
14.88
16.41
17.17
17.44
17.56
17.82
18.29
18.83
19.20
19.21
18.87
18.32
17.69
17.01
16.18
15.05
13.50
11.57
9.38
7.10
4.82
2.52
0.16
-2.30
-4.92
-7.85
-11.30
-15.51
-20.60
-26.36
-32.15
-37.09
-40.17
-40.72
-38.58
-34.11
-28.08
-21.34
-14.53
-8.10
-2.25
2.92
7.29
10.83
13.65
15.97
18.13
20.39
22.75
25.00
26.69
27.40
26.92
25.42
23.38
21.40
19.99
19.30
19.10
18.97
18.47
17.34
15.55
13.25
10.61
7.74
4.67
1.40
-1.97
-5.34
-8.69
-12.16
-16.06
-20.68
-26.03
-31.67
-36.76
-40.23
-41.23
-39.40
-34.98
-28.72
-21.61
-14.50
-7.97
-2.27
2.56
6.57
9.87
12.63
15.03
17.23
19.22
20.83
21.78
21.84
21.05
19.72
18.36
17.37
16.91
16.77
16.57
15.94
14.73
13.02
11.06
9.07
7.12
5.16
3.01
0.45
-2.70
-6.54
-11.09
-16.22
-21.68
-27.05
-31.75
-35.12
-36.54
-35.63
-32.39
-27.25
-20.93
-14.22
-7.71
-1.69
3.75
8.65
12.95
16.52
19.26
21.19
22.49
23.35
23.93
24.20
24.09
23.57
22.76
21.92
21.23
20.67
20.00
18.91
17.20
14.92
12.35
9.77
7.35
5.02
2.59
-0.11
-3.19
-6.64
-10.54
-14.92
-19.81
-24.98
-29.97
-34.07
-36.55
-36.96
-35.20
-31.56
-26.50
-20.61
-14.36
-8.16
-2.28
3.07
7.80
11.92
15.45
18.45
20.95
22.99
24.49
25.43
25.75
25.51
24.85
23.97
23.17
22.65
22.49
22.58
22.67
22.42
21.47
19.58
16.69
12.97
8.79
4.64
0.90
-2.34
-5.32
-8.61
-12.74
-17.91
-23.79
-29.59
-34.33
-37.20
-37.81
-36.19
-32.68
-27.72
-21.73
-15.11
-8.27
-1.63
4.44
9.71
14.19
17.97
21.21
23.88
25.85
26.97
27.22
26.78
26.00
25.26
24.81
24.71
24.90
25.22
25.48
25.48
24.98
23.77
21.67
18.67
14.97
10.93
6.94
3.27
0.00
-3.02
-6.05
-9.40
-13.27
-17.77
-22.82
-28.09
-33.03
-36.89
-38.89
-38.50
-35.66
-30.77
-24.65
-18.17
-11.99
-6.36
-1.23
3.64
8.39
12.95
17.13
20.64
23.29
24.98
25.68
25.42
24.31
22.64
20.82
19.38
18.71
18.97
19.89
20.94
21.54
21.26
19.94
17.71
14.83
11.59
8.18
4.80
1.63
-1.22
-3.84
-6.57
-9.91
-14.25
-19.67
-25.76
-31.66
-36.41
-39.15
-39.52
-37.55
-33.62
-28.25
-21.94
-15.18
-8.41
-2.07
3.51
8.12
11.78
14.67
16.98
18.90
20.45
21.51
21.88
21.50
20.42
18.99
17.64
16.74
16.43
16.54
16.67
16.38
15.42
13.74
11.50
8.85
5.84
2.45
-1.31
-5.28
-9.16
-12.75
-16.08
-19.49
-23.37
-27.88
-32.53
-36.41
-38.44
-37.91
-34.79
-29.62
-23.32
-16.69
-10.28
-4.31
1.18
6.16
10.62
14.50
17.73
20.20
21.81
22.48
22.27
21.42
20.31
19.28
18.55
18.13
17.91
17.75
17.48
16.93
15.98
14.49
12.45
9.91
7.02
4.02
1.05
-1.85
-4.78
-7.94
-11.64
-16.17
-21.65
-27.85
-34.18
-39.73
-43.48
-44.67
-43.04
-38.88
-32.92
-26.03
-19.00
-12.35
-6.31
-0.92
3.90
8.25
12.15
15.57
18.39
20.45
21.62
21.85
21.23
20.00
18.47
16.89
15.45
14.19
13.06
11.94
10.64
8.98
6.74
3.79
0.09
-4.24
-8.97
-13.79
-18.53
-23.19
-27.96
-33.04
-38.55
-44.35
-50.00
-54.79
-57.95
-58.73
-56.69
-51.84
-44.76
-36.39
-27.85
-20.11
-13.73
-8.91
-5.57
-3.52
-2.56
-2.34
-2.20
-1.24
1.42
6.20
12.70
19.76
25.91
30.07
31.94
31.97
30.87
29.00
26.15
21.77
15.56
7.84
-0.25
-7.11
-11.22
-11.47
-7.38
0.99
13.02
27.53
42.67
56.02
64.78
66.65
60.53
47.32
29.91
12.54
-0.58
-6.69
-5.39
1.41
10.63
19.54
26.87
32.92
38.78
45.12
51.57
56.86
59.61
59.27
56.53
52.96
50.42
50.38
53.51
59.54
66.98
73.15
74.53
67.81
51.40
26.59
-2.43
-29.90
-50.77
-62.44
-65.30
-61.61
-53.83
-43.40
-30.70
-16.16
-1.35
10.74
16.73
14.45
4.35
-10.44
-25.21
-35.42
-38.51
-34.63
-26.47
-18.10
-13.57
-15.63
-24.87
-39.42
-55.33
-67.62
-71.67
-64.65
-46.57
-20.30
9.25
36.82
58.34
72.10
78.67
80.16
78.99
76.95
74.88
72.85
70.63
67.99
64.78
60.68
55.15
47.30
36.21
21.48
3.54
-16.21
-35.85
-53.55
-68.26
-79.80
-88.60
-95.08
-99.11
-99.96
-96.77
-89.15
-77.70
-63.99
-50.06
-37.69
-27.85
-20.52
-15.01
-10.37
-5.88
-1.24
3.38
7.56
10.79
12.71
13.23
12.50
10.94
9.07
7.41
6.35
6.12
6.70
7.83
9.04
9.76
9.47
7.88
5.06
1.39
-2.59
-6.45
-10.10
-13.83
-18.20
-23.78
-30.83
-39.06
-47.66
-55.42
-61.01
-63.29
-61.62
-55.94
-46.82
-35.45
-23.35
-12.17
-3.33
2.30
4.54
3.99
1.72
-0.95
-2.94
-3.55
-2.64
-0.57
2.00
4.27
5.58
5.58
4.33
2.23
0.00
-1.55
-1.71
-0.06
3.36
8.00
12.90
16.90
18.98
18.55
15.49
10.15
3.07
-5.12
-13.73
-21.84
-28.29
-31.80
-31.31
-26.49
-18.00
-7.42
3.23
12.14
18.36
22.01
24.06
25.76
27.95
30.75
33.53
35.29
35.18
32.90
28.83
23.83
18.94
15.04
12.67
11.93
12.59
14.15
15.94
17.21
17.32
15.81
12.60
8.01
2.73
-2.36
-6.50
-9.29
-10.87
-11.93
-13.28
-15.51
-18.58
-21.72
-23.78
-23.69
-20.92
-15.63
-8.58
-0.74
6.97
13.95
19.80
24.23
26.96
27.72
26.39
23.16
18.61
13.65
9.37
6.78
6.53
8.67
12.58
17.18
21.36
24.23
25.48
25.29
24.19
22.85
21.95
22.06
23.50
26.29
29.88
33.16
34.63
32.86
26.99
17.23
4.90
-7.86
-18.63
-25.37
-26.96
-23.39
-15.79
-6.06
3.63
11.37
15.85
16.64
14.08
9.22
3.44
-1.80
-5.36
-6.65
-5.80
-3.58
-1.07
0.69
1.09
0.03
-2.12
-4.80
-7.42
-9.58
-10.93
-11.22
-10.32
-8.32
-5.69
-3.27
-2.08
-2.99
-6.35
-11.94
-18.99
-26.47
-33.38
-38.82
-42.04
-42.38
-39.46
-33.34
-24.75
-15.04
-5.84
1.44
6.05
8.09
8.36
8.02
8.04
8.95
10.72
12.87
14.69
15.56
15.10
13.24
10.18
6.29
2.07
-1.94
-5.07
-6.69
-6.34
-4.00
-0.24
3.83
6.88
7.83
6.16
2.04
-3.79
-10.42
-16.97
-22.81
-27.59
-31.18
-33.66
-35.19
-35.98
-36.12
-35.57
-34.16
-31.76
-28.34
-24.03
-19.04
-13.52
-7.57
-1.27
5.06
10.80
15.08
17.04
16.12
12.37
6.43
-0.53
-7.10
-11.97
-14.16
-13.35
-9.93
-4.94
0.15
3.88
5.20
3.80
0.11
-4.88
-10.00
-14.30
-17.23
-18.69
-18.96
-18.49
-17.90
-17.82
-18.80
-21.06
-24.39
-28.02
-30.88
-31.94
-30.70
-27.34
-22.60
-17.39
-12.34
-7.65
-3.18
1.24
5.50
9.27
12.11
13.89
14.86
15.72
17.23
19.92
23.79
28.32
32.59
35.60
36.63
35.30
31.71
26.33
19.89
13.23
7.14
2.24
-1.14
-3.06
-3.91
-4.39
-5.31
-7.41
-11.12
-16.31
-22.25
-27.55
-30.53
-29.64
-24.05
-14.04
-1.01
12.90
25.46
34.95
40.59
42.50
41.45
38.51
34.71
30.85
27.51
25.01
23.42
22.58
22.10
21.46
20.19
18.03
15.06
11.66
8.43
5.91
4.47
4.17
4.78
5.97
7.34
8.54
9.20
8.92
7.24
3.74
-1.81
-9.36
-18.39
-27.84
-36.22
-41.86
-43.35
-40.09
-32.52
-22.21
-11.39
-2.25
3.71
6.17
5.88
4.22
2.64
2.14
3.08
5.25
8.07
10.82
12.83
13.58
12.83
10.62
7.35
3.70
0.50
-1.51
-1.88
-0.60
1.93
4.97
7.67
9.18
8.90
6.56
2.25
-3.61
-10.38
-17.35
-23.80
-29.08
-32.64
-34.06
-33.08
-29.73
-24.29
-17.43
-10.06
-3.21
2.30
6.02
8.08
9.04
9.74
10.95
13.02
15.79
18.59
20.50
20.69
18.74
14.84
9.71
4.47
0.28
-1.98
-1.95
0.12
3.54
7.37
10.69
12.74
13.05
11.41
7.87
2.74
-3.42
-9.93
-16.13
-21.57
-26.07
-29.67
-32.40
-34.11
-34.49
-33.09
-29.65
-24.28
-17.44
-9.86
-2.27
4.79
10.93
15.92
19.67
22.04
23.02
22.68
21.27
19.20
16.96
15.01
13.60
12.82
12.54
12.54
12.66
12.80
12.94
13.04
12.90
12.23
10.74
8.29
5.02
1.33
-2.38
-5.81
-8.98
-12.19
-15.87
-20.36
-25.73
-31.64
-37.29
-41.59
-43.37
-41.79
-36.63
-28.42
-18.36
-7.90
1.68
9.51
15.28
19.02
20.97
21.47
20.88
19.67
18.28
17.02
15.99
15.04
13.92
12.41
10.46
8.31
6.30
4.78
3.97
3.88
4.31
4.93
5.32
5.05
3.85
1.62
-1.48
-5.10
-8.84
-12.41
-15.76
-19.12
-22.90
-27.43
-32.75
-38.32
-43.12
-45.83
-45.31
-40.98
-33.14
-22.87
-11.72
-1.16
7.74
14.54
19.26
22.20
23.65
23.88
23.17
21.87
20.36
18.99
17.98
17.36
17.08
17.03
17.09
17.20
17.29
17.34
17.36
17.39
17.40
17.15
16.32
14.62
12.00
8.73
5.32
2.25
-0.28
-2.50
-4.94
-8.15
-12.48
-17.90
-24.02
-30.05
-34.99
-37.73
-37.35
-33.39
-26.15
-16.65
-6.34
3.34
11.46
17.71
22.30
25.60
27.89
29.22
29.54
28.89
27.45
25.53
23.46
21.45
19.64
18.08
16.88
16.14
15.88
15.92
15.95
15.59
14.55
12.77
10.36
7.55
4.49
1.26
-2.12
-5.57
-8.96
-12.21
-15.35
-18.63
-22.37
-26.61
-30.90
-34.29
-35.58
-33.81
-28.78
-21.07
-11.94
-2.78
5.30
11.74
16.46
19.68
21.69
22.75
23.04
22.69
21.79
20.47
18.80
16.91
14.96
13.14
11.66
10.67
10.27
10.45
10.99
11.51
11.54
10.59
8.42
5.10
1.00
-3.34
-7.45
-11.08
-14.26
-17.23
-20.33
-23.88
-27.98
-32.40
-36.51
-39.37
-40.00
-37.69
-32.29
-24.27
-14.54
-4.22
5.71
14.49
21.59
26.71
29.68
30.50
29.37
26.68
23.00
18.97
15.23
12.35
10.77
10.70
12.03
14.34
16.87
18.72
19.11
17.62
14.33
9.82
4.92
0.50
-2.75
-4.54
-4.97
-4.51
-3.91
-4.08
-5.98
-10.32
-17.32
-26.33
-35.82
-43.58
-47.39
-45.72
-38.36
-26.51
-12.48
1.15
12.21
19.53
22.99
23.32
21.64
19.11
16.74
15.28
15.20
16.56
18.95
21.59
23.43
23.58
21.61
17.79
13.07
8.71
5.80
4.89
5.80
7.76
9.79
10.99
10.77
8.91
5.44
0.63
-5.09
-11.15
-16.96
-22.05
-26.18
-29.40
-31.86
-33.70
-34.85
-35.00
-33.76
-30.83
-26.17
-20.07
-13.08
-5.80
1.27
7.82
13.74
19.00
23.46
26.78
28.52
28.27
25.92
21.83
16.84
12.10
8.65
7.08
7.43
9.21
11.69
14.24
16.36
17.79
18.27
17.50
15.21
11.37
6.36
0.95
-3.91
-7.42
-9.23
-9.63
-9.35
-9.43
-10.88
-14.38
-20.14
-27.63
-35.68
-42.66
-46.81
-46.80
-42.09
-33.18
-21.47
-8.82
2.91
12.29
18.54
21.51
21.55
19.45
16.22
13.01
10.83
10.29
11.44
13.72
16.19
17.83
17.96
16.38
13.42
9.81
6.38
3.84
2.56
2.50
3.29
4.30
4.93
4.71
3.45
1.13
-2.14
-6.22
-10.93
-16.07
-21.33
-26.34
-30.77
-34.26
-36.53
-37.26
-36.18
-33.10
-28.10
-21.58
-14.27
-6.98
-0.46
4.91
9.20
12.79
16.17
19.59
22.87
25.41
26.44
25.41
22.22
17.40
11.88
6.71
2.79
0.69
0.56
2.21
5.08
8.32
10.98
12.20
11.52
8.98
5.06
0.43
-4.36
-8.96
-13.22
-17.04
-20.29
-22.90
-24.95
-26.66
-28.26
-29.81
-31.02
-31.32
-30.12
-27.06
-22.13
-15.66
-8.16
-0.20
7.67
14.86
20.79
24.93
26.95
26.77
24.64
21.03
16.62
12.22
8.68
6.72
6.80
8.87
12.35
16.28
19.58
21.31
20.88
18.10
13.21
6.88
0.12
-5.88
-10.06
-11.81
-11.24
-9.19
-6.98
-6.03
-7.44
-11.73
-18.68
-27.30
-35.95
-42.65
-45.48
-43.19
-35.60
-23.79
-9.83
3.79
14.89
22.02
24.77
23.63
19.73
14.50
9.39
5.67
4.16
5.10
8.06
11.96
15.44
17.26
16.75
13.96
9.64
4.95
1.07
-1.09
-1.09
0.93
4.28
7.91
10.65
11.47
9.79
5.62
-0.55
-7.83
-15.25
-21.97
-27.42
-31.41
-34.08
-35.76
-36.76
-37.18
-36.84
-35.36
-32.37
-27.78
-21.77
-14.78
-7.28
0.24
7.34
13.51
18.22
21.01
21.68
20.40
17.71
14.35
11.08
8.52
7.04
6.77
7.54
8.96
10.51
11.72
12.32
12.27
11.80
11.17
10.57
9.96
9.16
7.91
6.00
3.45
0.47
-2.60
-5.49
-8.13
-10.77
-13.86
-17.92
-23.21
-29.46
-35.86
-41.19
-44.19
-43.96
-40.25
-33.50
-24.69
-15.00
-5.53
2.88
9.75
14.88
18.23
19.96
20.29
19.52
17.96
15.94
13.72
11.56
9.65
8.18
7.21
6.71
6.53
6.48
6.38
6.16
5.85
5.55
5.26
4.89
4.24
3.18
1.67
-0.19
-2.27
-4.52
-7.01
-9.96
-13.63
-18.22
-23.69
-29.62
-35.20
-39.33
-40.84
-38.98
-33.64
-25.53
-15.91
-6.16
2.67
10.08
16.02
20.60
23.79
25.41
25.41
24.00
21.78
19.50
17.74
16.68
16.09
15.57
14.88
14.07
13.48
13.44
14.09
15.20
16.31
16.92
16.68
15.47
13.39
10.64
7.49
4.18
0.97
-2.10
-5.16
-8.58
-12.83
-18.22
-24.61
-31.30
-37.16
-40.87
-41.36
-38.11
-31.31
-21.83
-10.97
-0.19
9.20
16.35
20.97
23.29
23.93
23.59
22.90
22.26
21.81
21.49
21.17
20.72
20.07
19.24
18.32
17.39
16.52
15.77
15.19
14.84
14.73
14.73
14.56
13.80
12.08
9.27
5.60
1.54
-2.38
-5.80
-8.72
-11.39
-14.32
-18.01
-22.75
-28.52
-34.85
-40.81
-45.19
-46.83
-44.93
-39.39
-30.85
-20.50
-9.75
0.18
8.50
14.94
19.61
22.84
24.96
26.26
26.90
26.99
26.63
25.92
24.97
23.91
22.86
21.93
21.15
20.49
19.92
19.41
19.01
18.75
18.62
18.42
17.86
16.60
14.45
11.45
7.85
4.02
0.24
-3.36
-6.86
-10.47
-14.41
-18.85
-23.83
-29.22
-34.62
-39.35
-42.49
-43.15
-40.70
-35.02
-26.67
-16.71
-6.48
2.73
10.07
15.21
18.39
20.12
20.95
21.25
21.16
20.62
19.61
18.16
16.41
14.57
12.87
11.50
10.63
10.36
10.69
11.44
12.29
12.85
12.74
11.76
9.98
7.65
5.10
2.63
0.38
-1.70
-3.88
-6.55
-10.16
-14.96
-20.87
-27.37
-33.47
-37.98
-39.75
-38.13
-33.07
-25.27
-15.81
-5.95
3.29
11.27
17.64
22.31
25.23
26.40
25.95
24.23
21.80
19.33
17.36
16.15
15.58
15.30
14.95
14.35
13.62
12.97
12.61
12.52
12.46
12.12
11.19
9.57
7.37
4.78
2.00
-0.83
-3.67
-6.54
-9.55
-12.91
-16.88
-21.73
-27.47
-33.68
-39.46
-43.61
-44.99
-42.92
-37.47
-29.40
-19.87
-10.13
-1.13
6.60
12.86
17.67
21.07
23.09
23.78
23.29
21.94
20.17
18.41
17.03
16.17
15.82
15.78
15.80
15.73
15.51
15.28
15.14
15.15
15.16
14.79
13.59
11.21
7.57
3.02
-1.78
-6.07
-9.36
-11.59
-13.24
-15.15
-18.18
-22.91
-29.29
-36.58
-43.48
-48.47
-50.24
-48.11
-42.18
-33.30
-22.78
-11.98
-2.02
6.38
12.91
17.51
20.29
21.50
21.47
20.66
19.52
18.46
17.69
17.24
16.92
16.54
15.94
15.16
14.38
13.82
13.70
14.07
14.83
15.63
16.00
15.47
13.72
10.77
6.97
2.90
-0.85
-3.93
-6.35
-8.44
-10.69
-13.59
-17.43
-22.22
-27.62
-32.97
-37.36
-39.84
-39.63
-36.38
-30.33
-22.27
-13.38
-4.83
2.42
7.92
11.66
14.04
15.53
16.55
17.26
17.63
17.53
16.86
15.66
14.06
12.26
10.44
8.82
7.54
6.76
6.53
6.79
7.33
7.84
7.94
7.35
5.92
3.75
1.09
-1.72
-4.43
-6.97
-9.52
-12.42
-15.96
-20.20
-24.79
-29.02
-31.99
-32.85
-30.99
-26.31
-19.18
-10.46
-1.24
7.36
14.45
19.58
22.73
24.21
24.45
23.84
22.64
21.05
19.22
17.32
15.47
13.79
12.35
11.17
10.39
10.18
10.67
11.79
13.19
14.28
14.43
13.21
10.57
6.86
2.69
-1.29
-4.61
-7.15
-9.14
-11.08
-13.62
-17.37
-22.57
-28.90
-35.40
-40.59
-42.93
-41.31
-35.51
-26.27
-15.19
-4.10
5.37
12.22
16.21
17.74
17.55
16.47
15.25
14.39
14.21
14.74
15.79
16.95
17.70
17.57
16.31
14.02
11.18
8.53
6.86
6.68
8.06
10.47
12.99
14.61
14.52
12.38
8.30
2.82
-3.39
-9.62
-15.33
-20.20
-24.15
-27.34
-30.09
-32.69
-35.23
-37.42
-38.57
-37.93
-34.90
-29.40
-21.92
-13.37
-4.71
3.32
10.33
16.18
20.75
23.83
25.16
24.53
22.08
18.37
14.28
10.73
8.48
7.82
8.66
10.58
13.07
15.54
17.47
18.36
17.84
15.77
12.39
8.31
4.34
1.27
-0.43
-0.78
-0.25
0.39
0.33
-1.12
-4.41
-9.62
-16.46
-24.24
-31.98
-38.54
-42.80
-43.95
-41.69
-36.37
-28.92
-20.69
-13.04
-6.99
-2.84
-0.25
1.66
3.79
6.73
10.50
14.66
18.51
21.39
22.81
22.52
20.47
16.82
12.08
7.14
3.17
1.28
2.17
5.65
10.67
15.52
18.50
18.47
15.23
9.54
2.75
-3.67
-8.61
-11.59
-12.70
-12.53
-11.91
-11.75
-12.86
-15.70
-20.23
-25.84
-31.39
-35.43
-36.62
-34.09
-27.71
-18.20
-6.88
4.52
14.34
21.28
24.54
24.03
20.32
14.59
8.38
3.31
0.65
0.99
4.09
8.98
14.35
18.89
21.70
22.37
20.98
17.96
13.92
9.64
5.92
3.47
2.66
3.34
4.74
5.68
4.96
1.72
-4.30
-12.71
-22.63
-32.88
-42.09
-48.85
-51.92
-50.50
-44.54
-34.89
-23.19
-11.55
-1.92
4.44
7.26
7.27
5.89
4.70
4.92
7.07
10.82
15.26
19.24
21.82
22.53
21.39
18.80
15.29
11.46
7.98
5.65
5.29
7.42
11.93
17.89
23.57
27.08
26.96
22.81
15.40
6.38
-2.39
-9.46
-14.22
-16.90
-18.28
-19.33
-20.88
-23.35
-26.69
-30.38
-33.55
-35.15
-34.27
-30.42
-23.65
-14.60
-4.22
6.39
16.17
24.26
29.91
32.69
32.46
29.56
24.80
19.28
14.19
10.51
8.83
9.23
11.30
14.37
17.56
20.08
21.30
20.92
18.98
15.82
12.05
8.37
5.43
3.73
3.41
4.22
5.51
6.39
5.93
3.50
-1.16
-7.82
-15.86
-24.36
-32.15
-37.98
-40.68
-39.46
-34.14
-25.41
-14.71
-3.99
4.87
10.51
12.54
11.58
9.03
6.59
5.63
6.84
9.95
14.05
17.93
20.52
21.27
20.07
17.17
12.95
8.03
3.17
-0.64
-2.41
-1.57
1.70
6.32
10.66
13.06
12.51
8.95
3.19
-3.47
-9.77
-14.85
-18.39
-20.48
-21.51
-21.91
-22.12
-22.41
-22.87
-23.40
-23.65
-23.14
-21.35
-17.83
-12.38
-5.14
3.38
12.39
20.88
27.89
32.57
34.34
32.94
28.58
21.88
13.99
6.37
0.51
-2.42
-1.94
1.56
6.91
12.57
16.99
19.08
18.31
14.75
9.01
2.07
-4.77
-10.20
-13.21
-13.40
-11.23
-7.97
-5.39
-5.10
-8.09
-14.28
-22.54
-31.02
-37.67
-40.71
-39.04
-32.55
-22.07
-9.29
3.68
14.73
22.28
25.57
24.80
20.98
15.56
10.11
5.91
3.81
4.08
6.46
10.27
14.52
18.17
20.33
20.53
18.80
15.69
12.04
8.69
6.25
4.90
4.43
4.32
3.97
2.79
0.39
-3.41
-8.55
-14.71
-21.45
-28.17
-34.31
-39.38
-42.99
-44.78
-44.44
-41.75
-36.69
-29.70
-21.59
-13.45
-6.30
-0.67
3.53
6.96
10.42
14.47
19.10
23.74
27.51
29.64
29.67
27.62
23.88
19.10
14.07
9.64
6.67
5.79
7.30
10.90
15.66
20.23
23.13
23.17
19.84
13.47
5.17
-3.43
-10.64
-15.21
-16.76
-15.85
-13.88
-12.63
-13.62
-17.64
-24.47
-32.85
-40.86
-46.40
-47.77
-44.10
-35.63
-23.59
-9.97
3.12
13.83
21.03
24.37
24.19
21.34
17.03
12.54
9.12
7.68
8.51
11.22
14.86
18.23
20.34
20.65
19.20
16.42
12.90
9.28
6.11
3.86
2.82
3.04
4.23
5.80
6.96
6.92
5.02
0.86
-5.64
-14.12
-23.63
-32.70
-39.59
-42.74
-41.33
-35.55
-26.62
-16.37
-6.68
1.10
6.31
9.04
9.88
9.73
9.55
10.16
12.08
15.33
19.39
23.32
26.05
26.65
24.77
20.65
15.15
9.51
5.08
2.94
3.59
6.77
11.43
16.06
19.12
19.51
16.87
11.60
4.63
-2.85
-9.78
-15.36
-19.27
-21.68
-23.31
-25.13
-27.97
-32.10
-36.93
-41.11
-43.07
-41.62
-36.43
-28.19
-18.27
-8.26
0.54
7.33
11.88
14.32
15.04
14.58
13.54
12.54
12.13
12.70
14.36
16.95
20.05
23.06
25.38
26.62
26.70
25.91
24.70
23.41
22.13
20.60
18.47
15.51
11.78
7.65
3.50
-0.38
-3.96
-7.41
-10.92
-14.68
-18.80
-23.29
-28.06
-32.78
-36.85
-39.39
-39.50
-36.62
-30.80
-22.72
-13.55
-4.51
3.42
9.81
14.58
18.00
20.35
21.89
22.76
23.03
22.77
22.08
21.09
19.93
18.67
17.38
16.08
14.82
13.67
12.75
12.21
12.18
12.62
13.30
13.78
13.57
12.34
10.08
7.08
3.82
0.71
-2.06
-4.56
-7.07
-9.93
-13.38
-17.52
-22.25
-27.28
-32.07
-35.82
-37.65
-36.83
-33.01
-26.41
-17.79
-8.27
0.97
8.92
14.95
18.82
20.67
20.88
19.96
18.43
16.75
15.25
14.07
13.21
12.58
12.04
11.52
11.03
10.68
10.56
10.67
10.85
10.79
10.15
8.68
6.40
3.57
0.62
-2.04
-4.14
-5.74
-7.13
-8.78
-11.14
-14.54
-19.05
-24.39
-29.95
-34.83
-38.01
-38.61
-36.14
-30.70
-22.99
-14.13
-5.30
2.59
9.09
14.15
17.93
20.54
22.00
22.25
21.28
19.33
16.83
14.35
12.38
11.17
10.68
10.67
10.87
11.12
11.41
11.85
12.44
13.04
13.32
12.90
11.57
9.43
6.78
4.00
1.41
-0.92
-3.12
-5.45
-8.22
-11.71
-16.04
-21.07
-26.28
-30.69
-33.11
-32.53
-28.55
-21.58
-12.79
-3.64
4.55
10.98
15.48
18.32
19.96
20.83
21.14
20.99
20.34
19.22
17.70
15.92
14.04
12.22
10.58
9.20
8.18
7.59
7.50
7.88
8.55
9.15
9.28
8.59
6.92
4.39
1.31
-1.87
-4.72
-6.94
-8.48
-9.65
-11.07
-13.51
-17.58
-23.34
-30.09
-36.45
-40.74
-41.59
-38.37
-31.47
-22.08
-11.86
-2.45
4.93
9.68
11.83
11.97
11.01
9.95
9.62
10.44
12.37
14.96
17.53
19.35
19.86
18.72
15.90
11.77
7.07
2.75
-0.20
-1.19
-0.19
2.20
4.96
7.02
7.68
6.76
4.53
1.57
-1.64
-4.80
-7.88
-11.04
-14.52
-18.47
-22.89
-27.52
-31.82
-35.00
-36.16
-34.56
-29.92
-22.53
-13.33
-3.66
5.15
12.13
16.92
19.74
21.11
21.57
21.51
21.04
20.13
18.71
16.77
14.37
11.65
8.85
6.27
4.33
3.38
3.60
4.80
6.41
7.65
7.80
6.47
3.75
0.12
-3.74
-7.23
-9.94
-11.68
-12.50
-12.68
-12.73
-13.37
-15.29
-18.87
-23.80
-28.96
-32.74
-33.55
-30.49
-23.70
-14.33
-4.07
5.40
12.81
17.46
19.25
18.47
15.74
11.86
7.75
4.28
2.02
1.20
1.61
2.77
4.10
5.13
5.58
5.38
4.70
3.91
3.46
3.70
4.71
6.21
7.60
8.22
7.62
5.73
2.91
-0.26
-3.32
-6.14
-8.99
-12.32
-16.54
-21.75
-27.54
-33.09
-37.33
-39.24
-38.21
-34.27
-28.02
-20.52
-12.87
-5.94
-0.19
4.29
7.65
10.04
11.60
12.39
12.49
12.05
11.36
10.71
10.37
10.48
11.00
11.72
12.35
12.70
12.71
12.56
12.49
12.67
13.00
13.12
12.61
11.16
8.78
5.78
2.66
-0.18
-2.56
-4.60
-6.65
-9.10
-12.29
-16.39
-21.38
-26.96
-32.53
-37.19
-39.87
-39.67
-36.15
-29.63
-21.13
-12.07
-3.75
3.03
8.14
11.90
14.72
16.80
17.99
18.11
17.16
15.55
13.94
12.97
12.87
13.42
14.06
14.32
14.05
13.47
13.06
13.15
13.71
14.40
14.71
14.25
12.91
10.84
8.27
5.46
2.58
-0.26
-2.86
-5.07
-6.79
-8.19
-9.73
-12.05
-15.72
-20.80
-26.70
-32.25
-35.98
-36.77
-34.10
-28.27
-20.21
-11.15
-2.25
5.61
11.92
16.46
19.22
20.40
20.31
19.35
17.89
16.22
14.53
12.95
11.54
10.36
9.45
8.84
8.53
8.56
8.93
9.63
10.55
11.40
11.74
11.10
9.25
6.31
2.82
-0.55
-3.27
-5.22
-6.76
-8.54
-11.22
-15.17
-20.31
-26.06
-31.49
-35.45
-36.90
-35.15
-30.10
-22.32
-12.98
-3.45
5.09
11.97
17.08
20.63
22.83
23.74
23.30
21.56
18.85
15.77
13.01
11.08
10.13
9.97
10.22
10.59
10.93
11.27
11.65
11.95
11.93
11.25
9.72
7.37
4.47
1.45
-1.35
-3.78
-5.96
-8.19
-10.87
-14.32
-18.68
-23.84
-29.32
-34.38
-38.07
-39.56
-38.30
-34.24
-27.79
-19.74
-11.09
-2.80
4.37
9.96
13.80
16.03
16.91
16.74
15.82
14.41
12.86
11.53
10.81
10.88
11.65
12.76
13.68
13.99
13.53
12.38
10.79
8.96
7.06
5.19
3.42
1.82
0.39
-1.01
-2.61
-4.72
-7.63
-11.47
-16.28
-21.90
-27.99
-34.02
-39.33
-43.20
-45.06
-44.60
-41.87
-37.26
-31.35
-24.76
-18.12
-12.03
-7.01
-3.46
-1.58
-1.31
-2.41
-4.54
-7.38
-10.68
-14.21
-17.70
-20.84
-23.31
-24.83
-25.21
-24.37
-22.23
-18.79
-14.09
-8.36
-1.97
4.63
11.04
17.00
22.41
27.29
31.60
35.23
37.93
39.32
39.01
36.69
32.21
25.89
18.49
11.17
5.21
1.66
0.96
2.89
6.78
11.78
17.19
22.52
27.35
31.26
33.86
34.88
34.41
32.90
30.95
29.09
27.50
26.09
24.67
23.14
21.58
20.10
18.70
17.14
15.15
12.56
9.48
6.33
3.59
1.62
0.54
0.17
0.16
0.09
-0.46
-1.79
-4.05
-7.21
-11.06
-15.30
-19.56
-23.42
-26.40
-27.89
-27.26
-24.10
-18.53
-11.26
-3.43
3.72
9.38
13.32
15.84
17.40
18.33
18.69
18.38
17.35
15.74
13.90
12.14
10.73
9.79
9.37
9.45
9.99
10.77
11.47
11.72
11.23
9.93
7.97
5.64
3.25
0.96
-1.24
-3.51
-6.04
-9.02
-12.61
-16.84
-21.58
-26.51
-31.02
-34.32
-35.54
-34.05
-29.58
-22.52
-13.79
-4.73
3.35
9.56
13.60
15.80
16.74
17.02
16.98
16.70
16.15
15.35
14.44
13.59
12.82
11.99
10.89
9.48
7.98
6.85
6.51
7.06
8.19
9.28
9.75
9.25
7.84
5.82
3.52
1.07
-1.65
-4.95
-9.10
-14.10
-19.56
-24.73
-28.61
-30.29
-29.21
-25.36
-19.33
-12.09
-4.68
2.02
7.53
11.70
14.57
16.32
17.12
17.17
16.72
15.97
15.05
13.97
12.64
11.08
9.44
8.02
7.11
6.82
6.94
7.03
6.67
5.68
4.20
2.56
1.10
-0.05
-0.99
-2.01
-3.42
-5.47
-8.39
-12.28
-17.05
-22.22
-26.96
-30.11
-30.66
-28.03
-22.42
-14.72
-6.28
1.62
8.05
12.63
15.50
17.08
17.80
17.91
17.50
16.51
14.98
13.06
11.07
9.38
8.20
7.59
7.42
7.50
7.67
7.81
7.75
7.25
6.09
4.19
1.72
-0.89
-3.22
-5.05
-6.55
-8.17
-10.46
-13.68
-17.74
-22.12
-26.05
-28.71
-29.36
-27.50
-23.09
-16.52
-8.70
-0.80
6.12
11.33
14.68
16.52
17.45
18.04
18.56
18.95
18.92
18.23
16.83
14.93
12.93
11.24
10.08
9.45
9.22
9.23
9.40
9.66
9.83
9.60
8.61
6.65
3.85
0.65
-2.39
-4.86
-6.74
-8.38
-10.38
-13.29
-17.28
-22.04
-26.78
-30.45
-32.01
-30.75
-26.53
-19.85
-11.71
-3.30
4.33
10.50
14.87
17.47
18.51
18.30
17.25
15.77
14.25
12.98
12.03
11.32
10.65
9.88
9.02
8.21
7.55
7.11
6.74
6.26
5.54
4.53
3.37
2.19
1.09
0.02
-1.19
-2.77
-4.93
-7.84
-11.57
-16.04
-20.97
-25.80
-29.76
-31.94
-31.62
-28.49
-22.84
-15.46
-7.47
0.08
6.42
11.21
14.48
16.44
17.29
17.19
16.29
14.77
12.87
10.87
9.01
7.52
6.58
6.28
6.60
7.41
8.32
8.92
8.85
8.00
6.51
4.76
3.19
2.12
1.63
1.51
1.33
0.59
-1.08
-3.76
-7.15
-10.64
-13.45
-14.84
-14.29
-11.50
-6.48
0.52
8.99
18.23
27.34
35.46
41.98
46.71
49.91
52.18
54.20
56.52
59.39
62.76
66.42
70.17
74.02
78.24
83.23
89.26
96.32
104.02
111.77
119.03
125.52
131.36
136.98
142.91
149.49
156.71
164.04
170.49
174.72
175.35
171.36
162.46
149.19
132.73
114.42
95.29
75.85
56.24
36.58
17.39
-0.32
-15.20
-25.96
-31.96
-33.67
-32.92
-32.74
-36.84
-48.67
-70.27
-101.38
-138.94
-177.87
-212.35
-237.66
-251.67
-255.56
-253.23
-249.78
-249.69
-255.04
-265.13
-277.03
-287.10
-292.60
-292.86
-289.18
-283.93
-279.27
-275.82
-272.88
-268.92
-262.69
-254.17
-244.99
-237.93
-235.67
-239.41
-246.70
-252.38
-249.49
-231.66
-195.85
-144.02
-83.07
-22.92
26.15
58.54
73.04
73.86
68.86
66.90
74.59
93.83
121.09
147.61
165.18
165.86
146.04
107.41
56.44
2.32
-45.58
-80.06
-98.59
-99.32
-84.70
-58.11
-22.35
21.13
71.51
127.00
190.75
243.70
278.47
287.18
266.89
221.94
163.70
107.59
68.16
54.43
65.62
95.73
132.23
163.03
180.74
184.06
176.15
161.64
144.01
123.75
102.49
80.31
59.24
42.77
33.74
32.12
34.45
35.24
28.78
13.47
-10.45
-39.18
-66.80
-88.08
-100.93
-106.74
-109.17
-112.50
-118.91
-130.38
-146.35
-163.91
-179.24
-189.36
-192.47
-188.09
-176.76
-150.09
-107.49
-56.91
-9.46
28.40
56.46
77.35
93.85
106.32
113.35
112.77
105.26
94.94
87.51
85.52
90.18
100.47
114.12
128.26
139.70
147.28
152.01
155.60
158.89
161.60
162.49
160.16
152.89
139.47
121.28
102.23
86.84
77.59
73.71
71.21
64.66
48.24
18.66
-22.83
-70.97
-119.36
-163.32
-200.80
-231.90
-249.19
-246.80
-224.76
-189.53
-149.40
-110.55
-76.68
-49.85
-30.77
-18.92
-13.98
-14.80
-18.80
-22.07
-20.60
-11.84
4.04
24.16
43.72
57.58
62.35
58.27
49.13
39.93
34.07
31.76
30.89
28.83
23.72
15.78
7.19
0.45
-3.36
-5.20
-7.31
-11.18
-16.43
-21.66
-25.18
-25.89
-23.67
-19.18
-13.16
-6.02
2.58
12.47
22.66
32.21
40.67
47.60
51.62
52.66
47.59
34.43
13.90
-10.33
-32.90
-48.86
-55.56
-52.82
-43.47
-32.16
-22.84
-17.59
-16.34
-17.40
-18.42
-17.07
-11.35
0.17
17.98
41.77
69.83
98.76
124.10
141.31
146.95
139.62
120.19
91.32
57.06
21.70
-11.01
-38.25
-58.22
-70.19
-74.34
-71.87
-64.77
-55.19
-44.83
-34.45
-23.73
-11.61
3.06
20.93
41.82
64.60
87.31
107.40
122.00
128.51
125.35
112.65
92.57
68.82
45.69
26.75
13.88
6.99
4.59
4.60
5.21
5.20
3.92
1.10
-3.21
-8.62
-14.24
-18.77
-20.81
-19.39
-14.50
-7.26
0.45
6.62
9.84
9.65
6.62
1.91
-3.29
-8.19
-12.51
-16.32
-19.79
-22.89
-25.31
-26.51
-26.01
-23.72
-20.04
-15.81
-12.00
-9.36
-8.14
-8.14
-8.97
-10.25
-11.78
-13.43
-14.92
-15.75
-15.37
-13.59
-10.98
-8.83
-8.79
-12.04
-18.55
-26.82
-34.31
-38.35
-37.25
-30.93
-20.87
-9.47
0.97
8.95
14.13
17.00
18.40
19.02
19.14
18.78
17.78
16.13
14.00
11.68
9.46
7.49
5.74
4.06
2.20
0.07
-2.31
-4.72
-6.87
-8.49
-9.50
-10.10
-10.67
-11.68
-13.41
-15.95
-19.13
-22.66
-26.32
-30.09
-34.05
-38.16
-42.04
-44.86
-45.60
-43.42
-38.23
-30.77
-22.42
-14.66
-8.47
-4.14
-1.32
0.51
1.71
2.37
2.38
1.69
0.50
-0.78
-1.72
-2.06
-1.78
-1.05
-0.17
0.62
1.13
1.37
1.43
1.40
1.37
1.34
1.19
0.77
-0.02
-1.29
-3.10
-5.52
-8.58
-12.24
-16.32
-20.53
-24.46
-27.64
-29.63
-29.95
-28.20
-24.17
-18.05
-10.51
-2.67
4.30
9.55
12.80
14.37
14.88
14.90
14.70
14.29
13.47
12.11
10.25
8.10
6.03
4.43
3.61
3.68
4.48
5.58
6.45
6.70
6.18
5.07
3.69
2.35
1.19
0.15
-0.91
-2.16
-3.73
-5.73
-8.24
-11.38
-15.17
-19.48
-23.91
-27.76
-30.12
-30.14
-27.29
-21.64
-13.89
-5.21
2.97
9.47
13.54
15.10
14.68
13.15
11.46
10.26
9.73
9.59
9.30
8.41
6.77
4.61
2.45
0.70
-0.36
-0.76
-0.65
-0.24
0.24
0.52
0.25
-0.92
-3.16
-6.41
-10.22
-14.08
-17.51
-20.34
-22.78
-25.28
-28.34
-32.23
-36.84
-41.56
-45.38
-47.24
-46.35
-42.59
-36.71
-30.08
-24.24
-20.27
-18.42
-18.06
-18.07
-17.43
-15.70
-13.36
-11.63
-12.03
-15.61
-22.52
-31.83
-41.92
-51.28
-59.15
-65.88
-72.51
-80.24
-89.78
-101.12
-113.89
-127.89
-143.63
-162.08
-184.06
-209.37
-236.30
-261.78
-282.20
-294.45
-296.72
-288.84
-271.88
-247.46
-217.14
-182.03
-142.82
-100.19
-55.00
-8.34
38.71
85.10
129.65
170.66
205.62
231.50
245.94
248.74
242.81
233.68
227.20
226.77
231.51
236.74
236.64
227.59
210.12
188.52
168.32
153.28
143.84
137.74
131.96
124.86
116.81
109.39
103.82
99.87
96.02
90.31
81.57
70.01
57.12
44.89
34.93
27.84
23.20
19.90
16.79
13.27
9.53
6.36
4.68
4.96
6.91
9.62
11.92
12.87
12.12
9.98
7.12
4.31
2.02
0.42
-0.65
-1.52
-2.51
-3.78
-5.35
-7.02
-8.55
-9.73
-10.53
-11.05
-11.45
-11.84
-12.28
-12.87
-13.80
-15.39
-17.91
-21.47
-25.75
-30.17
-34.02
-36.68
-37.83
-37.38
-35.38
-31.98
-27.35
-21.69
-15.37
-8.81
-2.44
3.31
8.23
12.15
15.06
16.96
17.95
18.15
17.72
16.86
15.74
14.56
13.49
12.69
12.25
12.13
12.18
12.21
12.07
11.62
10.85
9.79
8.50
7.05
5.43
3.55
1.21
-1.88
-5.94
-10.94
-16.48
-21.84
-26.21
-29.03
-30.13
-29.78
-28.36
-26.13
-23.10
-19.19
-14.44
-9.19
-4.16
-0.06
2.63
3.93
4.26
4.19
4.04
3.84
3.38
2.50
1.34
0.25
-0.36
-0.35
0.08
0.45
0.35
-0.39
-1.60
-2.96
-4.24
-5.48
-6.97
-9.08
-12.06
-15.94
-20.54
-25.53
-30.54
-35.18
-39.05
-41.80
-43.10
-42.78
-40.71
-36.88
-31.41
-24.49
-16.59
-8.32
-0.40
6.52
12.04
16.06
18.66
20.04
20.40
19.99
19.10
18.07
17.17
16.54
16.10
15.67
15.06
14.28
13.43
12.74
12.26
11.87
11.32
10.36
8.89
7.02
4.97
2.89
0.83
-1.39
-4.04
-7.37
-11.39
-15.82
-20.09
-23.51
-25.50
-25.71
-24.13
-21.04
-16.91
-12.21
-7.32
-2.44
2.39
7.21
12.00
16.61
20.79
24.30
27.01
28.91
30.10
30.59
30.31
29.17
27.14
24.47
21.62
19.08
17.19
15.98
15.19
14.45
13.43
12.02
10.26
8.23
5.96
3.36
0.32
-3.20
-7.04
-10.98
-14.74
-18.22
-21.34
-24.09
-26.34
-27.72
-27.80
-26.26
-23.01
-18.31
-12.63
-6.46
-0.14
6.09
12.04
17.44
21.96
25.28
27.25
27.93
27.57
26.46
24.87
23.00
21.01
19.04
17.22
15.58
14.09
12.60
10.93
8.94
6.59
3.99
1.32
-1.18
-3.41
-5.41
-7.39
-9.62
-12.35
-15.71
-19.65
-23.95
-28.25
-32.10
-35.01
-36.53
-36.35
-34.33
-30.48
-24.97
-18.14
-10.42
-2.33
5.57
12.73
18.71
23.23
26.34
28.26
29.43
30.27
31.05
31.79
32.38
32.64
32.45
31.80
30.74
29.37
27.72
25.80
23.65
21.29
18.79
16.16
13.33
10.19
6.62
2.59
-1.85
-6.62
-11.74
-17.28
-23.34
-29.74
-35.99
-41.24
-44.60
-45.43
-43.54
-39.28
-33.28
-26.30
-18.91
-11.58
-4.57
1.88
7.65
12.71
17.12
20.99
24.35
27.10
29.12
30.30
30.70
30.47
29.81
28.86
27.64
26.12
24.29
22.15
19.71
16.95
13.90
10.59
7.17
3.89
0.88
-1.85
-4.54
-7.65
-11.59
-16.62
-22.69
-29.41
-36.07
-41.84
-45.88
-47.54
-46.51
-42.90
-37.19
-30.08
-22.40
-14.81
-7.75
-1.37
4.37
9.64
14.55
19.14
23.33
26.94
29.72
31.49
32.16
31.84
30.80
29.53
28.47
27.97
28.09
28.53
28.80
28.40
27.01
24.62
21.49
17.93
14.18
10.28
6.15
1.64
-3.31
-8.72
-14.56
-20.79
-27.29
-33.79
-39.71
-44.21
-46.47
-45.92
-42.53
-36.82
-29.68
-22.07
-14.69
-7.89
-1.68
4.10
9.57
14.72
19.36
23.27
26.24
28.19
29.14
29.23
28.66
27.68
26.58
25.61
24.99
24.80
24.91
25.02
24.68
23.43
21.01
17.42
12.96
8.11
3.35
-1.01
-4.98
-8.83
-12.96
-17.67
-22.93
-28.40
-33.49
-37.57
-40.23
-41.31
-40.84
-38.95
-35.77
-31.39
-25.96
-19.79
-13.28
-6.96
-1.31
3.30
6.69
8.87
10.05
10.62
10.97
11.45
12.21
13.27
14.53
15.84
16.99
17.83
18.21
18.04
17.40
16.47
15.41
14.24
12.77
10.65
7.65
3.74
-0.86
-5.81
-10.81
-15.68
-20.30
-24.41
-27.54
-29.13
-28.78
-26.45
-22.58
-17.89
-13.20
-9.04
-5.62
-2.83
-0.41
1.83
4.00
6.06
7.93
9.56
10.98
12.29
13.53
14.67
15.56
16.02
15.94
15.35
14.40
13.34
12.30
11.28
10.09
8.52
6.47
3.90
0.96
-2.24
-5.67
-9.40
-13.49
-17.86
-22.17
-25.85
-28.34
-29.23
-28.47
-26.36
-23.37
-19.95
-16.42
-12.93
-9.50
-6.12
-2.78
0.43
3.38
5.90
7.83
9.09
9.68
9.75
9.61
9.65
10.24
11.56
13.52
15.71
17.54
18.48
18.17
16.60
14.09
11.08
8.03
5.24
2.73
0.29
-2.54
-6.15
-10.71
-15.96
-21.20
-25.55
-28.25
-28.97
-27.83
-25.29
-21.88
-17.95
-13.67
-9.14
-4.50
-0.03
4.00
7.38
10.09
12.21
13.83
14.99
15.75
16.26
16.72
17.36
18.28
19.38
20.44
21.22
21.55
21.40
20.75
19.60
17.91
15.67
12.95
9.94
6.82
3.66
0.27
-3.65
-8.41
-14.00
-20.05
-25.85
-30.59
-33.68
-34.90
-34.42
-32.67
-30.07
-26.92
-23.33
-19.32
-14.91
-10.29
-5.70
-1.39
2.45
5.77
8.62
11.05
13.11
14.81
16.15
17.13
17.85
18.38
18.87
19.38
19.85
20.09
19.80
18.68
16.56
13.53
9.89
6.02
2.17
-1.60
-5.43
-9.49
-13.79
-18.17
-22.38
-26.18
-29.38
-31.83
-33.30
-33.55
-32.42
-29.89
-26.18
-21.63
-16.57
-11.28
-5.92
-0.70
4.13
8.27
11.55
13.99
15.76
17.13
18.32
19.34
20.10
20.53
20.63
20.53
20.38
20.33
20.32
20.24
19.91
19.21
18.12
16.70
15.02
13.09
10.83
8.13
4.90
1.17
-2.95
-7.30
-11.80
-16.33
-20.71
-24.55
-27.32
-28.48
-27.72
-25.16
-21.39
-17.22
-13.33
-10.02
-7.16
-4.42
-1.55
1.35
3.92
5.80
6.89
7.39
7.73
8.25
9.10
10.17
11.16
11.89
12.33
12.62
12.94
13.32
13.60
13.49
12.79
11.38
9.37
7.00
4.50
2.05
-0.26
-2.57
-5.10
-8.11
-11.72
-15.77
-19.76
-22.98
-24.66
-24.35
-22.13
-18.56
-14.47
-10.62
-7.36
-4.66
-2.29
-0.02
2.11
3.95
5.34
6.23
6.81
7.38
8.13
9.11
10.20
11.16
11.79
12.02
11.80
11.13
10.01
8.45
6.54
4.53
2.69
1.23
0.14
-0.87
-2.20
-4.17
-6.87
-10.13
-13.61
-17.00
-20.14
-22.93
-25.25
-26.86
-27.48
-26.85
-24.91
-21.85
-18.01
-13.75
-9.42
-5.25
-1.36
2.16
5.23
7.81
9.85
11.41
12.59
13.56
14.43
15.26
16.03
16.68
17.21
17.68
18.18
18.75
19.19
19.16
18.29
16.45
13.77
10.64
7.44
4.45
1.73
-0.81
-3.33
-5.96
-8.85
-12.07
-15.63
-19.42
-23.12
-26.27
-28.38
-29.16
-28.60
-26.97
-24.69
-22.19
-19.75
-17.40
-14.96
-12.16
-8.75
-4.67
-0.19
4.26
8.10
10.97
12.77
13.74
14.29
14.85
15.66
16.73
17.95
19.12
20.13
20.99
21.70
22.23
22.45
22.12
21.02
19.13
16.66
14.04
11.68
9.70
7.88
5.64
2.44
-1.95
-7.23
-12.75
-17.82
-21.99
-25.25
-27.73
-29.58
-30.69
-30.78
-29.60
-27.16
-23.74
-19.80
-15.73
-11.71
-7.81
-4.03
-0.50
2.59
5.07
6.90
8.25
9.41
10.67
12.19
13.99
15.92
17.79
19.48
20.94
22.16
23.14
23.87
24.27
24.27
23.77
22.70
20.99
18.62
15.69
12.41
9.02
5.74
2.56
-0.67
-4.28
-8.41
-13.03
-17.79
-22.25
-26.00
-28.85
-30.77
-31.80
-31.94
-31.13
-29.35
-26.66
-23.28
-19.51
-15.63
-11.85
-8.23
-4.81
-1.55
1.52
4.31
6.77
8.85
10.58
12.04
13.39
14.73
16.09
17.40
18.54
19.40
19.96
20.27
20.42
20.42
20.24
19.73
18.75
17.22
15.11
12.44
9.30
5.79
2.06
-1.76
-5.59
-9.40
-13.27
-17.23
-21.21
-24.97
-28.13
-30.35
-31.39
-31.27
-30.25
-28.62
-26.66
-24.40
-21.74
-18.55
-14.90
-11.10
-7.58
-4.81
-2.98
-1.98
-1.39
-0.69
0.43
2.06
4.04
6.17
8.33
10.43
12.39
14.03
15.13
15.63
15.64
15.50
15.57
16.01
16.65
17.07
16.84
15.73
13.84
11.46
8.81
5.95
2.76
-0.91
-5.02
-9.30
-13.23
-16.33
-18.25
-18.94
-18.67
-17.77
-16.57
-15.20
-13.70
-11.99
-10.06
-8.02
-6.02
-4.31
-3.05
-2.30
-1.92
-1.68
-1.27
-0.46
0.80
2.35
3.94
5.35
6.51
7.60
8.84
10.33
11.89
13.06
13.40
12.67
11.05
9.06
7.30
6.08
5.29
4.41
2.90
0.39
-3.05
-6.99
-10.86
-14.14
-16.51
-17.83
-18.10
-17.41
-15.95
-14.04
-12.08
-10.44
-9.29
-8.54
-7.94
-7.16
-6.02
-4.50
-2.76
-1.03
0.51
1.77
2.75
3.55
4.32
5.28
6.61
8.41
10.61
12.97
15.10
16.68
17.42
17.22
16.12
14.28
11.91
9.30
6.66
4.12
1.59
-1.17
-4.39
-8.11
-12.09
-15.75
-18.53
-20.10
-20.57
-20.35
-19.96
-19.74
-19.71
-19.59
-19.03
-17.82
-16.07
-14.10
-12.33
-11.00
-10.04
-9.13
-7.84
-5.90
-3.37
-0.65
1.79
3.63
4.90
5.95
7.21
8.93
11.01
13.10
14.83
16.02
16.71
17.06
17.15
16.83
15.81
13.86
10.97
7.41
3.60
-0.12
-3.56
-6.73
-9.62
-12.11
-13.95
-14.86
-14.75
-13.80
-12.40
-10.90
-9.49
-8.18
-6.83
-5.47
-4.31
-3.67
-3.83
-4.81
-6.22
-7.55
-8.26
-8.08
-7.10
-5.60
-3.93
-2.30
-0.76
0.75
2.26
3.66
4.81
5.54
5.83
5.79
5.65
5.57
5.61
5.63
5.42
4.76
3.46
1.48
-1.15
-4.22
-7.43
-10.34
-12.51
-13.56
-13.36
-12.07
-10.09
-7.87
-5.74
-3.77
-1.81
0.25
2.44
4.60
6.42
7.67
8.24
8.18
7.61
6.74
5.80
5.03
4.68
4.89
5.64
6.71
7.77
8.59
9.05
9.24
9.26
9.14
8.78
8.04
6.82
5.21
3.39
1.44
-0.75
-3.44
-6.84
-10.91
-15.15
-18.76
-20.93
-21.15
-19.47
-16.37
-12.50
-8.43
-4.45
-0.65
2.91
6.00
8.32
9.67
10.13
10.07
9.91
9.87
9.89
9.70
9.10
8.24
7.52
7.45
8.27
9.79
11.48
12.76
13.20
12.73
11.53
9.89
8.05
6.15
4.22
2.26
0.18
-2.22
-5.11
-8.64
-12.66
-16.69
-19.96
-21.68
-21.35
-19.01
-15.18
-10.60
-5.94
-1.67
2.03
5.10
7.42
8.96
9.80
10.27
10.81
11.76
13.12
14.52
15.46
15.58
14.85
13.65
12.42
11.48
10.87
10.40
9.86
9.07
8.08
7.04
6.08
5.25
4.46
3.53
2.25
0.48
-1.81
-4.57
-7.75
-11.29
-15.09
-18.86
-22.10
-24.28
-24.90
-23.78
-21.13
-17.42
-13.19
-8.88
-4.75
-0.89
2.65
5.84
8.57
10.77
12.42
13.55
14.34
14.92
15.44
15.97
16.44
16.70
16.56
15.95
14.92
13.73
12.69
12.06
11.88
11.94
11.78
10.93
9.07
6.25
2.93
-0.27
-2.86
-4.76
-6.30
-8.06
-10.45
-13.56
-17.07
-20.49
-23.38
-25.42
-26.43
-26.28
-24.84
-22.08
-18.13
-13.35
-8.18
-3.07
1.67
5.88
9.45
12.30
14.38
15.70
16.35
16.48
16.25
15.78
15.09
14.17
13.03
11.77
10.62
9.85
9.62
9.85
10.19
10.20
9.52
8.05
6.07
4.00
2.22
0.82
-0.41
-1.83
-3.71
-6.11
-8.90
-11.88
-14.88
-17.70
-20.15
-21.88
-22.45
-21.50
-18.89
-14.86
-9.90
-4.64
0.35
4.65
8.10
10.69
12.43
13.41
13.72
13.50
13.03
12.57
12.34
12.38
12.56
12.65
12.42
11.80
10.89
9.85
8.83
7.90
6.98
5.99
4.85
3.55
2.09
0.46
-1.43
-3.68
-6.33
-9.39
-12.72
-16.10
-19.19
-21.56
-22.73
-22.42
-20.59
-17.51
-13.75
-9.87
-6.24
-2.93
0.17
3.20
6.10
8.64
10.58
11.80
12.45
12.87
13.27
13.73
14.04
13.96
13.31
12.16
10.77
9.42
8.33
7.49
6.85
6.24
5.66
5.10
4.55
3.89
2.89
1.30
-1.05
-4.11
-7.65
-11.36
-14.95
-18.20
-21.03
-23.28
-24.75
-25.19
-24.38
-22.29
-19.10
-15.16
-10.89
-6.58
-2.50
1.22
4.42
6.97
8.86
10.11
10.89
11.34
11.60
11.75
11.88
12.09
12.41
12.83
13.19
13.31
13.03
12.35
11.46
10.55
9.75
9.04
8.34
7.60
6.86
6.23
5.72
5.22
4.47
3.30
1.71
0.02
-1.27
-1.52
-0.13
3.37
9.25
17.41
27.42
38.55
49.96
61.07
71.87
82.87
94.89
108.34
122.79
136.69
147.72
153.46
152.13
143.11
126.93
105.01
79.14
51.09
22.43
-5.40
-30.94
-52.71
-69.35
-80.00
-84.80
-85.15
-83.54
-82.94
-85.72
-92.90
-103.76
-116.28
-127.91
-136.64
-141.47
-142.52
-140.59
-136.66
-131.47
-125.49
-119.11
-112.86
-107.43
-103.54
-101.75
-102.07
-103.84
-105.95
-107.09
-106.35
-103.64
-99.33
-93.51
-85.20
-72.36
-53.00
-26.62
4.60
36.07
62.51
80.23
88.75
90.79
90.55
91.42
94.37
98.25
101.16
102.38
103.29
106.68
115.19
129.60
148.21
167.32
182.83
191.66
192.63
186.46
174.77
159.22
141.05
120.91
99.12
75.75
50.60
23.29
-6.39
-37.50
-67.31
-91.33
-104.72
-104.37
-90.85
-68.78
-45.16
-26.52
-16.29
-13.74
-15.18
-16.54
-15.71
-13.49
-12.65
-15.94
-24.33
-36.71
-50.61
-63.83
-75.46
-85.89
-96.03
-106.23
-115.71
-122.79
-125.71
-123.56
-116.72
-106.73
-95.63
-85.21
-76.50
-69.70
-64.44
-60.22
-56.69
-53.81
-51.69
-50.22
-48.80
-46.22
-40.91
-31.51
-17.46
0.78
21.91
44.39
66.91
88.57
108.78
126.91
142.22
154.06
162.32
167.82
172.15
177.22
184.53
194.37
205.45
214.85
218.35
211.31
189.95
152.96
102.70
45.37
-10.35
-55.64
-84.30
-94.79
-90.26
-77.20
-62.85
-52.73
-49.38
-52.46
-59.83
-68.56
-75.87
-79.47
-77.85
-70.69
-59.30
-46.28
-34.61
-26.17
-20.87
-16.81
-11.62
-4.07
4.93
12.83
17.05
16.68
13.03
8.97
7.16
8.78
13.07
18.30
23.12
27.57
33.11
41.61
54.07
69.57
85.36
97.76
103.63
101.65
92.82
79.77
65.52
52.26
40.70
30.15
19.26
6.91
-7.22
-22.47
-37.61
-51.31
-62.70
-71.76
-79.37
-87.28
-97.27
-110.25
-125.14
-138.46
-145.08
-140.11
-121.17
-89.93
-51.97
-14.57
16.03
37.05
49.69
57.68
64.59
71.88
78.75
83.53
85.60
86.16
87.30
89.93
92.26
90.05
78.71
56.14
24.41
-10.75
-42.54
-66.05
-80.18
-87.33
-91.32
-95.12
-99.53
-103.52
-105.42
-104.41
-101.08
-97.05
-94.26
-93.79
-95.49
-98.19
-100.46
-101.41
-101.06
-100.12
-99.37
-99.19
-99.56
-100.54
-102.71
-107.02
-114.13
-123.44
-132.61
-138.19
-136.90
-127.21
-110.07
-88.62
-66.78
-47.68
-32.71
-21.46
-12.54
-4.65
2.64
8.69
12.08
11.43
6.03
-3.84
-16.97
-31.80
-46.86
-61.16
-74.01
-84.69
-92.18
-95.30
-93.13
-85.58
-73.61
-58.93
-43.49
-28.81
-15.58
-3.73
7.29
18.04
28.83
39.60
50.07
59.96
69.33
78.78
89.30
102.05
117.74
136.27
156.57
176.84
194.91
208.64
216.25
216.52
209.26
195.63
178.18
160.36
145.46
135.58
131.04
130.60
132.33
134.59
136.50
137.89
138.89
139.59
140.03
140.30
140.66
141.27
141.86
141.72
139.86
135.56
128.66
119.60
108.99
97.16
83.91
68.73
51.25
31.63
10.74
-10.19
-30.02
-48.07
-64.22
-78.70
-91.74
-103.24
-112.70
-119.52
-123.28
-124.07
-122.61
-119.95
-117.06
-114.36
-111.68
-108.48
-104.38
-99.49
-94.56
-90.67
-88.81
-89.43
-92.30
-96.57
-101.27
-105.70
-109.66
-113.52
-117.89
-123.29
-129.91
-137.48
-145.40
-152.99
-159.54
-164.62
-167.94
-169.65
-170.37
-171.47
-174.66
-181.32
-191.61
-203.77
-214.11
-217.76
-210.10
-188.43
-153.10
-107.67
-57.82
-9.67
32.06
65.09
89.64
107.70
121.50
132.55
141.37
147.93
152.14
154.27
154.49
152.84
149.00
142.31
132.26
118.94
103.30
86.62
70.04
53.75
37.86
22.57
7.90
-6.37
-20.77
-35.90
-52.21
-69.78
-88.76
-108.09
-126.03
-141.23
-153.19
-161.90
-167.16
-168.02
-162.94
-151.11
-131.65
-104.57
-71.71
-36.55
-2.94
26.32
50.25
75.62
102.80
127.76
146.11
156.48
159.98
158.63
154.60
149.83
146.75
146.56
151.34
163.59
184.63
213.15
244.93
274.16
295.62
299.98
282.94
246.24
196.24
141.02
87.49
40.21
1.50
-27.82
-47.91
-59.48
-63.84
-63.05
-59.59
-55.63
-52.13
-48.70
-44.26
-37.92
-29.19
-18.46
-6.83
4.20
13.15
19.08
21.86
22.10
20.75
18.98
17.47
16.27
14.93
12.94
10.01
6.29
2.21
-1.92
-5.85
-9.71
-13.94
-19.07
-25.51
-33.47
-42.89
-53.36
-64.10
-73.96
-81.69
-86.23
-87.03
-84.23
-78.48
-70.61
-61.40
-51.35
-40.74
-29.84
-19.08
-9.10
-0.62
5.80
10.02
12.28
13.09
13.06
12.60
11.88
10.95
9.83
8.64
7.59
6.85
6.34
5.76
4.66
2.69
-0.25
-3.98
-8.14
-12.46
-16.80
-21.19
-25.69
-30.29
-34.75
-38.57
-41.07
-41.52
-39.40
-34.60
-27.52
-19.02
-10.21
-2.14
4.48
9.35
12.52
14.21
14.70
14.28
13.22
11.84
10.47
9.47
9.13
9.57
10.69
12.16
13.53
14.40
14.52
13.90
12.77
11.40
9.95
8.32
6.24
3.32
-0.77
-6.15
-12.68
-19.94
-27.39
-34.35
-40.05
-43.78
-44.90
-43.01
-37.96
-30.07
-20.03
-8.88
2.23
12.30
20.70
27.18
31.85
34.95
36.71
37.31
36.84
35.47
33.37
30.69
27.58
24.13
20.54
17.11
14.22
12.20
11.12
10.68
10.34
9.56
7.97
5.50
2.31
-1.43
-5.67
-10.47
-15.93
-22.01
-28.42
-34.63
-39.92
-43.54
-44.75
-43.04
-38.13
-30.21
-19.92
-8.31
3.39
14.09
23.12
30.36
36.09
40.70
44.37
46.97
48.16
47.65
45.47
42.07
38.21
34.63
31.81
29.90
28.66
27.77
26.91
25.92
24.75
23.31
21.43
18.89
15.48
11.14
6.02
0.41
-5.41
-11.24
-16.98
-22.49
-27.47
-31.43
-33.71
-33.72
-31.09
-25.87
-18.49
-9.77
-0.78
7.40
13.84
17.94
19.61
19.27
17.55
15.18
12.67
10.37
8.48
7.16
6.66
7.22
8.93
11.57
14.55
17.05
18.27
17.75
15.38
11.53
6.74
1.68
-3.16
-7.46
-11.28
-14.88
-18.68
-23.13
-28.40
-34.41
-40.68
-46.35
-50.37
-51.74
-49.81
-44.45
-36.11
-25.67
-14.26
-3.00
7.25
15.94
22.84
27.94
31.31
32.99
33.08
31.69
29.09
25.63
21.67
17.54
13.46
9.62
6.22
3.50
1.65
0.71
0.46
0.34
-0.28
-1.93
-4.85
-8.95
-13.87
-19.28
-24.91
-30.64
-36.36
-41.88
-46.81
-50.50
-52.08
-50.62
-45.46
-36.56
-24.68
-11.30
1.82
13.25
22.23
28.74
33.30
36.49
38.64
39.80
39.93
39.05
37.39
35.29
33.05
30.84
28.70
26.62
24.59
22.54
20.42
18.09
15.52
12.68
9.69
6.63
3.52
0.17
-3.70
-8.50
-14.53
-21.82
-29.98
-38.18
-45.36
-50.36
-52.29
-50.71
-45.67
-37.66
-27.47
-15.98
-4.14
7.16
17.23
25.62
32.18
37.02
40.25
41.92
41.99
40.43
37.39
33.33
28.90
24.80
21.60
19.48
18.35
17.87
17.63
17.20
16.25
14.50
11.77
8.06
3.47
-1.77
-7.32
-12.82
-17.99
-22.75
-27.27
-31.85
-36.80
-42.11
-47.23
-51.23
-52.99
-51.73
-47.25
-40.06
-31.11
-21.42
-11.67
-2.11
7.27
16.54
25.56
33.88
40.86
45.88
48.46
48.48
46.12
41.78
35.93
28.98
21.24
13.00
4.56
-3.57
-10.68
-16.06
-19.15
-19.83
-18.53
-16.05
-13.31
-11.04
-9.65
-9.39
-10.47
-13.10
-17.40
-23.15
-29.58
-35.51
-39.74
-41.51
-40.87
-38.57
-35.69
-33.05
-30.83
-28.43
-24.85
-19.07
-10.65
0.04
11.81
22.96
31.81
37.12
38.48
36.29
31.67
26.01
20.66
16.61
14.20
13.22
12.95
12.48
10.88
7.49
1.92
-6.00
-16.28
-28.72
-42.79
-57.49
-71.43
-83.03
-90.85
-94.01
-92.13
-85.16
-73.08
-55.71
-32.94
-5.31
25.47
56.45
84.14
105.50
118.83
123.91
121.46
112.28
96.89
75.92
50.92
24.95
2.24
-13.26
-19.45
-17.05
-9.26
-0.33
6.39
9.48
9.36
7.29
4.30
0.54
-4.21
-10.23
-17.24
-24.32
-30.33
-34.54
-37.08
-38.90
-41.39
-45.35
-50.89
-57.23
-63.01
-66.83
-67.89
-66.31
-63.06
-59.38
-55.65
-52.12
-48.86
-45.84
-42.87
-39.74
-36.35
-32.84
-29.42
-25.04
-19.34
-12.52
-4.79
4.16
14.93
27.66
41.53
54.99
68.41
81.68
94.66
108.00
123.78
144.89
173.52
209.75
250.71
293.01
329.59
351.75
352.64
330.80
290.83
241.34
191.60
132.59
65.32
-2.08
-59.78
-103.20
-132.80
-150.78
-159.37
-160.90
-157.96
-150.74
-140.94
-131.09
-123.67
-119.84
-119.40
-121.28
-123.59
-123.58
-115.88
-97.11
-67.32
-31.03
3.97
29.10
37.86
28.52
4.92
-23.09
-48.22
-65.57
-74.28
-76.35
-74.54
-70.73
-65.16
-57.00
-44.94
-29.41
-12.39
2.86
13.26
16.95
13.64
4.50
-8.31
-22.01
-34.28
-43.28
-48.21
-49.22
-47.05
-42.75
-37.26
-31.34
-25.67
-21.34
-19.21
-19.55
-21.88
-25.00
-27.46
-28.02
-26.12
-22.09
-16.99
-12.03
-8.26
-6.22
-5.85
-6.52
-7.42
-7.91
-7.84
-7.60
-7.84
-9.32
-12.52
-17.38
-23.34
-29.39
-34.34
-37.10
-36.86
-33.21
-26.10
-15.93
-3.52
10.09
23.75
36.42
47.36
56.17
62.77
67.21
69.58
69.87
68.14
64.68
60.05
55.09
50.66
47.37
45.37
44.41
44.02
43.77
43.32
42.41
40.80
38.28
34.82
30.66
26.31
22.30
18.85
15.68
12.09
7.21
0.51
-7.82
-16.84
-25.10
-31.00
-33.23
-31.16
-24.91
-15.29
-3.59
8.78
20.50
30.54
38.09
42.63
43.91
42.08
37.80
32.17
26.50
21.85
18.77
17.23
16.78
16.89
17.10
17.07
16.45
14.85
11.99
8.01
3.49
-0.63
-3.54
-4.95
-5.36
-5.79
-7.43
-11.11
-17.11
-25.00
-33.76
-41.89
-47.65
-49.40
-46.13
-37.83
-25.59
-11.35
2.65
14.56
23.24
28.32
30.05
29.10
26.37
22.87
19.53
17.03
15.51
14.59
13.57
11.80
9.08
5.69
2.28
-0.51
-2.38
-3.37
-3.78
-3.88
-3.81
-3.68
-3.78
-4.61
-6.78
-10.78
-16.60
-23.73
-31.27
-38.23
-43.74
-47.11
-47.79
-45.37
-39.76
-31.26
-20.74
-9.54
0.97
9.74
16.40
21.18
24.71
27.42
29.41
30.38
29.85
27.59
23.73
18.82
13.70
9.14
5.69
3.49
2.43
2.17
2.48
3.06
3.70
4.05
3.64
2.00
-1.15
-5.72
-11.20
-16.85
-22.04
-26.49
-30.43
-34.25
-38.15
-41.88
-44.73
-45.85
-44.53
-40.48
-33.81
-24.93
-14.46
-3.18
8.02
18.13
26.18
31.45
33.59
32.76
29.54
24.72
19.15
13.65
9.02
5.91
4.85
5.96
8.81
12.46
15.75
17.63
17.55
15.65
12.46
8.69
4.85
1.21
-2.07
-4.88
-7.11
-8.89
-10.73
-13.43
-17.71
-23.72
-30.63
-36.74
-40.02
-38.78
-32.34
-21.29
-7.22
7.72
21.44
32.27
39.27
42.21
41.47
37.92
32.71
26.93
21.51
17.06
13.86
11.95
11.18
11.27
11.74
12.08
11.77
10.45
8.13
5.10
1.88
-1.02
-3.25
-4.75
-5.72
-6.61
-8.00
-10.50
-14.58
-20.45
-27.94
-36.44
-44.78
-51.43
-54.68
-53.10
-46.01
-33.84
-18.30
-1.97
12.40
22.71
28.10
29.08
27.10
23.89
20.80
18.43
16.72
15.27
13.69
11.81
9.71
7.61
5.75
4.29
3.33
2.88
2.81
2.88
2.72
1.93
0.26
-2.29
-5.43
-8.77
-11.96
-14.94
-17.97
-21.49
-25.96
-31.53
-37.90
-44.13
-48.84
-50.48
-47.95
-40.95
-30.24
-17.35
-4.10
7.96
17.91
25.40
30.52
33.47
34.46
33.71
31.40
27.79
23.15
17.89
12.62
8.14
5.29
4.59
5.87
8.29
10.57
11.60
10.89
8.65
5.58
2.39
-0.46
-2.95
-5.37
-8.14
-11.66
-16.21
-21.96
-28.81
-36.40
-44.06
-50.81
-55.60
-57.52
-56.16
-51.80
-45.37
-38.25
-31.81
-26.96
-24.02
-22.91
-23.48
-25.93
-30.78
-38.55
-49.22
-61.88
-74.58
-84.68
-89.48
-86.80
-75.71
-56.77
-32.22
-5.74
18.36
36.15
45.15
45.06
37.74
26.49
14.84
5.56
0.12
-1.25
0.92
5.72
12.08
18.64
23.86
26.30
25.31
21.64
17.45
15.64
18.65
27.37
40.60
55.55
68.89
78.02
81.80
80.75
76.44
70.66
64.67
58.90
53.17
47.10
40.63
34.13
28.26
23.66
20.48
18.46
17.09
15.90
14.73
13.65
12.79
12.09
11.27
9.95
7.79
4.61
0.40
-4.77
-10.79
-17.53
-24.75
-31.97
-38.40
-43.00
-44.66
-42.48
-36.10
-25.90
-13.02
0.82
13.73
24.06
30.84
33.83
33.50
30.76
26.62
21.95
17.36
13.12
9.36
6.19
3.76
2.25
1.77
2.30
3.64
5.42
7.12
8.18
8.13
6.70
4.05
0.65
-2.84
-5.92
-8.38
-10.47
-12.72
-15.72
-19.92
-25.44
-32.02
-38.93
-44.92
-48.33
-47.52
-41.45
-30.30
-15.61
0.12
14.25
24.84
31.14
33.52
32.95
30.53
27.03
23.00
18.71
14.50
10.70
7.65
5.63
4.71
4.76
5.50
6.49
7.27
7.48
7.01
5.91
4.38
2.60
0.70
-1.33
-3.55
-6.06
-8.99
-12.49
-16.79
-22.05
-28.32
-35.25
-42.01
-47.18
-49.05
-46.14
-37.81
-24.78
-9.05
6.55
19.31
27.55
31.09
31.06
29.20
26.97
25.06
23.41
21.62
19.54
17.40
15.72
14.95
15.13
16.00
17.17
18.42
19.71
21.12
22.61
23.89
24.55
24.29
23.11
21.32
19.30
17.30
15.33
13.19
10.66
7.80
4.87
2.49
1.45
2.68
6.98
14.57
24.63
34.92
42.24
43.48
37.06
23.84
7.01
-9.23
-21.59
-28.94
-32.49
-34.52
-36.88
-39.82
-41.97
-41.31
-36.38
-27.10
-14.77
-1.48
10.60
19.84
25.43
27.28
25.77
21.55
15.26
7.60
-0.66
-8.60
-15.47
-21.04
-25.66
-30.10
-34.83
-39.51
-42.86
-43.14
-39.09
-30.70
-19.30
-7.06
3.92
12.37
18.17
22.02
24.90
27.58
30.37
33.20
35.77
37.75
38.81
38.62
36.89
33.41
28.11
21.36
14.01
7.21
2.02
-0.91
-1.67
-0.95
0.26
1.11
1.09
0.13
-1.62
-4.01
-6.99
-10.77
-15.62
-21.79
-29.35
-37.96
-46.73
-54.29
-58.94
-59.04
-53.58
-42.56
-27.13
-9.44
7.98
22.82
33.59
39.78
41.86
40.81
37.82
33.87
29.64
25.52
21.73
18.49
16.03
14.70
14.71
16.01
18.17
20.48
22.16
22.70
22.07
20.71
19.26
18.08
17.00
15.22
11.55
4.88
-5.54
-19.90
-37.86
-58.53
-80.46
-101.67
-119.70
-132.18
-137.32
-134.55
-124.66
-109.56
-91.59
-72.95
-55.47
-40.85
-31.08
-28.74
-36.63
-56.75
-88.87
-129.28
-170.95
-205.08
-223.89
-223.44
-204.79
-172.81
-133.30
-90.17
-44.55
3.73
53.68
101.41
140.65
165.23
171.70
160.42
134.66
98.82
57.45
15.78
-19.39
-40.16
-40.15
-18.34
18.34
56.08
79.21
77.05
48.94
4.56
-40.55
-72.04
-82.89
-75.44
-59.04
-44.81
-40.58
-48.16
-64.01
-81.91
-95.98
-102.69
-101.15
-92.42
-78.61
-62.32
-46.43
-33.84
-26.87
-26.83
-33.75
-46.39
-62.47
-78.90
-92.00
-97.94
-93.73
-78.43
-54.01
-25.13
2.29
23.44
36.50
43.28
47.94
54.79
66.22
81.57
97.89
111.77
121.08
125.95
128.33
130.65
134.40
139.42
144.04
146.04
143.70
136.50
125.21
111.48
97.30
84.31
73.58
65.42
59.51
55.03
50.93
46.18
39.99
31.89
21.75
9.79
-3.34
-16.54
-28.35
-37.31
-42.36
-43.27
-40.78
-36.27
-31.32
-27.11
-24.09
-21.87
-19.57
-16.11
-10.63
-2.69
7.67
19.88
32.86
45.16
55.00
60.47
60.03
52.96
39.82
22.70
5.00
-9.38
-17.03
-16.15
-6.95
8.41
26.56
43.75
56.70
63.12
62.05
53.95
40.48
24.21
7.99
-5.75
-15.46
-20.73
-22.14
-20.84
-18.08
-14.88
-11.87
-9.24
-6.81
-4.15
-0.78
3.57
8.81
14.48
19.84
24.14
26.87
27.86
27.33
25.79
23.86
22.20
21.27
21.29
22.22
23.77
25.45
26.65
26.80
25.49
22.64
18.51
13.73
9.18
5.80
4.29
4.96
7.54
11.18
14.59
16.28
14.97
9.92
1.26
-10.06
-22.26
-33.22
-40.90
-43.86
-41.58
-34.63
-24.54
-13.33
-3.05
4.93
10.07
12.82
14.21
15.33
16.89
19.00
21.22
22.82
23.14
21.74
18.51
13.71
7.89
1.90
-3.22
-6.47
-7.16
-5.20
-1.27
3.41
7.40
9.50
9.15
6.53
2.40
-2.16
-6.10
-8.81
-10.20
-10.64
-10.75
-11.02
-11.56
-12.03
-11.85
-10.50
-7.74
-3.76
1.01
6.07
11.07
15.82
20.14
23.80
26.43
27.62
27.14
25.05
21.75
17.86
14.02
10.73
8.19
6.29
4.73
3.16
1.34
-0.76
-2.95
-4.89
-6.25
-6.91
-7.02
-7.03
-7.52
-9.00
-11.71
-15.57
-20.22
-25.08
-29.44
-32.54
-33.67
-32.33
-28.47
-22.51
-15.42
-8.40
-2.56
1.42
3.52
4.34
4.86
6.07
8.56
12.27
16.53
20.22
22.23
21.82
18.78
13.49
6.87
0.12
-5.38
-8.42
-8.22
-4.79
1.01
7.57
12.99
15.57
14.32
9.22
1.13
-8.40
-17.63
-24.94
-29.30
-30.40
-28.69
-25.07
-20.67
-16.38
-12.79
-10.18
-8.59
-7.86
-7.56
-7.05
-5.47
-2.21
2.88
9.17
15.48
20.37
22.71
22.02
18.58
13.34
7.57
2.59
-0.55
-1.23
0.53
4.10
8.32
11.83
13.46
12.55
9.16
3.97
-1.90
-7.21
-10.95
-12.59
-12.19
-10.36
-8.04
-6.31
-6.07
-7.92
-11.91
-17.58
-23.93
-29.46
-32.57
-31.97
-27.12
-18.51
-7.57
3.79
13.74
20.93
24.69
25.00
22.34
17.64
12.15
7.22
3.98
2.99
4.12
6.57
9.33
11.41
12.18
11.39
9.09
5.59
1.49
-2.39
-5.19
-6.30
-5.66
-3.88
-2.00
-1.09
-1.86
-4.49
-8.59
-13.53
-18.55
-23.03
-26.45
-28.37
-28.42
-26.31
-21.95
-15.61
-8.00
-0.06
7.12
12.70
16.19
17.62
17.33
15.90
13.85
11.67
9.73
8.40
7.93
8.35
9.40
10.52
11.07
10.59
9.03
6.70
4.15
1.95
0.46
-0.24
-0.23
0.31
1.21
2.21
2.90
2.67
0.93
-2.72
-8.15
-14.73
-21.41
-27.08
-30.77
-31.83
-30.13
-25.93
-19.93
-13.03
-6.22
-0.35
4.07
6.91
8.41
9.06
9.42
10.05
11.31
13.31
15.81
18.16
19.46
18.88
16.06
11.32
5.69
0.54
-2.83
-3.67
-1.95
1.58
5.80
9.46
11.51
11.32
8.72
4.08
-1.80
-7.84
-12.94
-16.30
-17.64
-17.27
-15.96
-14.65
-14.10
-14.67
-16.22
-18.23
-20.02
-20.88
-20.21
-17.57
-12.77
-5.95
2.37
11.27
19.53
25.83
29.12
28.91
25.42
19.57
12.78
6.64
2.52
1.27
2.93
6.82
11.64
15.92
18.41
18.41
15.92
11.57
6.37
1.34
-2.65
-5.09
-5.81
-5.02
-3.30
-1.53
-0.82
-2.15
-6.04
-12.27
-19.81
-27.03
-32.20
-33.99
-31.86
-26.16
-17.96
-8.79
-0.18
6.57
10.76
12.33
11.89
10.50
9.23
8.80
9.37
10.56
11.71
12.21
11.75
10.37
8.37
6.11
3.94
2.12
0.76
-0.04
-0.24
0.13
0.95
1.93
2.63
2.56
1.36
-1.04
-4.32
-7.88
-11.06
-13.38
-14.80
-15.63
-16.35
-17.38
-18.89
-20.54
-21.70
-21.62
-19.66
-15.65
-9.90
-3.22
3.42
9.16
13.53
16.43
17.89
17.98
16.59
13.72
9.70
5.36
1.83
0.14
0.63
2.74
5.23
6.70
6.23
3.76
0.08
-3.51
-5.78
-5.96
-4.00
-0.58
3.18
6.07
7.18
6.12
3.03
-1.68
-7.60
-14.45
-22.08
-30.27
-38.53
-46.04
-51.71
-54.18
-51.94
-43.36
-27.22
-3.50
25.78
56.20
81.65
95.96
95.04
78.51
50.17
17.09
-12.31
-30.52
-32.67
-17.50
12.56
52.03
93.48
129.00
151.74
157.39
145.07
117.49
80.25
40.40
4.64
-22.34
-38.72
-45.73
-46.57
-45.00
-43.84
-44.05
-44.80
-44.24
-40.61
-33.06
-21.80
-7.92
7.25
22.16
35.15
44.35
48.04
45.31
36.78
24.58
11.45
-0.64
-11.62
-23.14
-37.02
-53.33
-69.29
-80.03
-80.96
-70.31
-50.47
-27.03
-6.25
7.63
13.84
14.42
12.31
9.51
6.30
1.94
-3.98
-10.53
-15.56
-16.79
-13.14
-5.47
3.59
10.72
13.15
9.56
0.30
-12.98
-27.97
-42.33
-54.16
-62.29
-66.25
-66.24
-62.92
-57.02
-49.24
-40.12
-30.21
-20.21
-10.94
-3.23
2.51
6.35
8.87
10.72
12.28
13.44
13.84
13.09
11.17
8.50
5.74
3.51
2.17
1.69
1.75
1.89
1.59
0.41
-2.00
-5.83
-10.92
-16.84
-22.92
-28.47
-33.03
-36.53
-39.28
-41.66
-43.87
-45.57
-45.89
-43.75
-38.30
-29.46
-18.10
-5.82
5.61
14.83
21.28
25.17
27.05
27.50
26.83
25.17
22.75
20.03
17.62
15.95
15.06
14.54
13.88
12.82
11.68
11.19
12.20
15.15
19.86
25.65
31.58
36.91
41.26
44.58
46.95
48.31
48.35
46.45
41.97
34.53
24.34
12.28
-0.22
-11.47
-19.95
-24.59
-24.87
-20.84
-13.09
-2.75
8.53
18.81
26.32
29.92
29.57
26.42
22.34
19.24
18.22
19.16
20.79
21.43
19.90
16.17
11.42
7.35
5.35
5.83
8.09
10.83
12.58
12.06
8.37
1.07
-9.44
-21.71
-33.25
-41.29
-43.96
-41.37
-35.77
-30.67
-29.06
-32.09
-38.49
-45.38
-49.46
-48.22
-40.62
-27.54
-11.94
1.48
7.43
2.27
-13.80
-35.89
-55.92
-66.37
-64.02
-51.87
-37.61
-29.47
-31.88
-43.27
-57.32
-66.53
-66.10
-55.66
-38.62
-19.67
-2.45
11.61
23.04
33.26
43.69
55.16
67.77
80.73
92.25
99.64
99.73
89.93
69.32
39.38
3.92
-31.71
-62.01
-82.47
-90.52
-85.83
-70.32
-47.72
-22.91
-0.78
14.84
22.23
22.02
16.77
9.99
4.94
3.77
7.12
14.16
23.07
31.69
38.08
41.15
40.79
37.80
33.37
28.49
23.51
18.13
11.75
3.99
-4.94
-14.22
-22.76
-29.69
-34.63
-37.80
-39.79
-41.34
-43.02
-45.06
-47.20
-48.75
-48.82
-46.60
-41.78
-34.76
-26.58
-18.57
-11.84
-6.91
-3.51
-0.92
1.63
4.57
7.77
10.64
12.36
12.27
10.09
6.04
0.72
-5.01
-10.34
-14.67
-17.68
-19.37
-19.91
-19.59
-18.70
-17.43
-15.81
-13.79
-11.30
-8.39
-5.33
-2.64
-0.89
-0.57
-1.78
-4.19
-6.98
-9.04
-9.21
-6.61
-0.87
7.67
18.00
28.73
38.24
45.17
48.65
48.45
45.01
39.24
32.27
25.12
18.56
12.96
8.35
4.59
1.47
-1.13
-3.16
-4.55
-5.25
-5.33
-4.99
-4.48
-3.96
-3.44
-2.86
-2.15
-1.45
-1.14
-1.76
-3.76
-7.27
-11.98
-17.16
-21.94
-25.54
-27.45
-27.42
-25.44
-21.67
-16.49
-10.40
-4.05
1.90
7.05
11.15
14.14
15.93
16.32
15.21
12.81
9.89
7.59
7.02
8.65
11.88
15.20
16.66
14.76
8.98
-0.00
-10.65
-21.26
-30.51
-37.91
-43.57
-48.00
-51.62
-54.56
-56.58
-57.30
-56.38
-53.69
-49.39
-43.84
-37.53
-31.05
-25.07
-20.12
-16.28
-12.82
-8.16
-0.27
12.56
30.78
53.16
77.05
99.14
116.64
127.97
133.10
133.06
129.27
122.93
114.66
104.63
92.79
79.40
65.26
51.72
40.49
33.12
30.66
33.32
40.48
50.72
62.01
71.70
76.82
74.58
63.14
42.46
14.70
-16.24
-45.65
-69.37
-84.74
-90.95
-88.70
-79.57
-65.44
-48.18
-29.66
-11.69
3.92
15.68
22.63
24.61
22.28
16.94
10.09
3.06
-3.37
-9.08
-14.41
-19.82
-25.57
-31.55
-37.25
-42.00
-45.23
-46.63
-46.28
-44.68
-42.59
-40.86
-40.29
-41.42
-44.52
-49.56
-56.11
-63.37
-70.05
-74.66
-75.90
-73.24
-67.33
-59.70
-52.13
-45.71
-40.18
-34.19
-26.08
-15.02
-1.50
12.77
25.78
36.14
43.44
48.11
50.77
51.80
51.26
49.15
45.82
42.00
38.60
36.27
35.19
34.96
34.85
34.07
32.06
28.65
24.17
19.43
15.52
13.41
13.56
15.71
18.88
21.70
22.94
21.92
18.71
13.99
8.83
4.32
1.36
0.48
1.82
5.12
9.77
15.01
19.95
23.77
25.84
25.79
23.66
19.83
15.02
10.08
5.76
2.50
0.26
-1.26
-2.48
-3.50
-4.00
-3.34
-0.92
3.33
8.72
13.90
17.24
17.44
13.91
7.02
-2.06
-11.73
-20.37
-26.77
-30.44
-31.76
-31.97
-32.68
-35.32
-40.34
-46.96
-53.28
-56.97
-56.20
-50.18
-39.38
-25.12
-8.97
7.78
24.33
40.33
55.50
69.30
80.72
88.23
90.14
85.24
73.43
56.19
36.36
17.34
1.91
-8.65
-14.98
-18.88
-22.23
-25.83
-28.91
-29.60
-26.11
-17.95
-6.64
4.71
12.62
14.65
10.41
1.52
-9.32
-19.48
-27.28
-32.20
-34.48
-34.43
-32.14
-27.57
-20.89
-12.87
-4.82
1.79
5.98
7.53
6.98
5.28
3.25
1.35
-0.39
-2.01
-3.40
-4.24
-4.19
-3.22
-1.71
-0.30
0.50
0.64
0.52
0.69
1.48
2.69
3.75
4.08
3.35
1.60
-0.95
-4.19
-8.17
-13.01
-18.74
-25.03
-31.31
-36.89
-41.10
-43.38
-43.31
-40.61
-35.27
-27.72
-18.88
-9.97
-2.14
3.97
8.44
11.97
15.43
19.43
23.92
28.25
31.46
32.80
31.99
29.16
24.61
18.45
10.59
1.00
-9.83
-20.66
-29.68
-35.02
-35.48
-30.87
-22.01
-10.42
2.15
13.95
23.32
28.73
29.03
23.68
13.16
-1.01
-16.42
-30.22
-39.65
-42.54
-37.79
-25.58
-7.60
13.20
33.10
48.43
56.50
56.31
48.75
36.24
21.90
8.73
-1.10
-6.60
-7.89
-5.82
-1.58
3.77
9.55
15.42
21.22
26.72
31.53
35.21
37.48
38.24
37.56
35.24
30.76
23.31
12.51
-1.01
-15.46
-28.44
-38.03
-43.72
-46.66
-48.84
-51.77
-55.59
-58.96
-59.99
-57.50
-51.78
-44.44
-37.48
-32.24
-28.92
-26.78
-24.90
-22.79
-20.66
-19.17
-18.87
-19.98
-22.24
-25.11
-28.01
-30.32
-31.46
-30.79
-27.67
-21.72
-12.92
-1.75
10.98
24.23
37.08
48.68
58.37
65.51
69.46
69.64
65.75
57.95
46.97
34.05
20.70
8.42
-1.44
-7.87
-10.23
-8.36
-2.76
5.37
14.29
22.02
26.93
28.18
25.98
21.38
15.82
10.52
6.14
2.67
-0.25
-2.96
-5.49
-7.48
-8.45
-8.08
-6.48
-4.17
-1.90
-0.34
0.19
-0.24
-1.28
-2.38
-3.03
-2.92
-2.01
-0.65
0.53
0.76
-0.60
-3.83
-8.70
-14.54
-20.29
-24.83
-27.12
-26.46
-22.74
-16.34
-8.11
0.88
9.61
17.28
23.28
27.15
28.53
27.21
23.29
17.33
10.29
3.31
-2.58
-6.70
-8.82
-9.03
-7.67
-5.20
-2.09
1.20
4.37
7.34
10.13
12.71
14.78
15.71
14.72
11.30
5.49
-1.98
-10.06
-17.77
-24.65
-30.78
-36.46
-41.77
-46.28
-49.09
-49.24
-46.14
-39.82
-30.96
-20.52
-9.51
1.34
11.50
20.59
28.27
34.22
38.20
40.15
40.15
38.38
35.06
30.43
24.69
18.22
11.42
4.75
-1.38
-6.71
-11.06
-14.32
-16.33
-16.96
-16.17
-14.14
-11.31
-8.22
-5.32
-2.82
-0.70
1.05
2.24
2.34
0.72
-2.98
-8.52
-14.94
-20.82
-24.81
-26.07
-24.49
-20.66
-15.56
-10.15
-5.12
-0.81
2.83
5.99
8.93
11.82
14.67
17.36
19.73
21.66
23.12
24.13
24.64
24.54
23.66
21.88
19.23
15.93
12.33
8.66
5.00
1.21
-2.88
-7.32
-11.86
-16.02
-19.31
-21.47
-22.59
-23.15
-23.81
-25.06
-26.91
-28.85
-29.96
-29.26
-26.08
-20.33
-12.50
-3.58
5.29
13.00
18.79
22.30
23.63
23.18
21.50
19.08
16.31
13.46
10.78
8.53
7.06
6.64
7.27
8.64
10.20
11.42
12.11
12.41
12.65
13.03
13.35
13.11
11.71
8.83
4.69
-0.03
-4.49
-8.03
-10.55
-12.46
-14.50
-17.35
-21.32
-26.06
-30.69
-33.97
-34.69
-32.03
-25.85
-16.78
-6.10
4.56
13.66
20.19
23.82
24.90
24.16
22.36
20.09
17.66
15.31
13.27
11.75
10.88
10.61
10.71
10.88
10.91
10.73
10.38
9.97
9.58
9.22
8.97
8.77
8.55
8.08
7.13
5.43
2.90
-0.41
-4.33
-8.72
-13.50
-18.55
-23.59
-28.12
-31.46
-32.92
-31.97
-28.42
-22.47
-14.72
-6.07
2.40
9.67
15.01
18.16
19.42
19.35
18.61
17.52
16.11
14.20
11.65
8.67
5.76
3.56
2.45
2.54
3.44
4.62
5.47
5.66
5.10
3.92
2.34
0.49
-1.59
-3.94
-6.54
-9.21
-11.77
-14.11
-16.32
-18.75
-21.72
-25.21
-28.71
-31.23
-31.65
-29.21
-23.78
-16.03
-7.15
1.55
8.98
14.52
18.08
19.95
20.53
20.16
19.02
17.19
14.77
12.01
9.28
6.97
5.33
4.38
3.92
3.76
3.73
3.76
3.80
3.69
3.24
2.25
0.68
-1.36
-3.63
-5.90
-8.05
-10.19
-12.59
-15.60
-19.53
-24.36
-29.66
-34.53
-37.72
-38.08
-34.91
-28.30
-19.12
-8.78
1.27
9.96
16.75
21.56
24.45
25.56
24.95
22.85
19.77
16.49
13.88
12.48
12.29
12.66
12.66
11.58
9.32
6.46
3.93
2.47
2.25
2.84
3.48
3.52
2.74
1.28
-0.59
-2.76
-5.36
-8.70
-13.01
-18.33
-24.38
-30.59
-36.08
-39.75
-40.49
-37.51
-30.73
-20.98
-9.86
0.73
9.20
14.79
17.68
18.68
18.70
18.44
18.15
17.76
17.13
16.19
15.05
13.92
13.00
12.42
12.20
12.24
12.37
12.39
12.20
11.78
11.15
10.35
9.30
7.85
5.78
2.98
-0.51
-4.42
-8.53
-12.74
-17.15
-21.98
-27.26
-32.60
-37.04
-39.30
-38.20
-33.27
-24.90
-14.47
-3.82
5.33
11.84
15.54
16.91
16.84
16.11
15.27
14.52
13.90
13.37
12.92
12.57
12.24
11.90
11.48
10.95
10.32
9.64
9.01
8.53
8.34
8.42
8.64
8.61
7.88
6.12
3.22
-0.65
-5.24
-10.38
-15.97
-21.78
-27.17
-31.02
-32.10
-29.54
-23.32
-14.42
-4.44
4.92
12.52
17.96
21.49
23.60
24.65
24.69
23.61
21.35
18.13
14.54
11.38
9.34
8.81
9.65
11.38
13.36
15.02
15.98
16.14
15.49
14.20
12.51
10.68
8.92
7.30
5.71
3.82
1.24
-2.40
-7.30
-13.31
-19.85
-25.94
-30.32
-31.86
-29.83
-24.26
-15.87
-5.93
4.17
13.16
20.17
24.66
26.53
26.06
23.87
20.84
17.93
15.80
14.64
14.22
14.01
13.57
12.75
11.71
10.72
9.87
9.00
7.78
6.01
3.78
1.51
-0.30
-1.42
-2.06
-2.77
-4.21
-6.85
-10.83
-16.06
-22.24
-28.79
-34.89
-39.35
-40.91
-38.63
-32.32
-22.75
-11.46
-0.25
9.27
16.11
20.00
21.23
20.48
18.59
16.34
14.30
12.73
11.52
10.48
9.46
8.48
7.76
7.52
7.80
8.42
9.03
9.29
9.01
8.19
6.92
5.30
3.33
0.94
-1.93
-5.24
-8.89
-12.85
-17.14
-21.84
-26.75
-31.37
-34.72
-35.70
-33.40
-27.63
-19.06
-9.10
0.57
8.54
14.10
17.34
18.89
19.53
19.82
19.84
19.32
17.90
15.49
12.46
9.59
7.73
7.36
8.36
10.03
11.44
11.80
10.80
8.62
5.82
3.02
0.69
-1.01
-2.27
-3.49
-5.12
-7.57
-11.12
-15.83
-21.52
-27.69
-33.42
-37.59
-39.00
-36.80
-30.90
-22.00
-11.53
-1.17
7.68
14.24
18.49
20.93
22.23
22.93
23.30
23.34
22.99
22.28
21.39
20.58
20.09
19.94
20.01
20.11
20.13
20.12
20.22
20.56
21.06
21.48
21.49
20.88
19.59
17.68
15.28
12.39
8.83
4.27
-1.59
-8.86
-17.15
-25.51
-32.56
-36.85
-37.37
-33.87
-26.93
-17.75
-7.76
1.82
10.12
16.61
21.05
23.38
23.82
22.85
21.16
19.35
17.76
16.28
14.58
12.34
9.58
6.71
4.31
2.89
2.56
3.01
3.63
3.85
3.31
2.05
0.33
-1.57
-3.48
-5.37
-7.38
-9.72
-12.61
-16.24
-20.77
-26.09
-31.75
-36.85
-40.25
-40.84
-37.99
-31.81
-23.18
-13.44
-4.02
4.05
10.24
14.49
17.01
18.15
18.20
17.43
16.08
14.28
12.15
9.81
7.42
5.22
3.48
2.43
2.08
2.24
2.53
2.55
2.05
0.98
-0.59
-2.57
-4.93
-7.70
-10.92
-14.50
-18.30
-22.18
-26.07
-29.98
-33.86
-37.36
-39.73
-40.01
-37.35
-31.49
-22.97
-13.05
-3.21
5.26
11.72
16.10
18.75
20.10
20.45
19.87
18.38
16.06
13.10
9.92
7.02
4.90
3.85
3.96
4.98
6.47
7.87
8.64
8.50
7.37
5.37
2.76
-0.20
-3.26
-6.28
-9.21
-12.19
-15.49
-19.44
-24.25
-29.74
-35.20
-39.53
-41.40
-39.80
-34.45
-25.92
-15.52
-4.85
4.69
12.20
17.34
20.28
21.44
21.37
20.56
19.40
18.15
16.81
15.28
13.43
11.30
9.14
7.40
6.49
6.58
7.46
8.56
9.26
9.06
7.84
5.79
3.31
0.77
-1.68
-4.10
-6.74
-9.94
-13.96
-18.85
-24.47
-30.40
-35.97
-40.32
-42.47
-41.57
-37.13
-29.30
-18.97
-7.59
3.23
12.25
18.92
23.44
26.38
28.31
29.43
29.66
28.80
26.89
24.23
21.42
19.02
17.38
16.53
16.30
16.40
16.56
16.54
16.16
15.28
13.78
11.60
8.75
5.42
1.87
-1.59
-4.72
-7.53
-10.31
-13.58
-17.81
-23.17
-29.30
-35.24
-39.64
-41.13
-38.76
-32.39
-22.77
-11.38
0.03
9.92
17.43
22.42
25.36
26.94
27.73
28.10
28.05
27.51
26.39
24.74
22.70
20.50
18.29
16.18
14.19
12.33
10.69
9.33
8.26
7.37
6.33
4.80
2.49
-0.60
-4.21
-7.92
-11.35
-14.41
-17.32
-20.51
-24.45
-29.26
-34.60
-39.44
-42.32
-41.77
-36.93
-28.01
-16.50
-4.66
5.28
11.94
15.27
16.32
16.52
16.97
17.96
19.02
19.35
18.27
15.58
11.64
7.14
2.89
-0.44
-2.45
-3.14
-2.85
-2.12
-1.59
-1.74
-2.81
-4.77
-7.31
-10.14
-13.01
-15.87
-18.80
-21.97
-25.50
-29.45
-33.75
-38.21
-42.46
-45.91
-47.73
-46.98
-42.86
-35.09
-24.26
-11.66
0.87
11.65
19.55
24.34
26.52
27.02
26.79
26.46
26.15
25.64
24.51
22.50
19.59
16.03
12.28
8.82
6.11
4.45
3.98
4.65
6.19
8.13
9.94
11.16
11.50
10.90
9.43
7.25
4.49
1.28
-2.42
-6.75
-11.99
-18.35
-25.72
-33.36
-39.94
-43.84
-43.70
-38.93
-29.98
-18.16
-5.28
6.96
17.31
25.17
30.52
33.78
35.51
36.25
36.29
35.67
34.27
32.05
29.16
25.92
22.74
19.86
17.36
15.20
13.39
12.05
11.33
11.20
11.35
11.28
10.48
8.70
6.18
3.40
0.84
-1.34
-3.45
-6.08
-9.80
-14.88
-21.10
-27.81
-34.13
-39.04
-41.66
-41.31
-37.63
-30.82
-21.62
-11.27
-1.18
7.39
13.73
17.70
19.67
20.22
19.83
18.81
17.32
15.51
13.65
12.04
10.96
10.54
10.69
11.19
11.71
11.95
11.74
11.00
9.77
8.12
6.17
4.08
1.98
-0.00
-1.88
-3.80
-6.00
-8.77
-12.33
-16.77
-21.95
-27.39
-32.33
-35.81
-36.88
-34.90
-29.76
-22.03
-12.80
-3.44
4.88
11.37
15.84
18.54
19.96
20.57
20.68
20.35
19.51
18.08
16.13
13.89
11.72
9.98
8.87
8.39
8.39
8.60
8.74
8.60
7.94
6.64
4.56
1.81
-1.36
-4.48
-7.10
-9.08
-10.69
-12.65
-15.81
-20.71
-27.15
-34.15
-40.16
-43.69
-43.78
-40.29
-33.76
-25.15
-15.42
-5.46
3.92
11.95
17.94
21.49
22.70
22.16
20.78
19.43
18.57
18.24
18.08
17.74
17.04
16.10
15.17
14.43
13.91
13.45
12.88
12.05
10.91
9.45
7.69
5.64
3.30
0.76
-1.85
-4.39
-6.80
-9.21
-11.92
-15.35
-19.82
-25.23
-30.95
-35.83
-38.47
-37.75
-33.22
-25.39
-15.54
-5.27
3.99
11.37
16.66
20.08
22.09
23.08
23.35
23.05
22.30
21.22
19.92
18.52
17.07
15.66
14.32
13.10
12.00
11.03
10.17
9.39
8.66
7.89
6.97
5.74
4.07
1.93
-0.58
-3.27
-5.92
-8.47
-11.13
-14.32
-18.47
-23.70
-29.64
-35.32
-39.46
-40.84
-38.73
-33.20
-25.08
-15.76
-6.66
1.12
7.11
11.43
14.57
17.02
19.07
20.66
21.55
21.54
20.62
19.08
17.25
15.43
13.71
12.02
10.36
8.81
7.65
7.08
7.10
7.36
7.26
6.23
3.98
0.63
-3.37
-7.41
-11.06
-14.21
-17.15
-20.41
-24.46
-29.41
-34.82
-39.74
-42.94
-43.27
-40.04
-33.27
-23.75
-12.75
-1.71
8.11
15.95
21.57
25.16
27.07
27.66
27.10
25.55
23.24
20.65
18.36
16.84
16.25
16.36
16.70
16.80
16.46
15.67
14.48
12.93
10.93
8.40
5.38
2.10
-1.18
-4.25
-7.07
-9.73
-12.39
-15.22
-18.48
-22.43
-27.19
-32.47
-37.34
-40.41
-40.28
-36.19
-28.46
-18.47
-8.06
1.16
8.33
13.36
16.61
18.56
19.51
19.65
19.19
18.46
17.81
17.44
17.33
17.23
16.86
16.11
15.09
14.05
13.33
13.07
13.24
13.60
13.74
13.33
12.15
10.23
7.82
5.29
2.99
1.12
-0.29
-1.38
-2.41
-3.78
-5.84
-8.87
-12.82
-17.12
-20.69
-22.15
-20.28
-14.61
-5.66
5.12
15.82
24.73
30.85
34.02
34.70
33.49
30.87
27.12
22.51
17.51
12.85
9.31
7.33
6.82
7.12
7.27
6.42
4.15
0.62
-3.51
-7.38
-10.19
-11.50
-11.38
-10.46
-9.73
-10.28
-12.78
-17.24
-23.02
-29.06
-34.33
-38.17
-40.43
-41.22
-40.67
-38.65
-34.81
-28.89
-20.98
-11.71
-2.11
6.71
13.92
19.11
22.28
23.52
22.86
20.23
15.60
9.31
2.07
-5.10
-11.34
-16.30
-20.19
-23.63
-27.18
-30.99
-34.65
-37.40
-38.58
-38.04
-36.31
-34.44
-33.69
-35.14
-39.53
-47.11
-57.68
-70.44
-83.96
-96.04
-103.87
-104.66
-96.59
-79.77
-56.68
-31.58
-9.15
7.24
16.52
20.00
20.25
19.70
19.69
20.26
20.95
21.75
23.54
27.70
35.25
46.03
58.55
70.68
80.58
87.39
91.43
93.91
96.21
99.47
104.27
110.62
118.00
125.07
129.87
130.27
124.86
113.68
98.21
80.95
64.33
49.94
37.67
26.32
14.69
2.39
-9.80
-20.80
-29.69
-36.06
-39.51
-40.07
-37.70
-32.33
-24.09
-13.47
-1.79
9.30
18.48
25.34
29.44
30.47
28.45
23.79
17.37
9.56
0.27
-11.54
-24.26
-34.75
-40.81
-43.14
-46.10
-51.67
-59.74
-68.50
-75.31
-75.45
-67.17
-52.02
-34.09
-18.01
-6.67
-0.77
0.91
0.26
-1.33
-4.35
-10.03
-18.85
-29.54
-38.94
-43.79
-42.03
-33.58
-20.17
-5.01
8.71
18.99
25.40
28.86
30.45
30.85
30.19
28.40
25.32
21.22
16.83
13.10
10.75
9.86
9.91
10.12
9.90
8.94
7.30
5.30
3.18
1.13
-0.89
-3.03
-5.40
-8.09
-11.15
-14.62
-18.62
-23.40
-29.08
-35.62
-42.53
-48.81
-53.13
-54.14
-50.98
-43.60
-32.88
-20.32
-7.66
3.59
12.51
18.74
22.46
24.15
24.42
23.86
22.86
21.59
19.99
17.93
15.39
12.56
9.86
7.75
6.56
6.32
6.84
7.80
8.92
9.91
10.51
10.45
9.52
7.67
5.07
2.03
-1.16
-4.46
-8.07
-12.39
-17.75
-24.15
-31.13
-37.84
-43.20
-46.19
-46.07
-42.57
-35.92
-26.80
-16.19
-5.16
5.32
14.37
21.37
25.95
28.09
28.13
26.77
24.74
22.75
21.20
20.22
19.75
19.60
19.61
19.54
19.10
18.02
16.13
13.47
10.36
7.21
4.32
1.74
-0.72
-3.24
-5.79
-8.07
-9.69
-10.52
-10.92
-11.77
-13.99
-18.08
-23.75
-29.78
-34.51
-36.38
-34.54
-29.06
-20.96
-11.69
-2.75
4.74
10.30
13.99
16.24
17.58
18.39
18.94
19.38
19.89
20.65
21.74
23.04
24.19
24.78
24.59
23.72
22.51
21.34
20.33
19.22
17.51
14.67
10.46
5.07
-0.98
-6.94
-12.09
-15.91
-18.20
-19.16
-19.33
-19.55
-20.65
-23.19
-27.19
-31.89
-35.93
-37.76
-36.17
-30.77
-22.16
-11.76
-1.28
7.80
14.56
18.75
20.58
20.50
19.02
16.69
14.14
11.97
10.71
10.55
11.30
12.37
13.10
13.04
12.21
11.09
10.40
10.57
11.46
12.29
12.01
9.76
5.23
-1.12
-8.30
-15.14
-20.67
-24.40
-26.44
-27.43
-28.27
-29.81
-32.38
-35.66
-38.69
-40.19
-39.08
-34.88
-27.88
-19.00
-9.45
-0.39
7.27
13.04
16.78
18.65
19.00
18.17
16.48
14.14
11.36
8.50
6.07
4.64
4.61
6.01
8.45
11.29
13.91
15.88
17.01
17.19
16.29
14.04
10.29
5.14
-0.92
-7.14
-12.80
-17.44
-21.04
-23.96
-26.67
-29.59
-32.89
-36.40
-39.57
-41.54
-41.31
-38.05
-31.49
-22.14
-11.27
-0.48
8.79
15.65
19.96
22.11
22.69
22.19
20.81
18.63
15.83
12.85
10.46
9.41
10.18
12.60
15.92
19.14
21.42
22.36
22.10
20.93
19.06
16.40
12.69
7.78
1.88
-4.37
-10.15
-14.84
-18.19
-20.40
-21.93
-23.32
-25.02
-27.31
-30.27
-33.62
-36.74
-38.66
-38.38
-35.18
-28.97
-20.36
-10.59
-1.18
6.62
12.05
15.09
16.32
16.59
16.75
17.30
18.32
19.53
20.53
21.05
21.05
20.68
20.17
19.73
19.42
19.21
19.04
18.80
18.26
17.12
15.03
11.74
7.31
2.08
-3.31
-8.22
-12.12
-14.80
-16.26
-16.83
-17.06
-17.68
-19.37
-22.59
-27.23
-32.57
-37.28
-39.88
-39.20
-34.90
-27.48
-18.09
-8.12
1.25
9.21
15.41
19.78
22.47
23.69
23.78
23.11
22.07
21.05
20.32
20.03
20.14
20.51
20.89
21.06
20.85
20.27
19.37
18.20
16.65
14.48
11.41
7.36
2.61
-2.30
-6.75
-10.22
-12.55
-13.88
-14.56
-14.99
-15.59
-16.78
-19.09
-22.95
-28.37
-34.74
-40.66
-44.31
-44.09
-39.26
-30.37
-19.08
-7.55
2.38
9.78
14.67
17.68
19.57
20.77
21.36
21.29
20.69
19.97
19.69
20.23
21.50
22.94
23.84
23.74
22.64
20.97
19.36
18.18
17.39
16.54
15.02
12.40
8.55
3.72
-1.57
-6.68
-11.00
-14.03
-15.46
-15.39
-14.35
-13.26
-13.22
-15.09
-19.14
-24.81
-30.78
-35.36
-37.13
-35.37
-30.25
-22.63
-13.71
-4.59
3.92
11.35
17.49
22.24
25.67
27.95
29.30
29.97
30.06
29.59
28.58
27.13
25.49
23.92
22.59
21.37
19.96
18.08
15.66
12.94
10.41
8.45
7.11
6.08
4.75
2.66
-0.23
-3.48
-6.35
-8.18
-8.90
-9.02
-9.50
-11.32
-14.99
-20.37
-26.63
-32.56
-36.94
-38.86
-37.88
-34.01
-27.69
-19.56
-10.45
-1.23
7.27
14.41
19.81
23.43
25.49
26.26
26.11
25.26
23.92
22.24
20.35
18.35
16.27
14.06
11.61
8.97
6.23
3.63
1.36
-0.46
-1.86
-3.01
-4.16
-5.59
-7.41
-9.52
-11.61
-13.32
-14.55
-15.60
-17.19
-20.11
-24.78
-30.83
-37.09
-41.93
-43.90
-42.30
-37.32
-29.86
-21.16
-12.33
-4.08
3.20
9.45
14.72
19.02
22.31
24.50
25.52
25.45
24.53
23.16
21.69
20.33
19.00
17.50
15.62
13.35
10.86
8.43
6.21
4.15
2.04
-0.29
-2.82
-5.27
-7.32
-8.79
-9.88
-11.07
-12.91
-15.88
-20.18
-25.67
-31.88
-38.05
-43.22
-46.34
-46.50
-43.18
-36.51
-27.30
-16.83
-6.46
2.75
10.32
16.26
20.90
24.57
27.41
29.33
30.13
29.70
28.12
25.73
23.02
20.47
18.44
17.07
16.35
16.09
15.94
15.52
14.47
12.52
9.63
5.96
1.81
-2.35
-6.08
-9.05
-11.11
-12.45
-13.58
-15.30
-18.44
-23.47
-30.22
-37.70
-44.35
-48.53
-49.00
-45.42
-38.20
-28.37
-17.19
-5.84
4.68
13.64
20.62
25.48
28.35
29.68
30.07
30.18
30.55
31.44
32.73
33.98
34.45
33.47
30.68
26.26
20.92
15.58
11.05
7.67
5.25
3.25
1.12
-1.38
-4.12
-6.67
-8.55
-9.57
-9.95
-10.21
-11.18
-13.59
-17.95
-24.32
-32.12
-40.25
-47.17
-51.25
-51.18
-46.45
-37.47
-25.57
-12.56
-0.16
10.36
18.50
24.37
28.33
30.77
31.92
31.96
31.15
29.81
28.27
26.75
25.21
23.51
21.49
19.19
16.90
15.03
13.94
13.75
14.22
14.88
15.15
14.54
12.80
9.99
6.46
2.78
-0.47
-2.90
-4.54
-5.86
-7.63
-10.73
-15.64
-22.17
-29.31
-35.49
-39.03
-38.71
-34.15
-25.97
-15.53
-4.46
5.77
14.19
20.44
24.59
26.96
27.96
27.95
27.26
26.16
24.89
23.56
22.19
20.67
18.82
16.52
13.87
11.20
9.03
7.78
7.48
7.77
7.96
7.35
5.58
2.69
-0.98
-5.01
-9.12
-13.19
-17.29
-21.56
-26.16
-31.22
-36.72
-42.35
-47.31
-50.32
-49.94
-45.10
-35.68
-22.70
-8.18
5.59
16.76
24.55
29.17
31.51
32.51
32.64
31.89
30.02
26.91
22.85
18.51
14.62
11.80
10.34
10.30
11.58
13.97
17.14
20.56
23.40
24.62
23.21
18.54
10.66
0.54
-10.09
-19.23
-25.35
-28.11
-28.58
-28.80
-30.73
-35.25
-41.54
-47.63
-51.37
-51.51
-48.18
-42.47
-35.58
-28.06
-19.74
-10.22
0.41
11.27
20.86
27.79
31.34
31.77
29.96
26.99
23.72
20.57
17.74
15.31
13.37
12.01
11.24
10.95
10.94
10.97
10.73
10.02
8.71
6.77
4.21
1.08
-2.52
-6.43
-10.43
-14.39
-18.45
-23.07
-28.90
-36.28
-44.87
-53.28
-59.39
-61.06
-57.01
-47.52
-34.45
-20.54
-8.32
0.77
6.69
10.50
13.63
17.08
21.10
25.26
28.92
31.55
32.91
32.98
31.83
29.57
26.43
22.87
19.57
17.24
16.37
16.95
18.40
19.75
19.93
18.26
14.75
10.16
5.67
2.35
0.66
0.23
0.01
-1.21
-4.29
-9.40
-15.91
-22.73
-28.50
-31.96
-32.14
-28.69
-21.99
-13.19
-3.95
4.05
9.60
12.35
12.69
11.51
9.74
8.04
6.77
5.99
5.64
5.57
5.60
5.51
5.18
4.63
4.08
3.84
4.02
4.40
4.39
3.29
0.68
-3.27
-7.70
-11.48
-13.67
-14.03
-13.06
-11.81
-11.35
-12.51
-15.66
-20.69
-27.11
-33.90
-39.73
-43.01
-42.37
-37.19
-27.88
-15.98
-3.56
7.41
15.65
20.88
23.67
24.95
25.57
25.99
26.20
25.91
24.81
22.86
20.32
17.70
15.56
14.24
13.69
13.54
13.31
12.57
11.11
8.87
5.91
2.35
-1.74
-6.20
-10.79
-15.22
-19.21
-22.66
-25.72
-28.79
-32.24
-36.13
-39.93
-42.51
-42.52
-38.91
-31.42
-20.86
-8.83
2.78
12.37
19.02
22.56
23.35
22.08
19.56
16.58
13.88
12.02
11.32
11.87
13.57
16.19
19.40
22.75
25.72
27.82
28.71
28.28
26.65
23.95
20.23
15.41
9.52
2.75
-4.41
-11.45
-18.03
-24.16
-30.21
-36.57
-43.29
-49.84
-55.02
-57.30
-55.31
-48.39
-36.91
-22.29
-6.65
7.84
19.54
27.73
32.50
34.50
34.41
32.70
29.72
25.85
21.67
17.95
15.33
14.06
14.00
14.75
15.97
17.56
19.63
22.20
25.02
27.52
29.03
29.09
27.57
24.67
20.64
15.62
9.72
3.08
-3.96
-10.91
-17.35
-23.22
-28.84
-34.77
-41.38
-48.43
-54.89
-59.14
-59.44
-54.57
-44.42
-30.12
-13.81
2.00
15.21
24.71
30.45
33.14
33.79
33.15
31.61
29.27
26.30
23.08
20.20
18.25
17.63
18.28
19.84
21.81
23.74
25.38
26.67
27.69
28.49
28.98
28.87
27.82
25.44
21.47
15.98
9.33
2.17
-4.77
-10.90
-15.92
-20.00
-23.66
-27.58
-32.30
-37.96
-44.05
-49.50
-52.81
-52.55
-47.76
-38.42
-25.52
-10.80
3.71
16.23
25.72
31.94
35.23
36.22
35.54
33.74
31.32
28.79
26.68
25.37
24.89
24.95
25.04
24.81
24.14
23.32
22.80
22.98
23.93
25.30
26.41
26.55
25.29
22.60
18.84
14.64
10.54
6.87
3.61
0.44
-3.12
-7.59
-13.34
-20.45
-28.52
-36.65
-43.43
-47.29
-46.94
-41.83
-32.44
-20.16
-6.85
5.71
16.30
24.36
29.98
33.49
35.22
35.29
33.72
30.57
26.18
21.12
16.13
11.85
8.69
6.73
5.80
5.66
6.03
6.65
7.21
7.40
6.93
5.63
3.47
0.57
-2.82
-6.45
-10.12
-13.68
-17.12
-20.64
-24.55
-29.25
-34.84
-40.93
-46.52
-50.24
-50.79
-47.43
-40.31
-30.35
-19.03
-7.85
2.01
9.87
15.58
19.27
21.27
21.84
21.22
19.65
17.42
14.87
12.37
10.23
8.59
7.53
7.05
7.14
7.74
8.58
9.23
9.08
7.68
4.90
1.15
-2.94
-6.74
-9.98
-12.83
-15.74
-19.23
-23.62
-29.00
-35.21
-41.75
-47.78
-52.15
-53.61
-51.20
-44.65
-34.59
-22.42
-9.85
1.58
10.83
17.51
21.68
23.75
24.26
23.79
22.80
21.58
20.22
18.64
16.82
14.89
13.18
12.09
11.90
12.52
13.52
14.22
14.03
12.69
10.31
7.25
3.93
0.61
-2.65
-5.94
-9.36
-12.96
-16.83
-21.18
-26.28
-32.25
-38.79
-44.89
-49.09
-49.90
-46.42
-38.75
-28.01
-15.86
-3.96
6.43
14.70
20.75
24.76
27.06
27.97
27.71
26.45
24.29
21.41
18.17
15.12
12.81
11.65
11.68
12.53
13.67
14.59
14.99
14.81
14.10
12.80
10.81
8.00
4.40
0.27
-3.99
-8.05
-11.83
-15.64
-19.98
-25.29
-31.54
-38.01
-43.41
-46.20
-45.16
-39.81
-30.66
-19.03
-6.66
4.73
13.94
20.40
24.24
26.07
26.69
26.70
26.37
25.63
24.30
22.36
20.07
17.91
16.36
15.64
15.64
16.03
16.43
16.59
16.44
15.90
14.92
13.38
11.23
8.57
5.68
2.88
0.36
-2.00
-4.62
-8.11
-12.99
-19.44
-27.02
-34.68
-40.93
-44.26
-43.58
-38.62
-30.02
-19.10
-7.49
3.32
12.35
19.17
23.81
26.61
27.98
28.27
27.77
26.63
25.01
23.00
20.78
18.62
16.84
15.77
15.60
16.34
17.78
19.54
21.16
22.16
22.10
20.77
18.18
14.63
10.62
6.63
2.99
-0.28
-3.46
-7.08
-11.66
-17.51
-24.49
-31.92
-38.68
-43.37
-44.69
-41.80
-34.69
-24.17
-11.80
0.60
11.36
19.40
24.38
26.58
26.69
25.47
23.60
21.50
19.38
17.26
15.15
13.15
11.45
10.33
9.97
10.30
11.02
11.64
11.76
11.23
10.13
8.62
6.79
4.59
1.95
-1.05
-4.16
-7.14
-10.07
-13.50
-18.24
-24.74
-32.68
-40.63
-46.50
-48.30
-44.98
-36.81
-25.26
-12.35
0.12
10.91
19.48
25.70
29.59
31.19
30.57
27.98
23.92
19.05
13.99
9.31
5.43
2.64
1.10
0.79
1.41
2.42
3.21
3.29
2.49
0.90
-1.24
-3.69
-6.34
-9.18
-12.19
-15.38
-18.80
-22.70
-27.50
-33.60
-40.96
-48.80
-55.54
-59.27
-58.41
-52.41
-42.02
-29.05
-15.82
-4.31
4.35
10.06
13.50
15.56
16.95
17.94
18.39
18.05
16.84
15.03
13.19
11.88
11.44
11.76
12.41
13.00
13.35
13.53
13.66
13.65
13.09
11.50
8.61
4.59
0.02
-4.45
-8.46
-12.19
-16.14
-20.93
-26.78
-33.42
-40.03
-45.44
-48.41
-47.96
-43.64
-35.69
-25.08
-13.29
-1.98
7.52
14.43
18.73
20.92
21.84
22.25
22.67
23.23
23.73
23.84
23.31
22.15
20.68
19.34
18.52
18.33
18.62
19.03
19.25
19.04
18.32
17.08
15.25
12.74
9.52
5.72
1.67
-2.29
-6.04
-9.80
-14.11
-19.48
-26.01
-33.11
-39.51
-43.69
-44.32
-40.76
-33.18
-22.52
-10.27
1.91
12.50
20.48
25.49
27.90
28.56
28.41
28.10
27.85
27.55
27.02
26.18
25.12
23.99
22.93
22.03
21.41
21.21
21.53
22.28
23.03
23.15
22.06
19.53
15.74
11.22
6.52
2.04
-2.09
-5.93
-9.66
-13.58
-17.98
-23.10
-28.90
-34.87
-39.93
-42.65
-41.72
-36.47
-27.24
-15.40
-2.91
8.30
16.85
22.20
24.52
24.49
22.96
20.68
18.29
16.23
14.68
13.54
12.61
11.64
10.58
9.52
8.67
8.17
7.98
7.94
7.80
7.38
6.52
5.13
3.10
0.39
-2.93
-6.64
-10.49
-14.39
-18.51
-23.25
-28.91
-35.33
-41.72
-46.71
-48.87
-47.14
-41.31
-32.10
-20.98
-9.62
0.53
8.57
14.18
17.53
18.96
18.94
