1529339496.00
64.000000
-0.00
-0.00
-0.00
-0.00
-0.00
-0.00
-0.00
-0.00
-0.00
-0.00
0.00
0.01
0.01
-0.00
-0.03
-0.05
-0.05
0.00
0.13
0.36
0.66
1.01
1.37
1.72
2.06
2.40
2.79
3.24
3.80
4.42
5.06
5.66
6.20
6.68
7.15
7.68
8.31
9.14
10.09
11.04
11.88
12.56
13.14
13.76
14.65
15.96
17.91
20.32
22.90
25.38
27.58
29.57
31.68
34.32
37.81
42.54
48.15
54.10
59.83
64.97
69.58
74.14
79.34
85.71
93.76
103.00
112.62
121.73
129.77
136.75
143.30
150.75
157.77
166.64
177.95
191.79
206.97
220.57
228.25
225.36
208.53
176.87
132.76
80.05
23.07
-34.94
-92.44
-149.16
-205.23
-260.37
-313.74
-363.87
-409.83
-450.91
-486.50
-515.74
-537.23
-549.22
-549.96
-538.37
-514.21
-478.67
-433.88
-382.45
-327.02
-269.84
-212.63
-156.66
-102.95
-52.37
-5.90
35.58
71.43
101.35
125.50
144.38
158.69
169.15
176.37
180.75
182.57
182.07
179.51
175.23
169.65
163.18
156.15
148.81
141.30
133.69
126.02
118.33
110.69
103.16
95.80
88.68
81.83
75.25
68.95
62.95
57.25
51.86
46.78
42.03
37.59
33.45
29.61
26.07
22.81
19.83
17.11
14.67
12.48
10.54
8.83
7.35
6.07
4.97
4.05
3.27
2.62
2.09
1.65
1.30
1.01
0.79
0.61
0.48
0.37
0.29
0.24
0.21
0.19
0.18
0.19
0.21
0.24
0.28
0.32
0.38
0.44
0.50
0.57
0.64
0.71
0.79
0.87
0.95
1.03
1.12
1.21
1.31
1.42
1.53
1.66
1.80
1.97
2.15
2.35
2.58
2.84
3.12
3.44
3.78
4.17
4.60
5.09
5.64
6.22
6.83
7.45
8.05
8.66
9.31
10.03
10.87
11.82
12.86
13.95
15.05
16.14
17.23
18.40
19.69
21.16
22.78
24.48
26.12
27.58
28.72
29.47
29.79
29.69
29.09
27.83
25.72
22.45
17.79
11.71
4.45
-3.55
-11.73
-19.61
-26.96
-33.80
-40.40
-46.95
-53.45
-59.53
-64.54
-67.81
-68.93
-68.10
-66.03
-63.80
-62.38
-62.22
-63.09
-64.18
-64.59
-63.80
-61.96
-59.79
-58.27
-58.14
-59.75
-63.12
-68.04
-73.96
-79.66
-82.92
-80.96
-71.42
-53.80
-30.10
-4.36
19.00
36.98
49.00
56.58
61.75
65.68
68.05
67.63
63.61
56.35
47.32
38.31
30.51
23.90
17.35
9.27
-1.41
-14.37
-28.00
-39.83
-47.60
-50.26
-48.27
-43.25
-36.96
-31.58
-27.85
-25.56
-24.04
-22.86
-22.08
-22.18
-23.61
-26.46
-30.55
-35.37
-40.48
-45.42
-49.62
-52.32
-52.83
-50.83
-46.46
-40.04
-31.33
-19.28
-2.64
19.10
44.84
71.75
96.22
115.50
128.94
138.21
146.29
155.79
167.62
180.94
193.98
205.35
214.77
222.91
230.71
238.71
246.81
254.46
260.92
265.36
266.83
264.30
256.80
243.81
225.58
203.08
177.44
149.44
119.18
86.49
51.79
16.92
-14.78
-39.43
-54.08
-58.04
-53.04
-42.63
-30.82
-21.16
-16.52
-19.39
-32.07
-56.10
-90.97
-133.07
-175.71
-210.86
-231.84
-235.83
-224.77
-204.38
-181.60
-161.98
-148.04
-139.18
-132.99
-127.23
-121.62
-118.32
-121.17
-133.68
-156.85
-187.90
-220.96
-249.15
-267.08
-272.51
-265.99
-249.51
-224.88
-193.61
-157.89
-121.60
-90.03
-67.90
-57.05
-55.07
-56.52
-55.67
-49.26
-37.54
-23.16
-9.03
3.36
13.92
22.73
28.81
30.16
25.13
14.06
0.01
-12.42
-19.30
-19.45
-14.83
-9.13
-5.41
-4.37
-4.04
-1.14
6.68
19.63
35.68
52.09
67.01
80.41
93.30
106.08
117.28
123.68
122.03
111.26
93.80
74.89
60.06
52.37
50.93
51.85
50.85
46.00
38.69
32.49
30.42
32.54
35.56
34.83
27.33
13.41
-3.39
-18.96
-31.20
-40.75
-49.62
-58.57
-65.69
-67.13
-59.54
-42.53
-19.22
5.33
26.91
44.07
58.16
71.56
85.58
99.58
111.76
120.57
125.84
128.75
130.99
133.81
137.47
141.18
143.67
143.75
140.77
135.02
127.54
119.46
111.34
102.82
92.64
79.49
62.83
43.46
23.34
4.70
-10.91
-23.18
-32.78
-40.64
-47.22
-52.12
-54.47
-53.45
-48.76
-40.75
-30.38
-19.07
-8.70
-1.41
0.98
-2.40
-10.81
-22.03
-33.21
-42.03
-47.54
-50.23
-51.18
-51.02
-49.56
-46.23
-41.05
-35.38
-31.72
-32.35
-37.93
-46.66
-54.90
-58.81
-56.18
-47.36
-34.81
-21.58
-9.58
0.93
10.77
20.12
27.27
28.70
20.85
2.50
-23.95
-53.41
-80.93
-104.50
-125.98
-149.31
-176.90
-206.84
-232.67
-246.04
-240.69
-215.46
-174.65
-125.75
-76.32
-31.50
6.52
37.43
61.10
76.77
83.36
80.58
70.17
56.08
43.44
36.98
39.35
50.13
66.37
83.91
99.20
110.60
118.29
123.19
125.55
124.62
119.42
110.10
98.74
88.79
83.62
84.43
89.27
93.64
92.71
83.93
68.43
50.20
33.93
22.46
15.62
11.08
6.24
-0.24
-7.80
-14.64
-19.12
-20.45
-18.96
-15.65
-11.31
-6.16
0.02
7.51
16.39
26.43
37.29
48.50
59.44
69.53
78.41
86.09
93.12
100.45
109.02
119.36
131.26
143.95
156.53
168.28
178.81
188.00
195.70
201.70
205.91
208.77
211.56
216.13
224.26
236.63
252.33
268.96
283.58
293.80
298.59
298.36
294.41
288.10
280.19
270.81
259.78
247.04
232.84
217.61
201.62
184.67
166.18
145.46
122.30
97.20
71.35
46.28
23.19
2.52
-16.22
-34.12
-52.31
-71.36
-90.88
-109.66
-126.21
-139.49
-149.53
-157.54
-165.44
-175.14
-187.68
-202.79
-219.15
-235.02
-249.06
-261.01
-271.71
-282.81
-296.22
-313.83
-336.91
-365.57
-397.85
-429.29
-453.37
-463.34
-454.81
-427.97
-388.20
-344.37
-305.65
-278.30
-263.96
-260.26
-262.85
-267.74
-272.65
-276.89
-280.46
-283.05
-283.84
-281.84
-276.49
-267.88
-256.68
-243.35
-227.53
-207.74
-181.79
-147.83
-105.45
-56.38
-4.24
46.46
91.68
128.94
157.64
178.69
193.61
203.85
210.25
212.96
211.61
205.61
194.54
178.47
158.18
135.23
111.72
89.85
71.31
56.94
46.58
39.21
33.28
27.15
19.52
9.82
-1.62
-13.71
-24.97
-34.03
-39.96
-42.56
-42.20
-39.60
-35.47
-30.18
-23.71
-15.68
-5.68
6.48
20.50
35.66
51.01
65.63
78.90
90.46
100.07
107.42
112.08
113.63
112.12
108.29
103.69
100.35
100.04
103.69
110.92
120.10
128.86
134.91
136.63
133.21
124.41
110.17
90.38
64.87
33.71
-2.62
-43.44
-88.13
-136.21
-186.89
-238.35
-287.06
-328.10
-356.29
-367.86
-361.82
-340.22
-307.34
-268.18
-227.20
-187.75
-152.19
-122.23
-99.13
-83.46
-74.78
-71.47
-71.01
-70.72
-68.51
-63.36
-55.48
-46.12
-36.97
-29.63
-25.16
-23.85
-25.26
-28.34
-31.76
-34.07
-34.00
-30.69
-23.93
-14.33
-3.19
7.75
16.82
22.83
25.28
24.32
20.58
14.94
8.23
1.21
-5.46
-11.25
-15.76
-18.83
-20.57
-21.26
-21.31
-21.12
-21.02
-21.25
-21.99
-23.33
-25.28
-27.69
-30.19
-32.28
-33.41
-33.18
-31.41
-28.23
-23.90
-18.72
-12.91
-6.65
-0.01
6.99
14.45
22.63
31.87
42.49
54.61
67.93
81.72
94.91
106.38
115.07
120.22
121.49
119.00
113.26
105.13
95.59
85.71
76.41
68.31
61.55
55.66
49.64
42.30
32.73
20.63
6.55
-8.30
-22.36
-34.16
-42.64
-47.22
-47.80
-44.59
-38.15
-29.28
-19.00
-8.41
1.55
10.23
17.36
23.06
27.67
31.52
34.71
37.07
38.19
37.68
35.40
31.63
27.00
22.32
18.23
15.06
12.73
10.89
9.08
7.00
4.52
1.83
-0.62
-2.16
-1.89
1.12
7.54
17.48
30.27
44.43
58.06
69.32
76.97
80.72
81.09
79.13
75.89
72.23
68.65
65.47
62.84
60.77
59.17
57.79
56.36
54.65
52.62
50.37
48.01
45.56
42.85
39.61
35.47
30.25
23.92
16.69
9.08
1.83
-4.17
-8.02
-9.07
-7.10
-2.38
4.28
11.78
19.00
24.95
29.09
31.38
32.27
32.52
32.91
34.04
36.08
38.78
41.67
44.24
46.15
47.37
48.09
48.62
49.17
49.84
50.59
51.40
52.41
53.88
56.20
59.65
64.32
70.03
76.56
83.78
91.81
101.09
112.12
125.30
140.70
157.97
176.30
194.45
210.80
223.44
230.66
231.23
224.88
212.29
194.75
173.58
149.78
124.05
97.00
69.66
43.53
20.05
0.02
-16.70
-30.97
-43.94
-56.44
-68.96
-81.85
-95.58
-110.66
-126.94
-143.18
-156.91
-165.13
-165.45
-157.07
-141.07
-119.91
-96.42
-72.83
-50.49
-30.02
-11.94
2.93
13.44
18.58
18.07
12.86
5.15
-2.38
-7.51
-9.24
-8.02
-5.40
-3.06
-2.16
-3.02
-5.41
-9.05
-13.91
-20.29
-28.56
-38.78
-50.48
-62.70
-74.11
-83.29
-88.99
-90.33
-87.01
-79.27
-67.85
-53.65
-37.57
-20.43
-2.95
14.10
29.88
43.57
54.64
63.06
69.30
74.30
78.91
83.73
88.78
93.68
97.90
101.06
103.11
104.31
104.91
104.65
102.65
97.40
87.34
71.41
49.52
22.68
-7.21
-37.68
-66.12
-90.07
-107.57
-117.55
-120.02
-116.20
-108.15
-98.26
-88.56
-80.33
-74.01
-69.55
-66.84
-65.82
-66.56
-68.98
-72.76
-77.31
-81.94
-86.00
-89.07
-91.00
-91.87
-91.96
-91.58
-91.10
-90.79
-90.81
-91.24
-92.03
-93.12
-94.36
-95.52
-96.20
-95.83
-93.69
-89.17
-82.06
-72.64
-61.74
-50.43
-39.81
-30.67
-23.36
-17.85
-13.88
-11.15
-9.44
-8.51
-8.13
-8.01
-7.79
-7.17
-5.97
-4.22
-2.23
-0.38
0.98
1.71
2.00
2.19
2.67
3.49
4.37
4.71
3.88
1.58
-1.98
-6.00
-9.41
-11.18
-10.71
-7.96
-3.44
2.05
7.76
13.12
17.86
21.91
25.19
27.62
29.12
29.65
29.36
28.56
27.56
26.57
25.61
24.49
22.96
20.86
18.21
15.20
12.11
9.21
6.61
4.26
1.94
-0.63
-3.71
-7.52
-12.11
-17.32
-22.74
-27.69
-31.32
-32.85
-31.80
-28.17
-22.45
-15.41
-7.90
-0.59
6.06
11.83
16.66
20.48
23.28
25.06
25.89
25.96
25.52
24.87
24.20
23.58
22.95
22.15
21.07
19.73
18.27
16.88
15.73
14.82
14.04
13.15
11.85
9.90
7.16
3.65
-0.30
-4.17
-7.19
-8.63
-7.96
-5.04
-0.17
6.03
12.81
19.48
25.50
30.52
34.31
36.71
37.59
36.95
34.89
31.72
27.87
23.88
20.18
17.08
14.64
12.73
11.13
9.63
8.17
6.76
5.43
4.19
2.93
1.53
-0.10
-1.96
-3.98
-6.10
-8.23
-10.27
-11.97
-12.93
-12.70
-10.93
-7.61
-3.07
1.98
6.76
10.59
13.08
14.10
13.70
12.02
9.27
5.71
1.79
-1.94
-4.99
-7.01
-7.98
-8.18
-8.11
-8.23
-8.80
-9.82
-11.07
-12.29
-13.27
-13.97
-14.57
-15.38
-16.75
-18.90
-21.79
-25.06
-28.02
-29.90
-30.02
-28.02
-24.02
-18.45
-11.91
-5.02
1.81
8.28
14.20
19.39
23.69
26.98
29.20
30.42
30.76
30.39
29.49
28.16
26.47
24.50
22.31
20.04
17.87
16.01
14.60
13.65
13.02
12.47
11.73
10.59
8.86
6.45
3.26
-0.82
-5.81
-11.61
-17.85
-23.89
-28.90
-32.02
-32.63
-30.53
-25.98
-19.73
-12.73
-5.86
0.22
5.17
8.89
11.46
12.93
13.40
12.98
11.92
10.55
9.29
8.51
8.38
8.89
9.83
10.94
11.99
12.80
13.26
13.27
12.75
11.62
9.91
7.72
5.27
2.76
0.28
-2.13
-4.63
-7.32
-10.34
-13.69
-17.27
-20.71
-23.50
-25.02
-24.64
-22.00
-17.04
-10.19
-2.16
6.20
14.09
20.99
26.65
31.07
34.35
36.62
37.94
38.35
37.87
36.64
34.94
33.12
31.52
30.25
29.23
28.17
26.75
24.79
22.32
19.55
16.74
14.05
11.48
8.90
6.22
3.35
0.34
-2.78
-6.04
-9.57
-13.54
-17.99
-22.64
-26.86
-29.78
-30.54
-28.62
-24.13
-17.71
-10.37
-3.18
3.09
8.04
11.58
13.84
15.00
15.22
14.68
13.55
12.07
10.48
8.98
7.79
7.01
6.71
6.84
7.26
7.77
8.20
8.40
8.27
7.74
6.82
5.51
3.88
2.04
0.09
-1.95
-4.09
-6.49
-9.22
-12.23
-15.24
-17.73
-19.05
-18.64
-16.17
-11.63
-5.42
1.81
9.25
16.10
21.77
25.94
28.66
30.17
30.83
30.94
30.67
30.07
29.12
27.81
26.22
24.45
22.62
20.79
18.99
17.20
15.38
13.48
11.52
9.48
7.30
4.97
2.40
-0.45
-3.48
-6.61
-9.78
-12.98
-16.31
-19.86
-23.60
-27.15
-29.94
-31.17
-30.16
-26.61
-20.69
-13.04
-4.56
3.83
11.35
17.54
22.21
25.41
27.39
28.46
28.99
29.29
29.64
30.16
30.87
31.69
32.45
32.98
33.13
32.86
32.23
31.35
30.30
29.13
27.73
25.95
23.59
20.56
16.81
12.40
7.37
1.73
-4.61
-11.71
-19.58
-27.99
-36.43
-44.12
-50.15
-53.68
-54.23
-51.80
-46.90
-40.39
-33.20
-26.10
-19.54
-13.58
-8.08
-2.81
2.37
7.48
12.37
16.84
20.75
24.04
26.78
29.12
31.12
32.80
34.12
35.00
35.44
35.51
35.15
34.28
32.62
29.94
26.11
21.29
15.85
10.28
4.93
-0.13
-5.09
-10.26
-15.87
-21.81
-27.54
-32.21
-34.95
-35.17
-32.89
-28.70
-23.61
-18.73
-14.82
-12.24
-10.90
-10.57
-11.07
-12.45
-14.86
-18.50
-23.39
-29.32
-35.85
-42.46
-48.58
-53.78
-57.80
-60.56
-62.14
-62.70
-62.43
-61.56
-60.30
-58.87
-57.55
-56.53
-55.91
-55.62
-55.49
-55.36
-55.17
-55.01
-54.90
-54.63
-53.71
-51.40
-47.03
-40.20
-31.13
-20.54
-9.49
1.02
10.23
17.79
23.59
27.68
30.09
30.92
30.37
28.87
26.98
25.29
24.19
23.75
23.67
23.50
22.80
21.37
19.28
16.86
14.48
12.41
10.77
9.41
8.06
6.47
4.41
1.79
-1.43
-5.17
-9.28
-13.39
-16.94
-19.11
-19.09
-16.32
-10.73
-2.90
6.14
15.11
22.98
29.18
33.67
36.76
38.88
40.28
41.03
41.03
40.14
38.40
36.02
33.30
30.58
28.08
25.89
23.99
22.31
20.73
19.13
17.39
15.38
13.05
10.46
7.64
4.64
1.37
-2.33
-6.62
-11.60
-17.18
-23.02
-28.56
-33.04
-35.69
-35.85
-33.19
-27.84
-20.43
-11.95
-3.51
3.94
9.81
13.94
16.55
18.00
18.70
18.97
18.98
18.76
18.22
17.30
15.99
14.46
12.92
11.59
10.60
9.99
9.66
9.52
9.52
9.71
10.11
10.63
11.02
10.92
9.96
7.95
4.94
1.20
-3.03
-7.60
-12.51
-17.67
-22.73
-26.97
-29.39
-29.18
-25.99
-20.24
-12.97
-5.45
1.23
6.46
10.19
12.69
14.26
15.04
15.00
14.11
12.43
10.25
7.93
5.85
4.24
3.12
2.35
1.74
1.09
0.30
-0.74
-2.11
-3.87
-6.03
-8.52
-11.18
-13.87
-16.51
-19.11
-21.78
-24.68
-28.01
-31.92
-36.41
-41.26
-45.88
-49.44
-50.95
-49.60
-45.09
-37.78
-28.67
-19.05
-10.15
-2.75
2.87
6.88
9.61
11.30
12.03
11.75
10.47
8.33
5.66
2.89
0.38
-1.65
-3.17
-4.30
-5.26
-6.22
-7.27
-8.44
-9.66
-10.86
-12.07
-13.43
-15.16
-17.46
-20.47
-24.16
-28.35
-32.76
-36.97
-40.37
-42.19
-41.65
-38.12
-31.46
-22.13
-11.07
0.55
11.67
21.62
30.09
37.06
42.56
46.60
49.19
50.49
50.79
50.54
50.13
49.84
49.69
49.60
49.53
49.48
49.52
49.60
49.51
48.76
46.78
43.06
37.38
29.82
20.80
10.91
0.83
-8.87
-17.76
-25.67
-32.64
-38.93
-44.79
-50.29
-55.07
-58.42
-59.41
-57.27
-51.77
-43.32
-32.91
-21.82
-11.24
-2.02
5.45
11.06
14.87
17.01
17.57
16.70
14.71
12.03
9.13
6.42
4.15
2.37
0.92
-0.40
-1.78
-3.26
-4.81
-6.35
-7.83
-9.32
-10.99
-13.04
-15.59
-18.68
-22.22
-26.13
-30.44
-35.22
-40.51
-46.09
-51.34
-55.25
-56.71
-54.90
-49.61
-41.38
-31.27
-20.55
-10.30
-1.19
6.51
12.78
17.69
21.25
23.54
24.66
24.87
24.49
23.87
23.24
22.71
22.26
21.80
21.24
20.59
19.82
18.95
17.93
16.64
14.93
12.72
9.96
6.72
3.16
-0.52
-4.12
-7.51
-10.66
-13.82
-17.31
-21.50
-26.51
-32.02
-37.16
-40.71
-41.48
-38.78
-32.71
-24.10
-14.28
-4.56
4.14
11.46
17.40
22.16
25.80
28.29
29.54
29.65
28.94
27.96
27.30
27.34
28.12
29.32
30.52
31.30
31.51
31.28
30.96
30.97
31.60
32.89
34.60
36.36
37.86
39.05
40.08
41.31
43.01
45.23
47.89
50.86
54.38
59.11
66.00
76.04
89.84
107.50
128.70
152.84
179.20
206.85
234.53
260.61
283.47
301.92
315.73
325.62
332.74
337.82
340.64
339.86
333.74
321.12
302.11
278.20
251.76
225.06
199.58
175.69
153.11
131.41
110.62
91.19
73.67
58.25
44.30
30.49
15.23
-2.74
-23.78
-47.20
-71.68
-95.81
-118.72
-140.43
-161.62
-183.30
-206.43
-231.77
-259.81
-290.57
-323.14
-355.18
-382.87
-401.65
-407.75
-399.83
-379.78
-351.93
-321.29
-291.51
-263.81
-237.39
-210.80
-183.41
-155.91
-129.73
-105.97
-84.70
-65.17
-46.62
-29.17
-13.91
-2.37
4.58
7.37
7.75
8.05
10.10
14.49
20.25
25.43
28.14
27.40
23.81
19.17
15.79
15.29
17.91
22.42
26.81
29.36
29.35
27.04
23.09
17.94
11.47
3.32
-6.44
-17.00
-26.99
-35.20
-41.30
-45.95
-50.27
-55.00
-59.94
-64.12
-66.63
-67.33
-66.95
-66.60
-66.91
-67.58
-67.56
-65.81
-62.00
-56.76
-51.25
-46.38
-42.22
-38.00
-32.60
-25.29
-16.07
-5.71
4.79
14.57
23.29
30.94
37.62
43.23
47.29
49.16
48.25
44.35
37.66
28.82
18.68
8.09
-2.21
-11.64
-19.76
-26.25
-30.85
-33.35
-33.67
-32.01
-28.98
-25.67
-23.48
-23.82
-27.62
-34.94
-44.89
-55.70
-65.20
-71.30
-72.35
-67.47
-56.60
-40.35
-19.88
3.39
27.83
51.73
73.43
91.52
104.97
113.19
116.04
113.70
106.65
95.67
81.87
66.62
51.25
36.66
22.95
9.55
-4.32
-18.96
-33.65
-46.74
-56.40
-61.53
-62.37
-60.51
-58.17
-57.36
-59.12
-63.29
-68.89
-74.68
-79.70
-83.49
-85.96
-87.00
-86.26
-83.09
-76.96
-67.87
-56.69
-45.04
-34.79
-27.45
-23.65
-22.93
-24.06
-25.51
-25.96
-24.69
-21.66
-17.48
-13.10
-9.43
-6.93
-5.46
-4.49
-3.66
-3.25
-4.14
-7.35
-13.20
-20.86
-28.53
-34.13
-36.21
-34.41
-29.25
-21.59
-12.03
-0.72
12.19
26.14
39.85
51.46
59.13
61.55
58.37
50.29
38.90
26.30
14.66
5.80
0.88
0.38
4.35
12.65
25.05
41.19
60.25
80.76
100.61
117.39
129.04
134.46
133.72
127.94
118.67
107.26
94.38
80.10
64.21
46.88
28.78
11.06
-5.10
-18.96
-30.26
-39.07
-45.43
-49.64
-52.56
-55.98
-62.04
-71.92
-84.46
-95.91
-101.12
-96.00
-79.80
-55.86
-30.33
-9.54
2.55
5.35
0.94
-7.66
-18.01
-28.82
-39.41
-49.01
-56.48
-60.58
-60.58
-56.68
-50.02
-42.17
-34.44
-27.44
-20.96
-14.39
-7.27
0.34
7.69
13.67
17.21
17.69
15.18
10.39
4.37
-1.84
-7.46
-12.13
-15.99
-19.44
-22.98
-26.89
-31.04
-34.92
-37.76
-38.87
-37.84
-34.70
-29.84
-23.83
-17.17
-10.20
-3.00
4.44
12.14
19.93
27.51
34.46
40.51
45.60
49.94
53.89
57.72
61.44
64.59
66.51
66.48
64.17
59.84
54.29
48.66
44.03
41.04
39.76
39.73
40.20
40.38
39.70
37.79
34.57
30.25
25.37
20.86
17.84
17.31
19.59
24.03
28.85
31.62
29.93
22.26
8.48
-10.14
-31.46
-53.17
-73.40
-91.00
-105.61
-117.40
-126.90
-134.66
-141.04
-146.05
-148.78
-147.21
-138.57
-119.89
-89.30
-46.54
6.74
66.90
128.37
184.53
228.97
257.08
267.58
262.90
248.34
229.80
210.88
190.84
166.09
133.08
91.49
45.98
4.17
-26.29
-41.33
-42.62
-38.06
-36.65
-44.36
-61.89
-84.77
-108.04
-127.82
-142.79
-154.71
-169.54
-191.68
-221.44
-255.04
-285.82
-310.70
-328.47
-338.30
-339.25
-334.07
-323.98
-309.49
-292.16
-274.20
-263.64
-266.35
-281.58
-302.62
-325.30
-344.47
-355.79
-356.69
-344.38
-323.32
-298.18
-271.51
-208.51
-96.72
50.53
200.81
306.47
372.72
413.84
442.87
473.39
510.69
548.98
582.32
604.90
612.81
606.12
580.86
535.81
474.73
404.10
325.46
243.46
161.24
82.43
12.39
-48.80
-102.27
-149.09
-191.05
-234.77
-280.43
-328.11
-375.15
-416.57
-450.84
-478.44
-501.31
-523.06
-551.77
-586.99
-627.66
-667.25
-694.53
-698.93
-673.30
-616.40
-515.68
-408.47
-301.12
-201.04
-111.26
-31.35
39.62
101.80
154.41
196.34
224.66
244.38
257.59
266.30
271.69
274.06
273.01
268.25
260.05
247.21
234.11
222.03
211.74
203.26
196.11
189.73
183.86
178.67
173.24
169.84
168.49
168.79
170.11
171.94
174.21
177.27
181.64
186.93
193.77
201.32
208.50
214.41
218.76
222.04
225.48
230.74
239.44
253.17
271.89
293.51
313.65
326.52
326.68
311.01
280.14
238.52
192.86
149.82
113.94
86.66
66.65
51.03
36.81
21.80
4.99
-13.69
-33.71
-54.26
-74.40
-93.15
-109.33
-121.62
-128.76
-129.95
-125.31
-116.01
-104.00
-91.26
-79.04
-67.52
-56.06
-43.94
-31.10
-18.55
-7.98
-0.95
1.84
0.98
-1.87
-4.76
-6.20
-5.57
-3.22
-0.04
3.00
5.09
5.73
4.59
1.50
-3.63
-10.69
-19.34
-29.04
-39.15
-49.02
-57.99
-65.34
-70.16
-71.47
-68.46
-60.87
-49.17
-34.53
-18.53
-2.63
12.03
24.87
35.57
44.01
49.98
53.28
53.93
52.32
49.25
45.87
43.32
42.35
43.11
45.05
47.21
48.51
48.23
46.26
43.00
39.17
35.38
31.91
28.59
25.02
20.83
15.73
9.65
2.61
-5.19
-13.31
-20.85
-26.53
-28.93
-27.03
-20.70
-10.79
1.18
13.54
25.10
35.49
44.85
53.51
61.54
68.55
73.84
76.69
76.68
73.89
68.81
62.19
54.83
47.33
40.07
33.24
26.91
21.12
15.94
11.34
7.18
3.18
-1.02
-5.61
-10.49
-15.34
-19.80
-23.64
-26.98
-30.10
-33.21
-36.32
-39.12
-41.17
-42.11
-41.71
-39.83
-36.21
-30.43
-22.06
-11.06
1.84
15.20
27.12
36.07
41.47
43.88
44.68
45.26
46.42
48.01
49.24
49.20
47.36
43.87
39.31
34.40
29.68
25.38
21.53
18.12
15.23
12.95
11.31
10.21
9.40
8.58
7.43
5.74
3.44
0.53
-2.88
-6.70
-10.97
-15.85
-21.59
-28.37
-36.02
-43.85
-50.70
-55.17
-56.10
-53.01
-46.21
-36.78
-26.11
-15.48
-5.78
2.61
9.63
15.33
19.70
22.69
24.31
24.69
24.17
23.23
22.33
21.86
22.00
22.73
23.86
25.07
26.04
26.51
26.31
25.41
23.82
21.61
18.81
15.48
11.71
7.67
3.54
-0.64
-4.93
-9.49
-14.36
-19.23
-23.44
-26.10
-26.40
-23.92
-18.88
-12.04
-4.45
2.87
9.15
14.00
17.36
19.33
20.04
19.56
17.92
15.16
11.36
6.77
1.81
-2.93
-6.85
-9.43
-10.37
-9.71
-7.81
-5.39
-3.32
-2.51
-3.64
-6.89
-11.86
-17.54
-22.65
-26.02
-27.03
-25.87
-23.44
-21.00
-19.67
-20.03
-21.89
-24.40
-26.44
-27.02
-25.62
-22.33
-17.70
-12.45
-7.11
-1.98
2.98
7.92
12.81
17.45
21.43
24.34
26.00
26.56
26.36
25.82
25.20
24.57
23.87
23.02
22.05
21.05
20.12
19.19
18.16
16.85
15.18
13.19
10.96
8.55
5.88
2.83
-0.74
-4.87
-9.51
-14.51
-19.54
-24.16
-27.82
-29.87
-29.85
-27.53
-23.10
-17.17
-10.56
-4.08
1.60
6.14
9.51
11.87
13.47
14.54
15.25
15.68
15.87
15.80
15.47
14.89
14.09
13.14
12.14
11.17
10.35
9.71
9.11
8.31
7.01
4.97
2.10
-1.41
-5.24
-8.97
-12.24
-14.86
-16.85
-18.42
-19.82
-21.23
-22.61
-23.73
-24.14
-23.37
-21.15
-17.46
-12.64
-7.28
-2.01
2.63
6.33
9.05
10.85
11.82
11.99
11.34
9.87
7.78
5.44
3.34
1.87
1.26
1.40
2.03
2.81
3.51
4.01
4.31
4.44
4.34
3.94
3.14
1.91
0.27
-1.67
-3.76
-5.94
-8.20
-10.67
-13.49
-16.68
-20.09
-23.29
-25.70
-26.66
-25.73
-22.76
-18.00
-12.04
-5.65
0.42
5.55
9.34
11.64
12.48
12.06
10.62
8.51
6.07
3.71
1.81
0.58
0.11
0.26
0.78
1.35
1.71
1.60
0.84
-0.67
-3.02
-6.22
-10.21
-14.79
-19.57
-24.03
-27.59
-29.77
-30.33
-29.28
-26.86
-23.38
-19.07
-14.09
-8.53
-2.65
3.07
7.92
11.14
12.17
10.86
7.54
2.89
-2.23
-7.05
-10.98
-13.63
-14.81
-14.40
-12.38
-8.82
-4.01
1.63
7.55
13.23
18.15
21.92
24.16
24.55
22.82
18.94
13.24
6.42
-0.57
-6.78
-11.59
-14.82
-16.72
-17.80
-18.49
-18.96
-19.11
-18.65
-17.14
-14.26
-9.79
-3.75
3.49
11.25
18.59
24.52
28.22
29.41
28.27
25.47
21.91
18.32
15.14
12.39
9.87
7.37
4.81
2.26
-0.12
-2.17
-3.89
-5.33
-6.65
-8.00
-9.43
-10.90
-12.25
-13.23
-13.52
-12.97
-11.56
-9.61
-7.72
-6.55
-6.69
-8.34
-11.34
-14.99
-18.42
-20.66
-20.95
-18.90
-14.51
-8.18
-0.61
7.28
14.56
20.37
24.20
25.92
25.77
24.21
21.67
18.45
14.65
10.22
5.13
-0.56
-6.58
-12.57
-18.10
-22.80
-26.44
-28.99
-30.66
-31.84
-33.01
-34.43
-36.10
-37.70
-38.67
-38.60
-37.39
-35.40
-33.32
-31.93
-31.81
-33.03
-35.22
-37.64
-39.40
-39.59
-37.44
-32.34
-23.91
-12.16
2.44
18.93
35.92
51.88
65.50
75.87
82.68
86.08
86.50
84.42
80.33
74.68
67.94
60.70
53.59
47.13
41.60
36.88
32.48
27.79
22.33
15.99
9.11
2.30
-3.75
-8.64
-12.34
-15.20
-17.73
-20.38
-23.34
-26.36
-28.93
-30.39
-30.14
-27.95
-23.93
-18.57
-12.59
-6.70
-1.48
2.70
5.71
7.56
8.35
8.29
7.60
6.57
5.43
4.35
3.38
2.44
1.35
-0.07
-1.95
-4.33
-7.20
-10.51
-14.17
-18.05
-21.98
-25.63
-28.61
-30.51
-31.06
-30.08
-27.65
-24.00
-19.55
-14.83
-10.45
-6.92
-4.46
-2.95
-1.89
-0.66
1.26
4.00
7.28
10.56
13.27
14.97
15.42
14.52
12.27
8.74
4.12
-1.25
-6.92
-12.49
-17.66
-22.39
-26.70
-30.62
-33.92
-36.13
-36.70
-35.16
-31.40
-25.69
-18.61
-10.90
-3.27
3.60
9.14
12.82
14.29
13.49
10.86
7.23
3.53
0.54
-1.47
-2.68
-3.44
-4.06
-4.50
-4.49
-3.74
-2.16
0.03
2.36
4.37
5.72
6.36
6.38
6.01
5.54
5.25
5.34
5.85
6.61
7.29
7.55
7.21
6.37
5.31
4.37
3.73
3.32
2.92
2.33
1.40
0.15
-1.35
-3.10
-5.17
-7.67
-10.60
-13.89
-17.41
-21.10
-25.01
-29.18
-33.51
-37.64
-40.97
-42.81
-42.65
-40.44
-36.49
-31.42
-25.87
-20.26
-14.83
-9.66
-4.80
-0.34
3.63
7.05
9.94
12.37
14.46
16.27
17.82
19.08
19.95
20.31
19.97
18.70
16.40
13.11
9.12
4.85
0.75
-2.91
-6.14
-9.20
-12.50
-16.36
-20.91
-25.97
-31.06
-35.53
-38.72
-40.02
-39.04
-35.70
-30.28
-23.42
-16.01
-9.00
-3.16
1.18
4.18
6.40
8.50
10.99
13.96
17.18
20.22
22.66
24.26
25.05
25.17
24.78
23.99
22.76
21.03
18.76
15.97
12.81
9.49
6.23
3.17
0.37
-2.22
-4.70
-7.16
-9.69
-12.38
-15.28
-18.37
-21.41
-23.90
-25.11
-24.29
-20.96
-15.22
-7.76
0.39
8.12
14.67
19.71
23.24
25.46
26.59
26.80
26.25
25.10
23.50
21.51
19.09
16.16
12.69
8.78
4.65
0.47
-3.69
-7.94
-12.37
-16.95
-21.38
-25.17
-27.77
-28.86
-28.37
-26.58
-24.04
-21.38
-19.24
-18.01
-17.81
-18.35
-18.92
-18.69
-16.94
-13.40
-8.34
-2.43
3.54
9.01
13.69
17.60
20.74
22.95
23.92
23.24
20.66
16.20
10.14
2.99
-4.64
-12.15
-18.88
-24.24
-27.83
-29.73
-30.61
-31.75
-34.54
-39.89
-47.70
-56.62
-64.62
-69.76
-71.06
-68.88
-64.63
-59.97
-56.03
-53.15
-50.95
-48.91
-46.72
-44.35
-41.87
-39.08
-35.47
-30.40
-23.44
-14.48
-3.78
8.27
21.28
34.83
48.35
61.09
72.19
80.89
86.75
89.67
89.92
87.89
84.04
78.82
72.74
66.35
60.20
54.74
50.14
46.29
42.92
39.66
36.26
32.62
28.77
24.89
21.12
17.49
13.82
9.81
5.12
-0.43
-6.83
-13.77
-20.71
-27.03
-31.98
-35.00
-35.70
-34.05
-30.34
-25.12
-19.03
-12.62
-6.18
0.24
6.66
13.03
19.14
24.69
29.45
33.34
36.45
38.94
40.94
42.43
43.30
43.42
42.76
41.45
39.71
37.71
35.52
33.10
30.33
27.10
23.43
19.41
15.20
11.00
6.96
3.12
-0.54
-4.14
-7.81
-11.67
-15.77
-20.00
-24.07
-27.54
-29.96
-31.00
-30.61
-28.96
-26.39
-23.32
-20.20
-17.36
-15.10
-13.68
-13.30
-14.11
-16.10
-19.09
-22.72
-26.51
-30.00
-32.87
-34.95
-36.23
-36.71
-36.37
-35.07
-32.75
-29.38
-25.14
-20.41
-15.54
-10.88
-6.66
-3.01
-0.09
2.00
3.23
3.67
3.48
2.88
2.04
1.01
-0.34
-2.10
-4.29
-6.68
-8.88
-10.35
-10.66
-9.60
-7.32
-4.25
-1.07
1.60
3.35
4.05
3.81
2.85
1.32
-0.74
-3.37
-6.63
-10.44
-14.57
-18.62
-22.20
-24.92
-26.58
-27.18
-26.77
-25.56
-23.76
-21.61
-19.33
-17.13
-15.16
-13.45
-11.90
-10.33
-8.53
-6.41
-4.08
-1.89
-0.28
0.35
-0.17
-1.60
-3.36
-4.60
-4.53
-2.64
1.09
6.19
11.87
17.21
21.51
24.40
25.89
26.17
25.57
24.30
22.50
20.29
17.78
15.13
12.56
10.26
8.29
6.67
5.35
4.22
3.24
2.37
1.58
0.87
0.19
-0.55
-1.45
-2.59
-3.96
-5.50
-7.09
-8.68
-10.27
-11.99
-14.01
-16.42
-19.11
-21.67
-23.53
-24.11
-23.00
-20.17
-15.86
-10.57
-4.92
0.59
5.54
9.70
12.92
15.11
16.35
16.81
16.74
16.44
16.10
15.75
15.32
14.74
13.94
13.00
12.06
11.26
10.66
10.15
9.52
8.58
7.18
5.30
3.06
0.67
-1.67
-3.80
-5.73
-7.60
-9.60
-11.97
-14.85
-18.30
-22.18
-26.15
-29.68
-32.15
-32.99
-31.82
-28.59
-23.61
-17.39
-10.59
-3.83
2.35
7.56
11.49
13.97
15.02
14.85
13.89
12.66
11.68
11.21
11.28
11.64
11.95
11.98
11.77
11.61
11.89
12.94
14.75
17.02
19.17
20.55
20.73
19.62
17.53
15.01
12.61
10.61
8.84
6.80
3.89
-0.09
-4.77
-9.06
-11.50
-10.84
-6.51
1.10
10.66
20.33
28.28
33.23
34.77
33.39
30.35
27.39
26.21
27.91
32.46
38.45
43.50
44.99
41.15
32.00
19.46
6.84
-2.46
-6.10
-3.56
3.84
13.95
24.91
36.09
48.30
62.93
80.76
100.94
120.90
136.98
145.84
145.53
136.06
119.15
97.53
74.09
51.20
30.57
13.19
-0.43
-10.31
-16.82
-20.76
-23.25
-25.53
-28.76
-33.69
-40.34
-47.91
-55.11
-60.58
-63.63
-64.56
-64.43
-64.45
-65.24
-66.46
-66.81
-64.79
-59.40
-50.81
-40.26
-29.53
-20.11
-12.56
-6.27
0.20
8.59
20.31
36.08
55.81
78.80
103.87
129.59
154.66
178.15
199.71
219.65
238.73
257.73
276.96
295.80
312.59
325.04
330.83
328.54
318.21
301.43
280.80
259.01
237.82
217.65
197.77
176.83
153.75
128.23
100.78
72.36
43.94
16.06
-11.23
-38.23
-65.42
-93.39
-122.71
-153.81
-186.47
-219.25
-249.25
-272.48
-285.05
-284.76
-272.07
-250.23
-224.10
-198.39
-176.04
-157.57
-141.67
-126.50
-111.06
-95.76
-82.18
-72.22
-67.05
-66.64
-69.91
-75.32
-81.45
-87.46
-92.88
-97.37
-100.50
-101.84
-101.33
-99.70
-98.42
-99.29
-103.61
-111.47
-121.38
-130.51
-135.64
-134.31
-125.71
-111.03
-92.95
-74.65
-58.71
-46.49
-38.08
-32.86
-30.18
-29.73
-31.42
-35.12
-40.25
-45.72
-50.35
-53.24
-54.08
-53.14
-51.02
-48.45
-46.13
-44.78
-45.14
-47.81
-52.97
-60.06
-67.82
-74.72
-79.68
-82.83
-85.72
-90.88
-100.81
-116.88
-138.79
-164.77
-192.54
-220.03
-245.78
-268.49
-286.23
-296.00
-294.11
-277.40
-244.56
-196.88
-137.88
-72.19
-4.66
59.90
116.60
160.77
189.07
201.29
201.25
196.02
192.86
195.69
202.64
206.51
198.23
171.37
125.43
66.11
2.86
-54.66
-99.47
-128.39
-141.66
-141.93
-133.33
-120.76
-109.08
-101.99
-101.00
-104.95
-110.60
-114.19
-113.23
-107.37
-98.13
-87.67
-77.59
-68.54
-60.64
-54.19
-49.91
-48.49
-49.93
-53.14
-56.20
-57.42
-56.14
-52.92
-48.77
-44.11
-38.21
-29.45
-16.46
0.62
19.71
37.30
49.74
54.38
50.07
37.07
16.94
-7.23
-30.88
-48.60
-55.85
-51.07
-36.86
-19.17
-4.66
2.45
2.19
-1.67
-4.13
-1.59
6.89
20.28
37.17
56.92
79.35
103.55
126.87
145.47
155.95
157.24
151.51
143.26
137.38
136.91
141.96
149.95
157.18
160.43
158.16
150.72
139.59
126.48
112.67
98.72
84.89
71.38
58.61
47.12
37.28
29.13
22.37
16.58
11.53
7.30
4.18
2.47
2.03
2.32
2.49
1.70
-0.54
-4.25
-9.02
-14.29
-19.52
-24.35
-28.55
-31.91
-34.11
-34.72
-33.28
-29.40
-22.99
-14.31
-4.10
6.63
16.70
25.18
31.48
35.50
37.51
37.97
37.35
36.04
34.34
32.43
30.28
27.65
24.18
19.56
13.83
7.51
1.48
-3.34
-6.40
-7.76
-8.00
-8.01
-8.63
-10.42
-13.64
-18.16
-23.58
-29.16
-33.96
-36.99
-37.58
-35.61
-31.58
-26.31
-20.53
-14.61
-8.52
-2.15
4.39
10.51
15.38
18.33
19.36
19.11
18.70
19.19
21.13
24.43
28.47
32.49
35.87
38.31
39.79
40.50
40.64
40.36
39.61
38.17
35.75
32.16
27.43
21.97
16.55
12.02
9.05
8.01
8.86
11.30
14.93
19.30
24.06
28.81
33.15
36.63
38.97
40.06
40.00
39.12
37.71
36.04
34.21
32.24
30.09
27.83
25.62
23.59
21.88
20.42
19.01
17.38
15.25
12.55
9.39
6.05
2.83
-0.07
-2.74
-5.45
-8.48
-11.91
-15.49
-18.57
-20.28
-19.92
-17.18
-12.33
-6.10
0.60
6.97
12.55
17.16
20.78
23.39
24.95
25.41
24.82
23.45
21.67
19.88
18.38
17.32
16.66
16.20
15.71
14.90
13.63
11.88
9.81
7.70
5.83
4.31
3.10
1.98
0.64
-1.17
-3.59
-6.61
-10.04
-13.51
-16.50
-18.39
-18.60
-16.78
-12.95
-7.55
-1.33
4.85
10.25
14.42
17.29
19.07
20.08
20.60
20.76
20.56
20.01
19.20
18.25
17.41
16.83
16.54
16.39
16.17
15.62
14.58
13.05
11.09
8.87
6.58
4.39
2.42
0.67
-1.02
-2.83
-4.96
-7.47
-10.33
-13.34
-16.27
-18.84
-20.73
-21.58
-21.03
-18.79
-14.86
-9.51
-3.37
2.78
8.19
12.33
15.00
16.35
16.78
16.73
16.59
16.49
16.39
16.09
15.42
14.39
13.15
11.94
10.95
10.21
9.57
8.86
7.97
6.95
5.95
5.08
4.35
3.61
2.72
1.55
0.12
-1.49
-3.28
-5.29
-7.65
-10.41
-13.47
-16.42
-18.72
-19.77
-19.16
-16.87
-13.18
-8.68
-3.97
0.40
4.14
7.17
9.54
11.41
12.85
13.84
14.33
14.31
13.84
13.15
12.47
12.01
11.80
11.71
11.51
10.99
10.07
8.81
7.34
5.78
4.12
2.28
0.13
-2.39
-5.26
-8.34
-11.51
-14.63
-17.65
-20.57
-23.30
-25.70
-27.54
-28.50
-28.37
-27.04
-24.61
-21.29
-17.44
-13.42
-9.59
-6.28
-3.72
-1.96
-0.89
-0.28
0.13
0.51
0.90
1.23
1.37
1.26
0.89
0.33
-0.34
-1.02
-1.59
-1.90
-1.80
-1.18
-0.08
1.30
2.66
3.70
4.27
4.44
4.39
4.31
4.24
4.01
3.24
1.66
-0.78
-3.64
-6.16
-7.48
-7.01
-4.72
-1.13
2.92
6.66
9.71
12.15
14.32
16.60
19.11
21.67
23.99
25.81
27.05
27.88
28.59
29.46
30.59
31.89
33.10
33.94
34.24
33.97
33.22
32.05
30.44
28.18
25.05
20.88
15.71
9.84
3.63
-2.50
-8.30
-13.68
-18.69
-23.32
-27.42
-30.66
-32.56
-32.74
-31.16
-28.18
-24.51
-20.91
-17.91
-15.65
-13.99
-12.66
-11.58
-10.84
-10.66
-11.13
-12.12
-13.28
-14.16
-14.54
-14.41
-14.00
-13.65
-13.62
-14.00
-14.74
-15.66
-16.52
-17.10
-17.20
-16.71
-15.59
-13.94
-12.04
-10.29
-9.09
-8.70
-9.10
-9.95
-10.68
-10.74
-9.76
-7.71
-4.80
-1.42
2.07
5.40
8.41
11.00
13.10
14.68
15.73
16.27
16.36
16.09
15.50
14.63
13.48
12.05
10.37
8.46
6.43
4.40
2.48
0.80
-0.65
-1.91
-3.08
-4.22
-5.43
-6.74
-8.21
-9.91
-11.81
-13.86
-15.94
-17.94
-19.82
-21.57
-23.15
-24.46
-25.24
-25.19
-24.11
-22.00
-19.14
-15.94
-12.86
-10.14
-7.86
-5.94
-4.27
-2.88
-1.91
-1.54
-1.91
-2.94
-4.37
-5.81
-6.90
-7.39
-7.21
-6.38
-5.04
-3.35
-1.43
0.54
2.47
4.27
5.87
7.27
8.48
9.49
10.22
10.56
10.38
9.64
8.42
6.95
5.50
4.33
3.62
3.42
3.72
4.42
5.43
6.61
7.88
9.14
10.25
11.11
11.67
11.93
11.93
11.73
11.38
10.90
10.37
9.85
9.45
9.25
9.24
9.30
9.27
8.94
8.24
7.21
5.92
4.47
2.88
1.09
-0.99
-3.41
-6.19
-9.26
-12.45
-15.53
-18.11
-19.84
-20.40
-19.70
-17.88
-15.29
-12.38
-9.47
-6.69
-4.04
-1.49
0.97
3.20
5.10
6.63
7.82
8.80
9.65
10.35
10.79
10.85
10.47
9.72
8.77
7.74
6.75
5.82
4.93
4.02
3.07
2.04
0.98
-0.07
-1.03
-1.81
-2.40
-2.88
-3.38
-4.11
-5.22
-6.77
-8.60
-10.47
-12.04
-13.05
-13.33
-12.86
-11.74
-10.11
-8.14
-5.94
-3.61
-1.21
1.19
3.54
5.74
7.67
9.21
10.24
10.72
10.69
10.30
9.80
9.43
9.37
9.63
10.05
10.36
10.34
9.90
9.10
8.15
7.20
6.30
5.34
4.17
2.69
0.97
-0.82
-2.47
-3.88
-5.13
-6.44
-8.04
-10.01
-12.21
-14.34
-15.99
-16.80
-16.54
-15.19
-12.89
-9.97
-6.82
-3.79
-1.14
1.07
2.91
4.52
6.03
7.45
8.64
9.47
9.87
9.89
9.73
9.57
9.48
9.37
9.07
8.46
7.61
6.74
6.12
5.85
5.83
5.76
5.35
4.44
3.05
1.38
-0.42
-2.28
-4.21
-6.28
-8.47
-10.71
-12.92
-15.05
-17.12
-19.11
-20.97
-22.48
-23.34
-23.26
-22.11
-19.98
-17.17
-14.07
-11.03
-8.25
-5.78
-3.57
-1.56
0.25
1.78
2.95
3.70
4.05
4.11
3.96
3.72
3.44
3.15
2.92
2.80
2.82
2.93
3.01
2.90
2.48
1.72
0.71
-0.41
-1.49
-2.46
-3.33
-4.12
-4.87
-5.56
-6.20
-6.75
-7.22
-7.59
-7.79
-7.69
-7.14
-6.06
-4.48
-2.52
-0.36
1.85
3.99
5.97
7.69
9.11
10.14
10.77
11.04
10.98
10.65
10.10
9.36
8.50
7.60
6.79
6.23
6.01
6.15
6.56
7.09
7.59
7.86
7.77
7.21
6.10
4.48
2.46
0.28
-1.77
-3.48
-4.81
-5.89
-6.98
-8.30
-9.85
-11.47
-12.82
-13.62
-13.72
-13.15
-12.03
-10.48
-8.62
-6.51
-4.28
-2.01
0.17
2.22
4.09
5.78
7.24
8.37
9.06
9.26
9.00
8.38
7.54
6.57
5.58
4.62
3.76
3.04
2.47
1.99
1.54
1.05
0.49
-0.15
-0.90
-1.80
-2.85
-4.03
-5.23
-6.30
-7.11
-7.72
-8.25
-8.90
-9.82
-10.99
-12.23
-13.26
-13.86
-13.84
-13.14
-11.81
-9.96
-7.82
-5.61
-3.60
-1.93
-0.65
0.34
1.21
2.09
2.97
3.74
4.29
4.47
4.33
3.94
3.51
3.17
2.97
2.83
2.60
2.13
1.34
0.23
-1.11
-2.55
-3.98
-5.36
-6.67
-7.94
-9.17
-10.35
-11.43
-12.32
-12.94
-13.22
-13.16
-12.78
-12.12
-11.23
-10.09
-8.72
-7.17
-5.50
-3.83
-2.29
-0.93
0.21
1.17
1.97
2.63
3.08
3.32
3.33
3.22
3.17
3.37
3.94
4.82
5.82
6.64
7.03
6.86
6.21
5.29
4.30
3.42
2.70
2.09
1.47
0.74
-0.28
-1.66
-3.41
-5.42
-7.41
-9.05
-9.98
-9.93
-8.77
-6.59
-3.71
-0.56
2.42
4.92
6.85
8.27
9.35
10.24
10.96
11.47
11.70
11.59
11.20
10.71
10.22
9.84
9.59
9.39
9.14
8.80
8.32
7.71
7.05
6.41
5.79
5.09
4.16
2.89
1.29
-0.48
-2.19
-3.61
-4.69
-5.60
-6.54
-7.66
-8.91
-10.00
-10.59
-10.37
-9.27
-7.50
-5.36
-3.18
-1.16
0.64
2.21
3.58
4.77
5.80
6.73
7.61
8.45
9.21
9.78
10.00
9.78
9.11
8.09
6.94
5.88
5.06
4.54
4.20
3.85
3.31
2.43
1.25
-0.14
-1.57
-2.98
-4.41
-5.91
-7.52
-9.20
-10.83
-12.29
-13.48
-14.41
-15.02
-15.25
-14.97
-14.03
-12.37
-10.14
-7.62
-5.16
-3.02
-1.29
0.15
1.47
2.75
3.95
4.87
5.32
5.14
4.33
3.05
1.51
-0.05
-1.41
-2.44
-3.06
-3.24
-3.03
-2.48
-1.67
-0.68
0.31
1.07
1.37
1.03
0.10
-1.23
-2.60
-3.79
-4.77
-5.79
-7.13
-8.93
-11.06
-13.11
-14.61
-15.24
-14.95
-13.97
-12.62
-11.11
-9.54
-7.89
-6.13
-4.28
-2.45
-0.76
0.72
2.00
3.20
4.35
5.45
6.39
7.04
7.37
7.43
7.31
7.21
7.25
7.48
7.83
8.18
8.35
8.20
7.65
6.69
5.40
4.01
2.69
1.62
0.78
0.02
-0.84
-1.98
-3.43
-5.10
-6.78
-8.27
-9.35
-9.90
-9.82
-8.97
-7.33
-4.95
-2.01
1.23
4.47
7.55
10.32
12.70
14.61
15.92
16.55
16.56
16.09
15.42
14.82
14.41
14.11
13.79
13.29
12.58
11.70
10.75
9.80
8.89
8.02
7.15
6.28
5.40
4.54
3.72
2.93
2.03
0.89
-0.67
-2.76
-5.33
-8.13
-10.77
-12.78
-13.85
-13.84
-12.81
-10.96
-8.53
-5.71
-2.67
0.43
3.37
5.95
7.92
9.16
9.72
9.75
9.48
9.11
8.71
8.28
7.81
7.30
6.78
6.32
5.91
5.50
5.04
4.47
3.87
3.30
2.79
2.24
1.48
0.38
-1.04
-2.62
-4.11
-5.36
-6.34
-7.21
-8.13
-9.16
-10.24
-11.15
-11.60
-11.41
-10.52
-9.03
-7.18
-5.19
-3.29
-1.60
-0.15
1.04
2.02
2.75
3.17
3.21
2.94
2.50
2.13
2.06
2.36
2.99
3.80
4.56
5.12
5.49
5.76
6.07
6.53
7.10
7.65
7.99
7.94
7.39
6.32
4.79
2.92
0.85
-1.33
-3.49
-5.57
-7.60
-9.64
-11.79
-14.06
-16.35
-18.44
-20.06
-20.98
-21.12
-20.52
-19.33
-17.73
-15.90
-14.00
-12.11
-10.26
-8.44
-6.59
-4.67
-2.75
-0.96
0.53
1.54
2.06
2.21
2.23
2.35
2.76
3.50
4.47
5.51
6.39
6.88
6.82
6.15
4.95
3.45
1.93
0.64
-0.22
-0.57
-0.39
0.24
1.21
2.34
3.41
4.24
4.69
4.76
4.52
4.12
3.66
3.21
2.79
2.44
2.13
1.89
1.69
1.46
1.16
0.80
0.50
0.42
0.70
1.30
2.03
2.67
3.01
3.01
2.76
2.37
1.91
1.37
0.68
-0.13
-0.97
-1.66
-2.12
-2.39
-2.64
-3.09
-3.91
-5.09
-6.55
-8.07
-9.50
-10.67
-11.52
-11.94
-11.88
-11.25
-10.03
-8.31
-6.23
-4.04
-1.98
-0.22
1.24
2.54
3.88
5.38
7.02
8.62
9.95
10.79
11.13
11.09
10.91
10.82
10.89
11.04
11.10
10.89
10.33
9.45
8.34
7.08
5.68
4.13
2.41
0.55
-1.33
-3.05
-4.43
-5.40
-5.96
-6.19
-6.23
-6.27
-6.47
-6.98
-7.78
-8.77
-9.71
-10.28
-10.26
-9.53
-8.18
-6.42
-4.54
-2.79
-1.31
-0.16
0.69
1.31
1.76
2.05
2.21
2.29
2.32
2.41
2.65
3.06
3.54
3.92
4.03
3.75
3.08
2.22
1.45
1.04
1.11
1.50
1.92
1.99
1.49
0.45
-0.97
-2.49
-3.99
-5.51
-7.22
-9.24
-11.49
-13.70
-15.50
-16.55
-16.68
-15.88
-14.31
-12.19
-9.72
-7.16
-4.66
-2.41
-0.53
0.94
2.02
2.76
3.21
3.39
3.22
2.70
1.87
0.88
-0.04
-0.67
-0.90
-0.82
-0.63
-0.56
-0.69
-0.98
-1.27
-1.49
-1.73
-2.22
-3.18
-4.69
-6.56
-8.40
-9.81
-10.57
-10.77
-10.74
-10.89
-11.50
-12.63
-14.08
-15.44
-16.27
-16.25
-15.25
-13.39
-10.98
-8.38
-5.92
-3.77
-1.94
-0.32
1.17
2.57
3.78
4.69
5.28
5.56
5.65
5.63
5.51
5.34
5.08
4.77
4.46
4.23
4.11
4.11
4.22
4.29
4.21
3.81
2.96
1.62
-0.16
-2.25
-4.52
-6.84
-9.14
-11.29
-13.09
-14.25
-14.45
-13.53
-11.53
-8.76
-5.58
-2.39
0.67
3.60
6.50
9.40
12.20
14.70
16.69
18.05
18.78
19.03
19.00
18.83
18.59
18.27
17.82
17.22
16.52
15.74
14.97
14.20
13.40
12.46
11.29
9.90
8.40
6.92
5.59
4.31
2.84
0.90
-1.69
-4.90
-8.42
-11.75
-14.37
-15.84
-15.94
-14.67
-12.20
-8.82
-4.98
-1.16
2.23
4.94
6.97
8.53
9.88
11.14
12.23
12.89
12.93
12.37
11.44
10.43
9.55
8.81
8.06
7.20
6.23
5.29
4.54
4.00
3.50
2.75
1.51
-0.24
-2.29
-4.31
-6.03
-7.37
-8.43
-9.36
-10.29
-11.28
-12.30
-13.35
-14.50
-15.83
-17.29
-18.63
-19.38
-19.15
-17.71
-15.20
-12.00
-8.53
-5.10
-1.74
1.66
5.19
8.79
12.22
15.11
17.19
18.31
18.55
18.17
17.49
16.76
16.13
15.58
14.98
14.14
12.92
11.32
9.43
7.44
5.53
3.84
2.45
1.31
0.38
-0.45
-1.26
-2.16
-3.23
-4.58
-6.33
-8.54
-11.21
-14.19
-17.22
-19.95
-21.97
-22.97
-22.79
-21.41
-19.01
-15.92
-12.44
-8.91
-5.52
-2.35
0.56
3.16
5.33
6.88
7.69
7.76
7.25
6.45
5.68
5.18
4.99
5.06
5.28
5.56
5.87
6.17
6.43
6.58
6.53
6.23
5.70
4.97
4.14
3.27
2.28
1.03
-0.71
-3.08
-6.08
-9.49
-12.92
-15.86
-17.88
-18.74
-18.40
-17.08
-15.07
-12.64
-9.97
-7.08
-4.00
-0.82
2.31
5.19
7.59
9.37
10.46
10.84
10.52
9.53
7.98
6.06
4.02
2.07
0.31
-1.28
-2.81
-4.35
-5.80
-6.89
-7.28
-6.62
-4.77
-1.78
2.08
6.37
10.58
14.25
17.02
18.75
19.39
19.03
17.85
16.10
14.22
12.85
12.68
14.36
18.23
24.17
31.62
39.71
47.49
54.15
59.14
62.14
62.96
61.53
57.82
51.88
43.83
33.83
22.11
9.08
-4.51
-17.49
-28.40
-35.86
-39.02
-37.99
-33.78
-28.00
-22.27
-17.63
-14.41
-12.33
-10.89
-9.72
-8.77
-8.17
-8.07
-8.46
-9.23
-10.16
-11.14
-12.12
-13.13
-14.14
-15.01
-15.56
-15.68
-15.38
-14.94
-14.70
-15.03
-16.10
-17.82
-19.84
-21.65
-22.77
-22.83
-21.72
-19.55
-16.61
-13.31
-10.00
-6.86
-3.94
-1.20
1.42
3.89
6.09
7.85
9.02
9.63
9.83
9.89
10.00
10.25
10.55
10.70
10.52
9.94
9.06
7.98
6.82
5.59
4.28
2.88
1.47
0.18
-0.94
-1.92
-2.92
-4.12
-5.61
-7.40
-9.45
-11.70
-14.15
-16.79
-19.47
-21.90
-23.63
-24.21
-23.38
-21.11
-17.68
-13.52
-9.16
-5.01
-1.28
2.10
5.44
9.05
13.04
17.13
20.68
22.97
23.49
22.30
20.00
17.46
15.44
14.25
13.75
13.42
12.88
11.95
10.83
9.84
9.22
8.91
8.64
8.06
6.99
5.51
3.94
2.62
1.69
0.98
0.03
-1.59
-4.14
-7.42
-10.91
-13.88
-15.84
-16.64
-16.48
-15.77
-14.84
-13.82
-12.60
-11.02
-9.01
-6.66
-4.12
-1.60
0.82
3.09
5.12
6.78
7.89
8.33
8.23
7.92
7.81
8.23
9.17
10.42
11.59
12.42
12.86
13.09
13.34
13.73
14.19
14.45
14.22
13.35
11.85
9.88
7.69
5.49
3.45
1.66
0.10
-1.30
-2.64
-4.10
-5.76
-7.64
-9.67
-11.58
-13.06
-13.85
-13.78
-12.83
-11.19
-9.11
-6.90
-4.79
-2.92
-1.29
0.07
1.16
1.95
2.44
2.64
2.61
2.45
2.24
2.01
1.68
1.13
0.22
-1.10
-2.74
-4.56
-6.36
-8.02
-9.48
-10.79
-11.99
-13.02
-13.77
-14.04
-13.73
-12.99
-12.16
-11.71
-12.08
-13.49
-15.82
-18.79
-21.90
-24.69
-26.77
-27.92
-28.08
-27.36
-25.99
-24.19
-22.15
-19.97
-17.61
-15.06
-12.31
-9.34
-6.14
-2.69
0.99
4.72
8.14
10.81
12.35
12.70
12.13
11.16
10.23
9.47
8.58
7.04
4.43
0.70
-3.70
-8.12
-11.95
-14.99
-17.54
-20.17
-23.46
-27.64
-32.56
-37.67
-42.36
-46.16
-48.99
-51.33
-54.12
-58.50
-65.33
-74.69
-85.66
-96.49
-105.28
-110.81
-113.17
-113.72
-114.49
-117.19
-122.37
-129.21
-135.86
-140.13
-140.08
-134.35
-122.05
-102.76
-76.35
-42.92
-2.88
43.38
95.87
155.43
223.37
300.20
383.79
468.24
544.58
603.16
637.22
645.37
631.94
604.71
571.46
537.06
502.70
467.32
429.85
391.03
353.24
319.15
290.05
264.90
240.92
215.03
185.19
151.17
114.69
78.78
46.75
21.30
3.41
-8.21
-17.01
-27.77
-45.19
-72.41
-110.38
-157.71
-211.09
-265.99
-317.44
-361.16
-394.68
-418.35
-435.27
-450.06
-466.54
-485.59
-504.54
-518.41
-522.57
-514.93
-496.50
-470.22
-439.07
-404.81
-368.07
-329.57
-291.04
-255.19
-224.82
-201.31
-184.07
-170.76
-158.51
-145.22
-130.25
-114.33
-98.89
-85.12
-73.45
-63.36
-53.82
-43.93
-33.35
-22.45
-11.99
-2.64
5.55
13.24
21.36
30.66
41.10
51.84
61.65
69.40
74.50
77.09
77.76
77.22
76.03
74.60
73.23
72.24
72.04
72.97
75.12
78.25
81.92
85.65
89.10
92.14
94.77
96.92
98.48
99.23
98.91
97.32
94.40
90.21
85.06
79.51
74.40
70.62
68.70
68.42
68.65
67.66
63.86
56.51
46.11
34.16
22.42
12.03
3.09
-5.19
-13.86
-23.57
-34.14
-44.70
-54.22
-61.96
-67.72
-71.69
-74.22
-75.55
-75.75
-74.67
-72.04
-67.52
-60.86
-52.08
-41.85
-31.42
-22.39
-16.13
-13.10
-12.63
-13.23
-13.28
-11.74
-8.51
-4.33
-0.30
2.65
4.00
3.61
1.75
-0.95
-3.50
-4.65
-3.21
1.50
9.36
19.44
30.54
41.92
53.67
66.40
80.35
94.42
105.91
111.38
108.46
97.24
80.83
64.08
51.37
44.70
43.07
43.54
43.03
39.68
33.11
23.72
11.82
-2.41
-18.38
-34.65
-48.97
-59.30
-64.71
-65.76
-64.08
-61.48
-59.19
-57.72
-57.26
-57.93
-59.76
-62.24
-63.97
-62.95
-57.43
-47.10
-33.54
-19.79
-8.63
-1.03
4.82
13.14
28.96
56.23
96.79
150.52
215.93
290.64
370.91
450.86
522.30
576.26
605.78
608.61
588.36
552.99
511.65
471.32
435.28
403.59
374.95
348.47
324.35
303.33
285.68
270.69
256.84
242.55
226.77
209.23
190.36
170.73
150.63
129.94
108.23
85.06
60.27
34.13
7.29
-19.46
-45.51
-70.51
-94.41
-117.40
-139.65
-161.26
-182.22
-202.47
-221.97
-241.00
-260.18
-280.45
-302.55
-326.44
-350.76
-372.91
-389.71
-398.55
-398.38
-390.12
-376.20
-359.51
-342.31
-325.61
-309.27
-292.54
-274.81
-255.94
-236.35
-216.68
-197.55
-179.43
-162.66
-147.54
-134.42
-123.66
-115.59
-110.27
-107.42
-106.42
-106.54
-107.08
-107.60
-107.87
-107.72
-106.93
-105.24
-102.49
-98.86
-95.07
-92.07
-90.71
-91.31
-93.38
-95.78
-97.15
-96.29
-92.46
-85.41
-75.19
-61.98
-46.04
-27.87
-8.35
11.27
29.63
45.57
58.52
68.61
76.50
82.89
88.22
92.46
95.31
96.66
96.89
96.97
98.22
101.80
108.21
117.11
127.28
136.97
144.25
147.41
145.24
137.20
123.60
105.44
84.43
62.63
42.14
24.68
11.17
1.50
-5.43
-11.26
-17.56
-25.19
-34.02
-43.04
-50.89
-56.47
-59.27
-59.47
-57.64
-54.46
-50.51
-46.32
-42.34
-39.07
-36.89
-35.96
-36.12
-36.89
-37.71
-38.13
-37.92
-37.19
-36.23
-35.34
-34.75
-34.47
-34.40
-34.33
-34.01
-33.26
-31.99
-30.16
-27.84
-25.13
-22.12
-18.90
-15.55
-12.18
-8.96
-6.09
-3.74
-2.03
-1.01
-0.64
-0.81
-1.36
-2.11
-2.87
-3.59
-4.26
-5.00
-5.94
-7.14
-8.51
-9.87
-11.02
-11.84
-12.38
-12.71
-12.92
-12.95
-12.59
-11.63
-9.95
-7.61
-4.83
-1.93
0.89
3.57
6.24
9.08
12.16
15.38
18.41
20.89
22.48
23.14
23.04
22.55
22.04
21.71
21.60
21.59
21.52
21.25
20.68
19.81
18.67
17.31
15.77
14.09
12.33
10.59
8.95
7.39
5.73
3.77
1.31
-1.64
-4.81
-7.74
-9.99
-11.34
-11.87
-11.98
-12.07
-12.40
-12.92
-13.33
-13.31
-12.65
-11.35
-9.68
-8.01
-6.80
-6.43
-7.21
-9.31
-12.61
-16.60
-20.24
-22.22
-21.24
-16.63
-8.61
1.63
12.36
21.99
29.60
35.18
39.33
42.81
45.97
48.72
50.61
51.22
50.40
48.27
45.01
40.66
35.07
28.05
19.59
10.08
0.37
-8.41
-15.29
-19.69
-21.70
-22.01
-21.64
-21.52
-22.10
-23.37
-24.87
-26.07
-26.64
-26.55
-25.94
-25.04
-23.95
-22.72
-21.32
-19.77
-18.15
-16.61
-15.35
-14.64
-14.78
-15.87
-17.79
-20.17
-22.42
-23.97
-24.49
-24.01
-22.79
-21.22
-19.61
-18.08
-16.66
-15.33
-14.17
-13.31
-12.91
-13.06
-13.73
-14.73
-15.84
-16.82
-17.50
-17.80
-17.72
-17.25
-16.38
-15.07
-13.33
-11.25
-9.02
-6.85
-4.95
-3.42
-2.24
-1.32
-0.59
-0.02
0.37
0.55
0.54
0.46
0.41
0.48
0.65
0.83
0.89
0.80
0.62
0.48
0.52
0.78
1.25
1.78
2.21
2.37
2.13
1.45
0.42
-0.79
-1.90
-2.66
-2.91
-2.63
-2.02
-1.35
-0.94
-1.01
-1.64
-2.76
-4.15
-5.47
-6.41
-6.73
-6.37
-5.46
-4.26
-3.02
-1.87
-0.84
0.13
1.06
1.91
2.46
2.58
2.25
1.62
0.93
0.45
0.29
0.37
0.58
0.79
0.98
1.21
1.62
2.25
3.12
4.11
5.08
5.91
6.45
6.65
6.44
5.80
4.76
3.45
2.00
0.55
-0.87
-2.27
-3.68
-5.10
-6.49
-7.76
-8.88
-9.89
-10.85
-11.75
-12.54
-13.02
-13.02
-12.40
-11.14
-9.34
-7.13
-4.67
-2.10
0.43
2.76
4.71
6.18
7.16
7.71
7.96
8.04
8.05
8.00
7.90
7.76
7.61
7.48
7.37
7.24
7.05
6.82
6.57
6.39
6.31
6.29
6.22
5.97
5.47
4.75
3.96
3.27
2.79
2.54
2.45
2.35
2.10
1.56
0.72
-0.34
-1.49
-2.51
-3.22
-3.44
-3.03
-1.90
-0.04
2.42
5.24
8.11
10.69
12.75
14.16
14.90
15.01
14.49
13.33
11.57
9.30
6.74
4.14
1.74
-0.33
-2.03
-3.39
-4.45
-5.27
-5.88
-6.38
-6.84
-7.37
-8.02
-8.85
-9.90
-11.09
-12.33
-13.43
-14.14
-14.23
-13.58
-12.25
-10.47
-8.58
-6.84
-5.34
-3.94
-2.28
-0.13
2.55
5.52
8.30
10.41
11.58
11.80
11.35
10.68
10.08
9.69
9.43
9.08
8.45
7.49
6.27
5.00
3.89
3.08
2.59
2.30
2.00
1.50
0.75
-0.25
-1.38
-2.57
-3.79
-5.06
-6.37
-7.60
-8.56
-9.03
-8.90
-8.26
-7.38
-6.64
-6.37
-6.71
-7.60
-8.78
-9.93
-10.78
-11.13
-10.92
-10.15
-8.85
-7.12
-5.06
-2.84
-0.66
1.29
2.87
4.02
4.71
5.04
5.07
4.89
4.62
4.28
3.95
3.62
3.31
3.04
2.85
2.78
2.82
2.89
2.88
2.70
2.27
1.55
0.61
-0.43
-1.38
-2.09
-2.49
-2.67
-2.82
-3.19
-3.93
-5.06
-6.43
-7.86
-9.15
-10.12
-10.59
-10.37
-9.27
-7.23
-4.39
-1.01
2.50
5.79
8.65
10.95
12.73
14.05
15.06
15.88
16.61
17.22
17.64
17.72
17.33
16.43
15.08
13.46
11.71
9.96
8.27
6.73
5.44
4.49
3.98
3.90
4.10
4.34
4.32
3.83
2.72
1.06
-1.02
-3.37
-5.90
-8.64
-11.48
-14.21
-16.37
-17.41
-16.84
-14.49
-10.55
-5.56
-0.18
5.00
9.55
13.30
16.17
18.22
19.51
20.13
20.20
19.84
19.14
18.21
17.10
15.87
14.58
13.23
11.84
10.42
8.94
7.48
6.11
4.93
3.97
3.21
2.58
2.02
1.46
0.82
0.04
-0.95
-2.22
-3.80
-5.70
-7.92
-10.38
-12.88
-15.08
-16.51
-16.67
-15.24
-12.26
-8.12
-3.48
0.99
4.83
7.81
9.95
11.32
12.05
12.20
11.89
11.31
10.65
10.14
9.96
10.16
10.68
11.38
12.04
12.48
12.64
12.59
12.44
12.32
12.19
11.86
11.04
9.53
7.34
4.75
2.12
-0.20
-2.13
-3.84
-5.60
-7.66
-10.18
-13.09
-16.27
-19.44
-22.27
-24.30
-25.10
-24.29
-21.72
-17.59
-12.35
-6.61
-0.95
4.24
8.74
12.48
15.41
17.52
18.74
19.10
18.64
17.57
16.15
14.72
13.61
13.05
13.11
13.64
14.36
14.87
14.94
14.53
13.80
13.07
12.50
12.13
11.72
11.03
9.87
8.29
6.48
4.71
3.17
1.85
0.59
-0.87
-2.72
-5.10
-8.05
-11.52
-15.40
-19.48
-23.42
-26.76
-28.93
-29.46
-28.13
-25.10
-20.81
-15.93
-11.08
-6.66
-2.82
0.45
3.20
5.41
7.05
8.06
8.47
8.42
8.11
7.70
7.32
7.01
6.80
6.77
6.99
7.58
8.58
9.95
11.52
13.08
14.36
15.14
15.30
14.82
13.77
12.33
10.60
8.59
6.18
3.19
-0.55
-5.03
-9.95
-14.82
-18.97
-21.81
-22.89
-22.08
-19.58
-15.86
-11.51
-7.12
-3.14
0.22
2.88
4.94
6.49
7.61
8.34
8.69
8.72
8.51
8.21
7.98
7.90
8.03
8.33
8.79
9.40
10.18
11.08
11.98
12.68
12.90
12.44
11.27
9.54
7.50
5.42
3.43
1.53
-0.41
-2.55
-5.01
-7.86
-11.02
-14.33
-17.43
-19.84
-21.04
-20.60
-18.43
-14.77
-10.18
-5.37
-0.90
2.85
5.81
8.00
9.52
10.37
10.56
10.13
9.23
8.07
6.93
6.05
5.63
5.72
6.26
7.10
8.04
8.85
9.37
9.53
9.34
8.88
8.25
7.54
6.79
6.04
5.30
4.52
3.53
2.11
0.01
-2.85
-6.32
-9.98
-13.19
-15.29
-15.78
-14.44
-11.45
-7.26
-2.51
2.20
6.36
9.70
12.16
13.76
14.61
14.71
14.09
12.82
11.10
9.25
7.65
6.60
6.27
6.64
7.53
8.70
9.98
11.21
12.34
13.33
14.09
14.52
14.47
13.79
12.40
10.36
7.82
5.03
2.30
-0.16
-2.26
-4.09
-5.85
-7.83
-10.33
-13.50
-17.23
-21.09
-24.36
-26.26
-26.16
-23.93
-19.89
-14.80
-9.49
-4.63
-0.51
2.81
5.46
7.54
9.09
10.07
10.51
10.55
10.39
10.27
10.41
11.00
12.09
13.63
15.45
17.31
18.97
20.23
21.01
21.29
21.12
20.51
19.48
18.09
16.35
14.37
12.23
10.01
7.70
5.31
2.87
0.35
-2.21
-4.87
-7.68
-10.73
-14.08
-17.72
-21.50
-25.08
-27.98
-29.65
-29.66
-27.80
-24.22
-19.31
-13.64
-7.81
-2.36
2.40
6.28
9.23
11.28
12.51
13.02
12.99
12.63
12.17
11.79
11.70
11.95
12.56
13.45
14.48
15.53
16.45
17.18
17.67
17.91
17.93
17.71
17.25
16.51
15.47
14.12
12.52
10.77
8.88
6.89
4.78
2.53
0.12
-2.47
-5.26
-8.22
-11.33
-14.54
-17.74
-20.76
-23.30
-24.99
-25.50
-24.61
-22.23
-18.58
-14.09
-9.24
-4.60
-0.53
2.73
5.16
6.82
7.85
8.34
8.31
7.81
6.92
5.83
4.86
4.25
4.19
4.61
5.30
6.01
6.60
7.07
7.57
8.17
8.84
9.38
9.51
9.06
8.05
6.64
5.07
3.54
2.04
0.46
-1.41
-3.71
-6.58
-10.00
-13.82
-17.78
-21.47
-24.30
-25.75
-25.42
-23.26
-19.59
-14.96
-10.02
-5.27
-1.03
2.59
5.56
7.89
9.52
10.39
10.54
10.11
9.34
8.48
7.79
7.42
7.45
7.90
8.77
10.03
11.59
13.31
14.95
16.23
16.94
16.87
15.97
14.30
12.02
9.32
6.41
3.49
0.68
-1.93
-4.46
-7.02
-9.78
-12.89
-16.34
-19.94
-23.30
-25.94
-27.32
-27.06
-24.97
-21.17
-16.10
-10.42
-4.84
0.07
4.04
7.09
9.42
11.30
12.85
14.07
14.87
15.23
15.15
14.76
14.27
13.80
13.46
13.23
13.06
12.89
12.69
12.49
12.30
12.11
11.83
11.31
10.39
9.00
7.18
5.08
2.90
0.79
-1.15
-2.97
-4.76
-6.63
-8.72
-11.13
-13.96
-17.28
-21.00
-24.81
-28.17
-30.41
-30.97
-29.64
-26.55
-22.22
-17.31
-12.40
-7.82
-3.70
-0.01
3.28
6.13
8.46
10.24
11.50
12.36
13.01
13.55
14.06
14.49
14.79
14.87
14.70
14.29
13.74
13.09
12.30
11.32
10.02
8.30
6.19
3.85
1.48
-0.65
-2.36
-3.64
-4.68
-5.80
-7.39
-9.71
-12.81
-16.44
-20.10
-23.09
-24.78
-24.74
-22.87
-19.45
-15.02
-10.23
-5.63
-1.57
1.82
4.51
6.53
7.92
8.75
9.14
9.32
9.56
10.03
10.81
11.72
12.54
13.07
13.28
13.23
13.05
12.83
12.51
11.94
10.96
9.49
7.55
5.35
3.13
1.08
-0.67
-2.20
-3.65
-5.23
-7.12
-9.49
-12.40
-15.80
-19.44
-22.90
-25.60
-26.90
-26.37
-23.84
-19.60
-14.27
-8.60
-3.27
1.32
4.96
7.68
9.57
10.74
11.28
11.38
11.19
10.87
10.53
10.15
9.73
9.34
9.11
9.22
9.79
10.74
11.82
12.67
12.96
12.45
11.14
9.23
6.99
4.77
2.84
1.36
0.36
-0.29
-0.92
-1.95
-3.77
-6.58
-10.30
-14.42
-18.23
-20.91
-21.90
-20.98
-18.26
-14.14
-9.04
-3.29
2.79
8.93
14.79
19.99
24.22
27.33
29.39
30.65
31.44
32.11
32.97
34.21
35.98
38.33
41.24
44.66
48.53
52.88
57.75
63.17
69.07
75.26
81.25
86.23
89.14
88.88
84.62
76.20
64.27
50.19
35.48
21.37
8.42
-3.46
-14.58
-25.17
-35.11
-44.03
-51.69
-58.01
-63.20
-67.51
-71.00
-73.47
-74.61
-74.21
-72.31
-69.29
-65.76
-62.32
-59.48
-57.49
-56.33
-55.85
-55.70
-55.59
-55.24
-54.45
-53.16
-51.32
-48.94
-45.98
-42.41
-38.26
-33.62
-28.71
-23.94
-19.72
-16.41
-14.15
-12.78
-11.94
-11.15
-10.05
-8.46
-6.42
-4.11
-1.76
0.34
2.01
3.02
3.29
2.96
2.41
2.22
3.00
5.23
8.98
13.97
19.63
25.32
30.55
35.03
38.67
41.43
43.23
43.88
43.27
41.47
38.80
35.89
33.40
31.84
31.30
31.47
31.88
32.12
32.07
31.96
32.13
32.76
33.73
34.56
34.66
33.56
31.16
27.69
23.62
19.39
15.27
11.23
7.02
2.36
-2.94
-8.83
-15.01
-20.93
-25.94
-29.45
-31.07
-30.68
-28.52
-25.04
-20.79
-16.31
-11.93
-7.83
-4.09
-0.74
2.14
4.45
6.15
7.29
8.07
8.79
9.69
10.83
12.06
13.11
13.75
13.91
13.71
13.38
13.16
13.10
13.12
12.98
12.42
11.23
9.29
6.64
3.43
-0.08
-3.65
-7.15
-10.60
-14.23
-18.22
-22.65
-27.32
-31.73
-35.23
-37.22
-37.22
-35.05
-30.89
-25.15
-18.48
-11.66
-5.44
-0.45
2.93
4.66
4.98
4.33
3.24
2.21
1.62
1.69
2.42
3.61
4.99
6.21
7.05
7.45
7.50
7.34
7.14
6.91
6.61
6.15
5.40
4.30
2.75
0.70
-1.90
-5.00
-8.53
-12.36
-16.39
-20.48
-24.40
-27.86
-30.42
-31.65
-31.28
-29.33
-26.11
-22.14
-17.97
-13.93
-10.19
-6.73
-3.47
-0.36
2.53
5.06
7.05
8.39
9.07
9.14
8.71
7.94
6.93
5.81
4.68
3.64
2.80
2.24
1.96
1.89
1.90
1.76
1.28
0.37
-1.01
-2.75
-4.71
-6.78
-9.02
-11.53
-14.50
-17.98
-21.83
-25.72
-29.16
-31.63
-32.63
-31.80
-29.01
-24.34
-18.12
-10.90
-3.38
3.73
9.84
14.53
17.61
19.05
18.99
17.69
15.49
12.81
10.05
7.61
5.70
4.48
3.96
4.04
4.58
5.49
6.64
7.87
8.97
9.71
9.91
9.51
8.56
7.21
5.68
4.07
2.44
0.74
-1.08
-3.10
-5.37
-7.94
-10.80
-13.86
-16.77
-19.04
-20.05
-19.37
-16.97
-13.27
-9.02
-5.04
-1.90
0.19
1.48
2.35
3.22
4.32
5.68
7.22
8.79
10.33
11.81
13.24
14.63
15.85
16.81
17.35
17.48
17.24
16.82
16.32
15.75
15.00
13.86
12.21
10.02
7.46
4.70
1.95
-0.71
-3.26
-5.73
-8.22
-10.81
-13.61
-16.62
-19.72
-22.49
-24.37
-24.75
-23.22
-19.75
-14.72
-8.82
-2.81
2.71
7.38
11.06
13.79
15.65
16.73
17.21
17.23
17.02
16.76
16.60
16.57
16.61
16.62
16.47
16.07
15.36
14.33
12.94
11.21
9.13
6.78
4.23
1.57
-1.15
-3.89
-6.60
-9.23
-11.72
-14.05
-16.29
-18.52
-20.85
-23.15
-25.13
-26.24
-25.94
-23.89
-20.10
-14.98
-9.16
-3.39
1.74
5.79
8.63
10.29
10.93
10.78
10.11
9.17
8.11
7.05
6.09
5.33
4.83
4.55
4.39
4.14
3.65
2.83
1.78
0.64
-0.43
-1.41
-2.36
-3.35
-4.50
-5.78
-7.21
-8.82
-10.72
-13.06
-15.89
-19.04
-22.03
-24.16
-24.77
-23.38
-19.98
-14.98
-9.09
-3.02
2.62
7.50
11.49
14.54
16.62
17.71
17.83
17.11
15.74
13.96
12.01
10.07
8.27
6.74
5.53
4.69
4.11
3.68
3.26
2.71
2.01
1.24
0.49
-0.18
-0.82
-1.58
-2.67
-4.27
-6.47
-9.26
-12.49
-15.87
-19.01
-21.47
-22.80
-22.69
-21.02
-17.96
-13.87
-9.29
-4.72
-0.57
2.87
5.54
7.42
8.62
9.30
9.58
9.53
9.20
8.65
7.96
7.26
6.73
6.51
6.68
7.20
7.94
8.72
9.26
9.35
8.82
7.71
6.17
4.48
2.87
1.42
0.03
-1.59
-3.76
-6.70
-10.54
-15.16
-20.21
-25.13
-29.20
-31.65
-31.94
-29.84
-25.57
-19.68
-12.94
-6.12
0.16
5.42
9.41
12.05
13.41
13.71
13.27
12.45
11.57
10.84
10.34
10.10
10.06
10.18
10.45
10.91
11.63
12.66
13.88
15.02
15.71
15.58
14.46
12.37
9.57
6.36
3.04
-0.25
-3.48
-6.74
-10.18
-13.96
-18.20
-22.85
-27.62
-31.89
-34.89
-35.93
-34.63
-31.06
-25.69
-19.28
-12.58
-6.20
-0.54
4.19
7.93
10.63
12.37
13.26
13.45
13.16
12.60
11.95
11.35
10.88
10.61
10.56
10.71
11.01
11.46
11.98
12.51
12.94
13.13
12.91
12.15
10.75
8.73
6.18
3.26
0.09
-3.20
-6.63
-10.24
-14.13
-18.31
-22.69
-26.84
-30.21
-32.06
-31.79
-29.17
-24.41
-18.15
-11.29
-4.66
1.14
5.81
9.37
11.97
13.77
14.88
15.36
15.27
14.70
13.84
12.87
12.00
11.40
11.20
11.46
12.18
13.26
14.49
15.60
16.30
16.41
15.92
14.92
13.60
12.12
10.48
8.59
6.28
3.40
-0.19
-4.51
-9.52
-15.00
-20.56
-25.59
-29.34
-31.11
-30.45
-27.40
-22.42
-16.31
-9.94
-3.95
1.23
5.45
8.66
10.90
12.18
12.62
12.41
11.81
11.12
10.55
10.17
9.98
9.94
10.02
10.22
10.53
10.89
11.16
11.18
10.79
9.91
8.55
6.78
4.73
2.50
0.19
-2.19
-4.70
-7.44
-10.58
-14.23
-18.37
-22.80
-27.02
-30.41
-32.27
-32.08
-29.59
-24.97
-18.79
-11.85
-4.95
1.30
6.62
10.97
14.46
17.14
18.98
19.90
19.96
19.35
18.45
17.67
17.28
17.38
17.80
18.31
18.69
18.82
18.70
18.43
18.03
17.48
16.59
15.14
12.94
9.99
6.50
2.84
-0.63
-3.74
-6.55
-9.29
-12.21
-15.53
-19.27
-23.25
-27.15
-30.47
-32.58
-32.90
-31.02
-26.89
-20.89
-13.77
-6.37
0.55
6.49
11.22
14.64
16.71
17.51
17.20
16.05
14.44
12.79
11.39
10.46
10.04
10.08
10.50
11.12
11.82
12.42
12.79
12.90
12.71
12.17
11.25
9.91
8.15
6.12
4.01
1.96
0.01
-1.96
-4.28
-7.29
-11.27
-16.21
-21.73
-27.13
-31.51
-33.98
-33.93
-31.22
-26.20
-19.60
-12.28
-5.03
1.59
7.17
11.47
14.36
15.78
15.93
15.10
13.76
12.35
11.13
10.18
9.40
8.62
7.73
6.80
5.99
5.42
5.07
4.79
4.36
3.63
2.58
1.32
0.06
-1.08
-2.09
-3.02
-4.05
-5.32
-7.03
-9.34
-12.36
-16.09
-20.33
-24.57
-28.06
-30.03
-29.89
-27.41
-22.84
-16.77
-9.95
-3.12
3.20
8.71
13.31
16.98
19.78
21.72
22.90
23.42
23.37
22.88
22.05
20.99
19.81
18.60
17.43
16.31
15.17
13.86
12.21
10.05
7.32
4.12
0.64
-2.92
-6.36
-9.56
-12.48
-15.13
-17.58
-19.94
-22.35
-24.95
-27.77
-30.61
-32.90
-33.89
-32.80
-29.28
-23.52
-16.29
-8.59
-1.34
4.90
9.95
13.86
16.73
18.59
19.39
19.15
18.04
16.39
14.58
12.93
11.61
10.63
9.95
9.56
9.45
9.69
10.28
11.12
11.97
12.47
12.25
11.07
8.91
6.07
2.98
0.06
-2.47
-4.68
-6.91
-9.62
-13.15
-17.52
-22.34
-26.96
-30.58
-32.44
-32.03
-29.18
-24.09
-17.33
-9.71
-2.09
4.84
10.63
15.14
18.43
20.63
21.84
22.09
21.45
20.09
18.32
16.51
14.96
13.70
12.65
11.63
10.60
9.60
8.84
8.40
8.23
8.08
7.64
6.69
5.15
3.13
0.81
-1.57
-3.87
-6.03
-8.11
-10.28
-12.78
-15.82
-19.56
-23.90
-28.47
-32.54
-35.17
-35.50
-33.01
-27.72
-20.25
-11.62
-2.95
4.86
11.36
16.39
20.02
22.33
23.31
22.98
21.46
19.02
16.09
13.11
10.45
8.29
6.68
5.60
4.95
4.69
4.65
4.70
4.60
4.16
3.25
1.85
0.06
-2.00
-4.18
-6.41
-8.80
-11.47
-14.67
-18.60
-23.23
-28.20
-32.81
-36.07
-37.10
-35.30
-30.66
-23.79
-15.69
-7.43
0.12
6.48
11.55
15.43
18.28
20.24
21.40
21.82
21.57
20.80
19.70
18.52
17.50
16.80
16.50
16.59
16.92
17.29
17.42
17.03
15.86
13.78
10.73
6.85
2.45
-2.05
-6.24
-9.86
-12.89
-15.59
-18.33
-21.50
-25.21
-29.21
-32.87
-35.38
-35.95
-34.13
-29.84
-23.51
-15.89
-7.87
-0.25
6.37
11.71
15.77
18.72
20.71
21.85
22.14
21.66
20.55
19.07
17.59
16.46
15.89
15.94
16.57
17.69
19.23
21.04
22.87
24.38
25.10
24.59
22.61
19.17
14.65
9.58
4.55
-0.05
-4.07
-7.63
-11.05
-14.66
-18.67
-23.05
-27.45
-31.18
-33.41
-33.38
-30.68
-25.43
-18.36
-10.51
-2.97
3.50
8.58
12.35
14.98
16.65
17.37
17.13
15.97
14.03
11.64
9.13
6.80
4.85
3.38
2.41
1.92
1.82
1.91
1.96
1.74
1.12
0.07
-1.34
-3.07
-5.10
-7.46
-10.25
-13.54
-17.35
-21.66
-26.27
-30.81
-34.68
-37.16
-37.51
-35.26
-30.42
-23.49
-15.36
-7.03
0.63
7.13
12.30
16.25
19.14
21.10
22.22
22.50
22.01
20.91
19.42
17.79
16.24
14.89
13.76
12.81
11.89
10.93
9.85
8.62
7.20
5.51
3.50
1.12
-1.62
-4.57
-7.59
-10.50
-13.30
-16.11
-19.10
-22.52
-26.50
-30.86
-35.13
-38.51
-40.12
-39.28
-35.71
-29.70
-22.06
-13.84
-6.00
0.74
6.10
10.07
12.78
14.41
15.13
15.20
14.85
14.34
13.83
13.42
13.16
13.10
13.33
13.91
14.81
15.82
16.60
16.75
16.00
14.27
11.65
8.37
4.64
0.74
-3.10
-6.63
-9.70
-12.32
-14.80
-17.62
-21.25
-25.93
-31.40
-36.86
-41.13
-43.06
-41.89
-37.56
-30.62
-22.12
-13.18
-4.68
2.84
9.20
14.41
18.51
21.50
23.39
24.27
24.33
23.86
23.15
22.39
21.70
21.17
20.84
20.72
20.75
20.76
20.48
19.63
17.97
15.43
12.21
8.66
5.20
2.20
-0.16
-1.99
-3.67
-5.71
-8.57
-12.49
-17.31
-22.49
-27.13
-30.28
-31.07
-29.05
-24.35
-17.60
-9.90
-2.39
4.04
8.96
12.39
14.70
16.33
17.63
18.80
19.84
20.73
21.39
21.78
21.86
21.63
21.01
20.00
18.65
17.07
15.43
13.90
12.59
11.46
10.35
9.07
7.46
5.52
3.28
0.86
-1.78
-4.78
-8.38
-12.81
-18.12
-24.07
-30.11
-35.47
-39.25
-40.69
-39.31
-35.09
-28.52
-20.44
-11.85
-3.67
3.46
9.28
13.76
17.04
19.22
20.41
20.75
20.48
19.92
19.42
19.15
19.10
19.15
19.09
18.82
18.36
17.88
17.46
17.10
16.65
15.88
14.55
12.55
9.89
6.70
3.22
-0.32
-3.78
-7.18
-10.64
-14.41
-18.64
-23.33
-28.22
-32.85
-36.54
-38.62
-38.50
-35.89
-30.90
-24.06
-16.17
-8.21
-1.04
4.75
8.91
11.53
12.82
13.07
12.57
11.61
10.43
9.29
8.34
7.59
6.94
6.15
5.04
3.60
2.05
0.79
0.17
0.33
1.06
1.87
2.17
1.52
-0.24
-3.00
-6.46
-10.27
-14.11
-17.69
-20.77
-23.21
-25.00
-26.25
-27.08
-27.48
-27.13
-25.48
-21.93
-16.13
-8.25
1.01
10.67
19.76
27.58
33.85
38.58
41.92
44.04
45.09
45.27
44.79
43.89
42.76
41.49
40.13
38.71
37.27
35.93
34.80
33.90
33.14
32.29
31.19
29.63
27.58
25.12
22.36
19.34
16.00
12.09
7.35
1.52
-5.47
-13.43
-21.83
-29.86
-36.52
-40.75
-41.81
-39.40
-33.83
-25.95
-16.99
-8.21
-0.58
5.28
9.17
11.19
11.54
10.57
8.59
6.02
3.27
0.69
-1.49
-3.23
-4.68
-6.01
-7.31
-8.55
-9.55
-10.09
-10.02
-9.31
-8.13
-6.81
-5.77
-5.41
-6.07
-7.89
-10.87
-14.84
-19.50
-24.39
-28.89
-32.25
-33.61
-32.36
-28.21
-21.49
-13.04
-3.99
4.60
11.94
17.66
21.61
23.73
23.89
22.00
18.16
12.89
7.02
1.60
-2.48
-4.85
-5.62
-5.28
-4.43
-3.53
-2.73
-2.05
-1.44
-0.99
-0.88
-1.30
-2.38
-4.15
-6.58
-9.68
-13.53
-18.16
-23.47
-29.08
-34.26
-38.06
-39.59
-38.21
-33.88
-27.07
-18.64
-9.63
-0.94
6.79
13.17
18.07
21.51
23.66
24.78
25.20
25.23
25.11
24.91
24.61
24.17
23.58
22.91
22.26
21.68
21.16
20.58
19.77
18.57
16.87
14.60
11.81
8.54
4.93
1.12
-2.75
-6.68
-10.77
-15.20
-20.16
-25.62
-31.18
-36.06
-39.24
-39.75
-37.01
-31.15
-22.94
-13.60
-4.38
3.81
10.55
15.86
19.90
22.86
24.72
25.50
25.27
24.35
23.14
22.06
21.38
21.11
21.11
21.14
21.04
20.70
20.15
19.42
18.47
17.24
15.59
13.39
10.55
7.10
3.22
-0.84
-4.79
-8.39
-11.60
-14.55
-17.48
-20.67
-24.32
-28.49
-33.08
-37.74
-41.94
-44.93
-45.92
-44.27
-39.73
-32.60
-23.62
-13.84
-4.23
4.52
12.05
18.24
23.06
26.49
28.47
29.06
28.48
27.13
25.49
23.98
22.79
21.93
21.20
20.37
19.33
18.08
16.80
15.69
14.79
13.95
12.83
11.08
8.51
5.20
1.48
-2.27
-5.79
-8.99
-12.01
-15.10
-18.52
-22.44
-26.86
-31.55
-35.94
-39.24
-40.56
-39.16
-34.73
-27.58
-18.58
-8.86
0.44
8.53
15.04
19.94
23.39
25.57
26.62
26.69
26.02
24.92
23.77
22.90
22.58
22.84
23.62
24.72
25.78
26.50
26.55
25.75
24.08
21.65
18.62
15.18
11.48
7.62
3.75
0.00
-3.51
-6.70
-9.58
-12.25
-14.85
-17.51
-20.30
-23.29
-26.50
-29.99
-33.78
-37.69
-41.34
-44.06
-45.08
-43.74
-39.73
-33.27
-24.99
-15.87
-6.88
1.24
8.04
13.33
17.12
19.50
20.62
20.71
20.09
19.12
18.13
17.36
16.95
16.87
17.07
17.43
17.81
18.06
18.08
17.79
17.17
16.20
14.91
13.33
11.50
9.45
7.21
4.77
2.09
-0.87
-4.12
-7.61
-11.19
-14.65
-17.79
-20.45
-22.67
-24.64
-26.64
-28.97
-31.79
-35.06
-38.42
-41.23
-42.65
-41.89
-38.40
-32.17
-23.72
-13.98
-4.12
4.84
12.25
17.87
21.81
24.39
25.91
26.62
26.66
26.19
25.37
24.47
23.68
23.19
23.03
23.13
23.34
23.53
23.59
23.47
23.13
22.52
21.55
20.16
18.36
16.22
13.90
11.57
9.29
6.99
4.48
1.56
-1.83
-5.61
-9.52
-13.34
-16.92
-20.29
-23.60
-27.01
-30.64
-34.54
-38.60
-42.49
-45.72
-47.50
-47.00
-43.63
-37.30
-28.56
-18.53
-8.51
0.37
7.47
12.69
16.21
18.38
19.45
19.54
18.74
17.22
15.29
13.35
11.85
11.04
10.95
11.45
12.25
13.10
13.85
14.41
14.76
14.84
14.59
13.89
12.69
10.93
8.69
6.05
3.12
0.07
-2.95
-5.82
-8.45
-10.85
-13.12
-15.38
-17.81
-20.56
-23.70
-27.19
-30.82
-34.15
-36.54
-37.28
-35.75
-31.69
-25.34
-17.38
-8.84
-0.74
6.14
11.48
15.30
17.78
19.14
19.50
19.00
17.81
16.29
14.87
13.94
13.69
14.04
14.62
15.06
15.10
14.73
14.16
13.66
13.42
13.36
13.21
12.56
11.09
8.69
5.51
1.91
-1.72
-5.03
-7.88
-10.25
-12.35
-14.49
-17.04
-20.35
-24.57
-29.49
-34.50
-38.64
-40.87
-40.36
-36.88
-30.83
-23.11
-14.78
-6.77
0.36
6.43
11.42
15.36
18.18
19.77
20.12
19.45
18.26
17.09
16.36
16.23
16.49
16.77
16.73
16.20
15.26
14.12
12.94
11.79
10.58
9.11
7.22
4.82
1.88
-1.48
-5.03
-8.52
-11.63
-14.16
-16.11
-17.75
-19.54
-21.99
-25.40
-29.63
-34.03
-37.53
-39.03
-37.72
-33.35
-26.33
-17.59
-8.25
0.62
8.24
14.18
18.29
20.62
21.40
20.94
19.63
17.93
16.24
14.84
13.90
13.39
13.17
13.04
12.88
12.64
12.41
12.31
12.39
12.58
12.58
12.05
10.66
8.34
5.22
1.70
-1.81
-5.02
-7.82
-10.41
-13.11
-16.31
-20.21
-24.70
-29.30
-33.21
-35.53
-35.52
-32.88
-27.81
-20.98
-13.27
-5.52
1.63
7.77
12.64
16.09
17.99
18.38
17.41
15.45
13.05
10.79
9.17
8.43
8.59
9.41
10.53
11.54
12.11
11.97
11.01
9.49
8.05
7.63
9.02
12.42
16.96
20.91
22.37
20.02
13.75
4.66
-5.53
-15.20
-23.34
-29.54
-33.64
-35.43
-34.62
-31.05
-25.08
-17.67
-10.07
-3.41
1.66
5.14
7.51
9.30
10.90
12.39
13.63
14.42
14.71
14.58
14.26
13.94
13.62
13.20
12.46
11.22
9.46
7.32
4.94
2.47
-0.06
-2.78
-5.86
-9.60
-14.23
-19.95
-26.88
-34.98
-44.15
-54.24
-65.06
-76.39
-87.91
-99.13
-109.33
-117.70
-123.51
-126.42
-126.59
-124.81
-122.22
-120.25
-120.19
-123.00
-129.18
-138.68
-150.94
-165.06
-180.12
-195.52
-211.14
-227.18
-243.65
-259.68
-273.05
-280.49
-278.71
-265.62
-241.38
-208.46
-170.86
-132.63
-96.43
-63.06
-31.55
-0.01
33.68
71.32
113.98
161.49
211.53
259.16
297.28
318.48
317.72
294.62
254.08
204.71
155.78
114.15
82.77
60.98
46.33
36.31
29.30
24.30
20.23
15.42
7.88
-3.96
-20.44
-40.16
-60.35
-77.76
-89.83
-95.69
-96.53
-95.06
-94.35
-96.62
-102.49
-111.22
-121.48
-132.20
-142.93
-153.40
-163.02
-170.42
-173.75
-171.52
-163.37
-150.22
-133.88
-116.40
-99.31
-83.30
-68.45
-54.37
-40.39
-25.67
-9.13
10.48
34.32
63.01
95.99
131.13
164.92
193.33
213.11
222.93
223.88
218.88
211.37
203.92
197.41
191.30
184.49
176.30
166.92
157.21
147.99
139.45
131.04
121.76
110.78
97.73
82.89
67.06
51.39
37.23
26.12
19.61
19.00
24.94
37.13
54.26
74.38
95.32
115.20
132.60
146.65
156.75
162.52
163.78
160.69
153.84
144.28
133.39
122.62
113.25
106.11
101.51
99.18
98.47
98.50
98.37
97.38
95.06
91.18
85.67
78.62
70.16
60.49
49.82
38.25
25.80
12.38
-2.02
-17.03
-31.69
-44.42
-53.32
-56.66
-53.51
-44.08
-29.77
-12.71
4.80
20.84
34.14
44.18
50.91
54.59
55.56
54.30
51.41
47.64
43.80
40.57
38.38
37.31
37.10
37.28
37.30
36.77
35.55
33.79
31.76
29.60
27.24
24.31
20.29
14.83
7.91
-0.04
-8.32
-16.24
-23.39
-29.71
-35.52
-41.32
-47.67
-55.06
-63.70
-73.39
-83.33
-92.11
-97.89
-98.97
-94.24
-83.65
-68.28
-49.98
-30.86
-12.70
3.33
16.73
27.39
35.36
40.67
43.40
43.76
42.23
39.52
36.47
33.81
31.99
31.16
31.12
31.49
31.90
32.05
31.85
31.33
30.55
29.48
27.92
25.58
22.16
17.53
11.77
5.26
-1.56
-8.19
-14.32
-19.89
-25.01
-30.02
-35.32
-41.31
-48.24
-56.12
-64.51
-72.45
-78.52
-81.13
-78.95
-71.27
-58.41
-41.62
-22.81
-4.03
12.99
27.17
38.07
45.70
50.33
52.25
51.81
49.47
45.83
41.66
37.73
34.65
32.71
31.82
31.57
31.45
31.00
30.07
28.71
27.10
25.36
23.41
20.98
17.70
13.39
8.06
2.04
-4.19
-10.15
-15.56
-20.38
-24.87
-29.51
-34.83
-41.35
-49.30
-58.45
-68.02
-76.70
-82.92
-85.13
-82.27
-74.11
-61.35
-45.45
-28.30
-11.65
3.13
15.24
24.37
30.50
33.81
34.54
33.18
30.42
27.09
24.02
21.76
20.52
20.10
20.08
20.02
19.63
18.81
17.62
16.10
14.21
11.74
8.46
4.19
-1.02
-6.90
-13.02
-18.95
-24.40
-29.37
-34.14
-39.20
-45.01
-51.82
-59.46
-67.20
-73.80
-77.69
-77.41
-72.05
-61.67
-47.28
-30.65
-13.80
1.55
14.30
24.12
31.17
35.88
38.64
39.77
39.46
37.99
35.75
33.19
30.68
28.46
26.53
24.75
22.97
21.02
18.89
16.58
14.06
11.21
7.87
3.94
-0.60
-5.61
-10.90
-16.22
-21.48
-26.72
-32.20
-38.31
-45.39
-53.55
-62.30
-70.44
-76.22
-77.73
-73.59
-63.47
-48.36
-30.25
-11.58
5.50
19.62
30.29
37.67
42.21
44.35
44.43
42.79
39.78
35.97
31.92
28.20
25.14
22.83
21.18
19.98
18.99
18.00
16.83
15.24
13.03
10.04
6.21
1.65
-3.42
-8.77
-14.27
-19.94
-25.97
-32.65
-40.27
-48.98
-58.53
-68.15
-76.43
-81.60
-81.89
-76.25
-64.69
-48.49
-29.84
-11.19
5.49
19.08
29.31
36.43
40.80
42.69
42.32
40.08
36.65
32.91
29.69
27.51
26.42
26.19
26.46
26.98
27.60
28.21
28.58
28.33
27.00
24.31
20.23
15.02
9.11
2.95
-3.17
-9.17
-15.20
-21.59
-28.71
-36.86
-45.95
-55.26
-63.41
-68.57
-68.99
-63.62
-52.65
-37.42
-20.08
-2.88
12.43
24.89
34.24
40.66
44.39
45.71
44.90
42.47
39.07
35.47
32.27
29.80
28.07
26.88
25.97
25.19
24.45
23.63
22.55
20.88
18.28
14.50
9.56
3.72
-2.57
-8.85
-14.89
-20.69
-26.58
-33.10
-40.79
-49.84
-59.90
-69.85
-77.97
-82.31
-81.28
-74.23
-61.74
-45.51
-27.87
-11.04
3.42
14.83
23.22
28.99
32.46
33.79
33.08
30.57
26.82
22.74
19.26
17.04
16.31
16.72
17.60
18.23
18.03
16.69
14.24
10.89
6.93
2.60
-1.99
-6.83
-12.00
-17.62
-23.80
-30.65
-38.27
-46.64
-55.40
-63.69
-70.10
-72.95
-70.83
-63.07
-50.21
-33.84
-16.17
0.63
14.96
26.05
33.86
38.74
41.10
41.31
39.65
36.55
32.59
28.50
25.01
22.60
21.42
21.29
21.75
22.28
22.37
21.61
19.77
16.73
12.61
7.58
1.94
-4.04
-10.21
-16.49
-22.98
-29.84
-37.37
-45.89
-55.54
-66.00
-76.22
-84.49
-88.73
-87.20
-79.16
-65.23
-47.28
-27.75
-8.96
7.52
21.03
31.55
39.32
44.52
47.22
47.52
45.79
42.67
39.02
35.64
33.14
31.76
31.33
31.44
31.49
30.95
29.47
26.98
23.63
19.72
15.45
10.90
5.99
0.56
-5.60
-12.67
-20.81
-30.03
-40.02
-49.93
-58.35
-63.52
-63.86
-58.52
-47.75
-32.84
-15.72
1.59
17.43
30.76
41.07
48.24
52.36
53.69
52.66
49.92
46.22
42.27
38.67
35.71
33.44
31.70
30.25
28.86
27.42
25.84
24.03
21.73
18.63
14.42
8.96
2.42
-4.77
-12.05
-18.96
-25.30
-31.23
-37.22
-43.82
-51.48
-60.28
-69.71
-78.57
-85.10
-87.35
-83.82
-73.96
-58.46
-39.11
-18.25
1.88
19.66
34.31
45.70
54.04
59.58
62.52
63.07
61.55
58.53
54.72
50.83
47.40
44.68
42.63
41.03
39.59
38.04
36.19
33.87
30.96
27.30
22.80
17.52
11.60
5.32
-1.01
-7.23
-13.44
-19.98
-27.38
-36.07
-46.02
-56.48
-65.96
-72.46
-74.14
-69.88
-59.73
-44.97
-27.63
-9.99
6.12
19.50
29.70
36.69
40.70
42.07
41.18
38.55
34.78
30.54
26.47
23.05
20.55
18.96
18.08
17.56
16.98
15.96
14.17
11.38
7.55
2.77
-2.71
-8.60
-14.58
-20.42
-26.06
-31.66
-37.54
-44.14
-51.84
-60.65
-69.98
-78.58
-84.62
-86.23
-82.06
-71.85
-56.54
-38.05
-18.63
-0.27
15.70
28.68
38.55
45.46
49.63
51.40
51.18
49.60
47.34
44.98
42.91
41.23
39.85
38.60
37.30
35.89
34.27
32.32
29.81
26.49
22.17
16.85
10.78
4.34
-2.08
-8.24
-14.17
-20.16
-26.70
-34.32
-43.35
-53.57
-64.15
-73.55
-79.88
-81.33
-76.86
-66.45
-51.19
-33.01
-14.05
3.75
19.05
31.15
39.90
45.45
48.11
48.36
46.75
43.98
40.81
37.91
35.74
34.40
33.67
33.18
32.63
31.87
31.01
30.12
29.15
27.76
25.45
21.83
16.74
10.47
3.53
-3.42
-9.94
-15.89
-21.49
-27.25
-33.74
-41.45
-50.48
-60.39
-70.03
-77.78
-81.83
-80.70
-73.81
-61.62
-45.59
-27.71
-10.04
5.81
18.87
28.82
35.84
40.34
42.79
43.63
43.30
42.18
40.63
38.99
37.52
36.37
35.56
34.97
34.33
33.40
31.94
29.80
26.91
23.21
18.71
13.45
7.56
1.29
-5.07
-11.24
-17.06
-22.64
-28.37
-34.73
-42.15
-50.60
-59.40
-67.17
-72.15
-72.66
-67.67
-57.26
-42.62
-25.69
-8.61
6.82
19.46
28.86
35.11
38.60
39.83
39.37
37.72
35.42
32.91
30.52
28.56
27.22
26.60
26.72
27.36
28.15
28.65
28.38
27.05
24.56
21.07
16.80
12.09
7.16
2.14
-2.99
-8.37
-14.23
-20.86
-28.47
-36.97
-45.82
-53.89
-59.68
-61.55
-58.35
-49.86
-36.91
-21.27
-5.09
9.74
22.00
31.19
37.42
40.96
42.14
41.17
38.34
34.12
29.19
24.34
20.27
17.39
15.66
14.65
13.79
12.50
10.49
7.78
4.56
1.08
-2.57
-6.56
-11.19
-16.77
-23.49
-31.33
-40.13
-49.52
-58.91
-67.34
-73.50
-76.00
-73.67
-66.11
-53.96
-38.72
-22.37
-6.77
6.78
17.70
25.90
31.50
34.52
34.98
33.05
29.23
24.50
19.97
16.61
14.80
14.28
14.21
13.61
11.77
8.52
4.27
-0.37
-4.79
-8.75
-12.38
-16.09
-20.33
-25.45
-31.71
-39.08
-47.24
-55.40
-62.35
-66.51
-66.45
-61.30
-51.15
-37.11
-20.97
-4.72
10.05
22.33
31.74
38.28
42.11
43.41
42.40
39.50
35.39
30.91
26.92
23.96
22.12
21.08
20.22
18.98
17.03
14.33
11.14
7.72
4.24
0.69
-3.15
-7.58
-12.81
-19.00
-26.14
-34.10
-42.52
-50.65
-57.39
-61.37
-61.31
-56.45
-46.90
-33.73
-18.66
-3.53
10.11
21.34
29.85
35.63
38.78
39.42
37.67
33.92
28.88
23.50
18.77
15.45
13.81
13.58
14.09
14.56
14.34
13.17
11.14
8.61
5.93
3.24
0.46
-2.70
-6.56
-11.36
-17.26
-24.32
-32.48
-41.41
-50.31
-57.80
-62.15
-61.80
-55.89
-44.74
-29.84
-13.34
2.57
16.35
27.23
35.19
40.47
43.40
44.19
43.08
40.44
36.85
33.06
29.75
27.35
25.96
25.33
25.03
24.57
23.63
22.03
19.82
17.14
14.11
10.79
7.08
2.85
-2.09
-7.80
-14.30
-21.58
-29.67
-38.53
-47.88
-56.97
-64.47
-68.74
-68.25
-62.19
-50.83
-35.54
-18.37
-1.51
13.37
25.28
33.97
39.65
42.76
43.75
43.08
41.20
38.55
35.66
33.01
31.01
29.91
29.70
30.16
30.83
31.24
30.89
29.47
26.89
23.26
18.83
13.87
8.64
3.35
-1.88
-7.05
-12.22
-17.68
-23.78
-30.84
-38.84
-47.16
-54.47
-58.98
-58.97
-53.48
-42.69
-27.99
-11.52
4.47
18.31
29.17
37.03
42.36
45.63
47.16
47.01
45.24
42.09
38.05
33.82
30.07
27.22
25.28
23.94
22.66
21.00
18.66
15.60
12.00
8.00
3.73
-0.77
-5.53
-10.54
-15.81
-21.38
-27.35
-33.85
-40.97
-48.44
-55.57
-61.16
-63.77
-62.16
-55.81
-45.19
-31.67
-17.12
-3.38
8.28
17.28
23.64
27.62
29.42
29.10
26.72
22.58
17.34
11.98
7.47
4.46
3.04
2.80
3.03
3.05
2.49
1.34
-0.14
-1.70
-3.24
-4.89
-6.89
-9.56
-13.09
-17.63
-23.28
-30.02
-37.62
-45.46
-52.43
-57.04
-57.84
-53.96
-45.47
-33.38
-19.37
-5.18
7.81
18.80
27.49
33.80
37.74
39.34
38.75
36.43
33.10
29.63
26.74
24.87
24.02
23.81
23.70
23.11
21.72
19.45
16.50
13.24
9.96
6.80
3.63
0.14
-4.06
-9.33
-15.88
-23.63
-32.18
-40.62
-47.65
-51.81
-51.80
-47.09
-38.05
-26.01
-12.80
-0.18
10.62
19.11
25.39
29.74
32.41
33.45
32.85
30.74
27.55
23.96
20.68
18.30
17.01
16.59
16.59
16.45
15.73
14.18
11.85
8.91
5.60
2.08
-1.62
-5.55
-9.88
-14.76
-20.36
-26.77
-33.94
-41.49
-48.65
-54.18
-56.69
-55.01
-48.66
-38.12
-24.74
-10.38
3.21
14.78
23.77
30.17
34.25
36.31
36.55
35.19
32.57
29.23
25.91
23.28
21.80
21.45
21.89
22.51
22.71
22.11
20.67
18.55
16.03
13.35
10.55
7.58
4.27
0.41
-4.14
-9.56
-15.92
-23.14
-30.80
-38.05
-43.67
-46.31
-44.97
-39.37
-30.11
-18.52
-6.29
5.07
14.56
21.78
26.78
29.78
30.98
30.55
28.70
25.79
22.39
19.13
16.55
14.91
14.18
13.95
13.69
12.86
11.11
8.29
4.52
0.07
-4.78
-9.73
-14.60
-19.40
-24.29
-29.56
-35.53
-42.36
-49.90
-57.50
-64.00
-68.01
-68.19
-63.77
-54.86
-42.36
-27.88
-13.15
0.35
11.68
20.43
26.59
30.34
31.94
31.67
29.86
26.99
23.58
20.20
17.30
15.17
13.84
13.09
12.56
11.83
10.59
8.75
6.44
3.89
1.30
-1.27
-4.03
-7.28
-11.38
-16.55
-22.84
-30.04
-37.64
-44.85
-50.59
-53.65
-52.99
-48.06
-39.10
-27.14
-13.71
-0.45
11.30
20.78
27.78
32.47
35.12
36.02
35.44
33.62
30.89
27.69
24.49
21.71
19.65
18.40
17.81
17.52
17.08
16.06
14.20
11.47
8.05
4.23
0.28
-3.67
-7.67
-11.86
-16.49
-21.74
-27.73
-34.40
-41.44
-48.11
-53.30
-55.69
-54.13
-48.06
-37.82
-24.62
-10.22
3.62
15.61
25.11
32.08
36.81
39.57
40.61
40.12
38.39
35.88
33.14
30.68
28.84
27.73
27.24
27.14
27.14
26.95
26.30
25.02
23.00
20.24
16.83
12.83
8.33
3.40
-1.90
-7.46
-13.25
-19.33
-25.88
-33.00
-40.51
-47.64
-53.15
-55.56
-53.64
-46.94
-36.01
-22.26
-7.49
6.61
18.83
28.57
35.70
40.37
42.80
43.26
42.09
39.75
36.76
33.65
30.88
28.71
27.22
26.37
25.98
25.84
25.70
25.28
24.29
22.51
19.78
16.10
11.61
6.52
1.07
-4.57
-10.31
-16.17
-22.27
-28.79
-35.90
-43.51
-51.17
-57.91
-62.43
-63.42
-59.99
-52.12
-40.68
-27.26
-13.63
-1.26
8.99
16.87
22.52
26.22
28.14
28.43
27.29
25.10
22.40
19.81
17.84
16.73
16.46
16.78
17.35
17.82
17.90
17.36
16.07
13.95
10.99
7.30
3.06
-1.46
-6.03
-10.49
-14.88
-19.39
-24.33
-30.04
-36.61
-43.77
-50.70
-56.16
-58.71
-57.17
-51.05
-40.77
-27.64
-13.50
-0.18
11.01
19.43
25.16
28.61
30.31
30.63
29.82
28.11
25.83
23.46
21.46
20.20
19.71
19.79
20.09
20.25
20.03
19.29
17.93
15.83
12.88
9.03
4.41
-0.62
-5.61
-10.16
-14.11
-17.57
-20.97
-24.87
-29.76
-35.80
-42.60
-49.16
-53.99
-55.53
-52.65
-45.12
-33.69
-19.91
-5.65
7.49
18.44
26.78
32.53
35.95
37.38
37.18
35.78
33.66
31.34
29.22
27.56
26.43
25.75
25.35
25.12
24.96
24.77
24.41
23.59
22.01
19.40
15.74
11.24
6.34
1.53
-2.91
-6.93
-10.83
-15.09
-20.17
-26.37
-33.51
-40.94
-47.50
-51.82
-52.60
-49.10
-41.33
-30.19
-17.18
-3.98
7.96
17.71
24.90
29.64
32.18
32.84
31.87
29.58
26.36
22.74
19.27
16.40
14.41
13.25
12.62
12.09
11.26
9.90
7.98
5.58
2.88
-0.04
-3.21
-6.85
-11.24
-16.65
-23.25
-31.02
-39.60
-48.30
-56.10
-61.72
-63.96
-61.97
-55.61
-45.53
-33.02
-19.63
-6.81
4.44
13.62
20.60
25.43
28.18
28.88
27.70
25.03
21.51
17.97
15.19
13.67
13.52
14.40
15.75
16.94
17.50
17.24
16.25
14.75
12.94
10.86
8.37
5.18
1.00
-4.35
-10.82
-18.06
-25.40
-31.83
-36.16
-37.21
-34.07
-26.44
-14.79
-0.24
15.70
31.51
46.05
58.71
69.30
77.93
84.76
89.96
93.75
96.53
98.89
101.52
105.00
109.62
115.30
121.69
128.30
134.76
140.80
146.31
151.30
155.98
160.73
166.11
172.56
179.90
186.92
191.09
189.18
178.12
156.19
123.72
83.01
37.63
-8.93
-54.09
-96.64
-136.60
-174.74
-212.31
-251.03
-292.89
-339.47
-390.70
-443.68
-492.47
-529.47
-548.02
-545.06
-522.60
-486.98
-446.40
-407.83
-374.94
-347.72
-323.64
-299.62
-273.36
-243.81
-210.67
-173.84
-133.27
-89.44
-43.98
0.15
39.42
71.07
94.41
111.06
123.62
133.63
139.95
138.98
126.53
100.60
63.14
19.90
-21.57
-54.59
-75.20
-82.57
-78.20
-64.77
-45.27
-22.44
1.44
24.63
45.96
64.62
79.75
90.11
94.33
91.78
83.49
72.47
62.75
58.05
60.52
70.24
85.75
104.71
124.37
141.57
152.66
153.81
142.06
116.66
79.89
37.10
-4.56
-38.35
-59.97
-68.82
-67.66
-61.07
-53.25
-46.49
-40.47
-33.20
-22.49
-7.40
11.48
32.41
53.27
72.03
86.60
94.88
95.23
87.50
73.87
58.67
46.84
41.81
43.91
50.31
56.39
57.70
51.65
38.22
19.72
0.05
-16.28
-25.35
-25.08
-16.11
-1.72
13.20
24.05
28.11
25.26
17.36
7.04
-3.19
-11.14
-14.58
-10.97
2.11
26.06
60.23
101.82
146.43
189.48
227.24
257.22
277.69
287.14
284.29
269.40
245.82
220.36
201.59
196.50
207.48
231.45
262.03
293.02
321.15
346.22
368.76
387.19
396.76
391.52
367.98
328.13
279.59
232.73
196.35
174.42
165.51
164.64
166.02
165.26
160.09
149.85
134.46
113.59
86.66
53.32
14.21
-28.85
-73.30
-116.79
-158.25
-198.28
-238.69
-281.18
-325.71
-369.54
-407.46
-433.33
-442.37
-433.12
-408.17
-373.14
-334.62
-297.90
-265.70
-238.24
-214.39
-192.88
-173.14
-155.18
-139.19
-125.06
-112.45
-101.10
-91.09
-82.91
-76.86
-72.66
-69.24
-65.02
-58.54
-49.12
-37.16
-24.00
-11.30
-0.53
7.48
12.58
15.09
15.56
14.41
11.97
8.38
3.77
-1.63
-7.49
-13.40
-18.92
-23.75
-27.71
-30.70
-32.71
-33.74
-33.86
-33.24
-32.18
-31.07
-30.29
-30.12
-30.62
-31.74
-33.39
-35.57
-38.37
-41.87
-45.90
-49.90
-52.91
-53.72
-51.28
-45.13
-35.51
-23.40
-10.09
3.12
15.29
25.95
34.95
42.26
47.76
51.30
52.72
52.12
49.87
46.65
43.17
40.05
37.60
35.80
34.39
32.96
31.15
28.71
25.51
21.58
17.07
12.19
7.14
2.15
-2.73
-7.55
-12.51
-17.92
-24.05
-30.97
-38.33
-45.26
-50.47
-52.62
-50.71
-44.46
-34.46
-21.94
-8.38
4.89
16.95
27.32
35.78
42.19
46.44
48.53
48.65
47.27
44.99
42.52
40.34
38.72
37.68
37.04
36.48
35.66
34.28
32.13
29.19
25.60
21.60
17.44
13.23
8.92
4.41
-0.48
-5.88
-11.85
-18.42
-25.53
-32.93
-39.99
-45.74
-48.98
-48.62
-44.10
-35.65
-24.26
-11.41
1.44
13.14
22.98
30.73
36.34
39.94
41.71
41.96
41.09
39.58
37.84
36.15
34.59
33.14
31.76
30.45
29.24
28.18
27.25
26.28
25.00
23.12
20.37
16.64
11.98
6.63
0.92
-4.82
-10.39
-15.77
-21.16
-26.90
-33.37
-40.73
-48.79
-56.79
-63.47
-67.29
-66.90
-61.60
-51.68
-38.38
-23.45
-8.70
4.52
15.48
23.97
30.12
34.08
36.03
36.19
34.96
32.90
30.64
28.73
27.46
26.83
26.57
26.36
25.94
25.19
24.18
22.98
21.64
19.98
17.72
14.57
10.37
5.27
-0.35
-5.94
-11.07
-15.50
-19.36
-23.02
-27.05
-31.90
-37.78
-44.51
-51.42
-57.49
-61.45
-62.19
-59.06
-52.13
-42.17
-30.38
-18.10
-6.35
4.19
13.19
20.49
25.95
29.50
31.13
31.15
30.12
28.68
27.42
26.62
26.25
26.04
25.72
25.09
24.14
23.01
21.83
20.59
19.12
17.12
14.33
10.65
6.18
1.18
-3.98
-9.01
-13.78
-18.30
-22.76
-27.44
-32.59
-38.40
-44.78
-51.26
-56.90
-60.47
-60.76
-56.96
-49.01
-37.68
-24.32
-10.53
2.32
13.28
21.91
28.13
32.06
33.95
34.09
32.81
30.55
27.78
24.97
22.44
20.35
18.68
17.28
16.04
14.87
13.73
12.56
11.21
9.53
7.32
4.50
1.20
-2.36
-5.92
-9.31
-12.58
-15.95
-19.74
-24.37
-30.09
-36.94
-44.49
-51.77
-57.45
-60.11
-58.67
-52.85
-43.28
-31.28
-18.53
-6.40
4.18
12.88
19.69
24.71
27.97
29.46
29.34
27.97
25.91
23.81
22.16
21.19
20.83
20.83
20.89
20.82
20.54
20.07
19.43
18.50
16.98
14.54
10.94
6.17
0.57
-5.33
-10.98
-16.04
-20.48
-24.59
-28.84
-33.74
-39.57
-46.24
-53.19
-59.36
-63.43
-64.11
-60.64
-53.01
-42.01
-29.10
-15.82
-3.49
7.12
15.71
22.31
27.04
30.01
31.32
31.18
29.95
28.17
26.40
25.13
24.59
24.70
25.20
25.71
25.88
25.54
24.67
23.32
21.52
19.14
16.03
12.06
7.30
2.00
-3.40
-8.58
-13.39
-17.97
-22.69
-27.97
-34.14
-41.22
-48.86
-56.29
-62.41
-65.88
-65.61
-60.92
-51.97
-39.69
-25.59
-11.35
1.65
12.58
21.17
27.53
31.98
34.77
36.16
36.41
35.85
34.88
33.85
33.04
32.55
32.35
32.34
32.42
32.54
32.61
32.54
32.14
31.14
29.30
26.44
22.60
17.98
12.88
7.60
2.32
-2.94
-8.33
-14.09
-20.41
-27.29
-34.38
-40.87
-45.61
-47.34
-45.09
-38.68
-28.77
-16.78
-4.43
6.78
15.99
22.91
27.73
30.74
32.11
31.91
30.23
27.32
23.73
20.10
17.06
14.97
13.90
13.55
13.46
13.13
12.15
10.35
7.80
4.69
1.30
-2.19
-5.74
-9.44
-13.44
-17.95
-23.17
-29.21
-36.07
-43.46
-50.73
-56.80
-60.35
-60.15
-55.52
-46.60
-34.43
-20.65
-7.04
4.98
14.57
21.50
25.97
28.33
28.92
28.04
25.97
23.10
19.90
16.86
14.39
12.68
11.73
11.29
11.01
10.51
9.52
7.93
5.78
3.17
0.25
-2.84
-6.04
-9.34
-12.89
-16.88
-21.57
-27.14
-33.59
-40.56
-47.26
-52.56
-55.21
-54.19
-49.12
-40.32
-28.84
-16.12
-3.65
7.40
16.40
23.22
28.01
31.04
32.54
32.66
31.56
29.56
27.15
24.86
23.17
22.29
22.02
21.93
21.49
20.28
18.23
15.49
12.37
9.11
5.83
2.44
-1.23
-5.32
-9.91
-14.98
-20.51
-26.52
-32.96
-39.51
-45.45
-49.73
-51.16
-48.85
-42.53
-32.79
-20.85
-8.18
3.86
14.42
23.08
29.78
34.56
37.50
38.66
38.21
36.51
34.05
31.42
29.15
27.52
26.60
26.21
26.04
25.73
24.96
23.46
21.08
17.78
13.67
8.99
4.08
-0.70
-5.11
-9.04
-12.68
-16.35
-20.50
-25.51
-31.47
-38.00
-44.20
-48.75
-50.24
-47.72
-40.91
-30.50
-17.88
-4.78
7.28
17.30
24.91
30.21
33.53
35.21
35.51
34.61
32.78
30.34
27.75
25.43
23.73
22.72
22.30
22.15
21.95
21.41
20.35
18.75
16.63
14.01
10.93
7.38
3.40
-0.97
-5.68
-10.73
-16.20
-22.30
-29.16
-36.78
-44.72
-52.01
-57.34
-59.31
-56.92
-49.97
-39.21
-26.09
-12.33
0.59
11.73
20.73
27.64
32.66
35.93
37.62
37.92
37.16
35.73
34.00
32.25
30.58
29.05
27.64
26.38
25.30
24.34
23.34
22.00
20.04
17.25
13.68
9.52
5.05
0.52
-3.93
-8.31
-12.77
-17.52
-22.84
-28.93
-35.84
-43.14
-49.94
-54.92
-56.67
-54.22
-47.47
-37.22
-24.95
-12.37
-0.83
8.87
16.53
22.29
26.40
29.01
30.22
30.15
28.99
27.09
24.91
22.88
21.31
20.32
19.81
19.52
19.17
18.47
17.26
15.48
13.11
10.19
6.73
2.83
-1.45
-5.94
-10.52
-15.18
-20.03
-25.29
-31.10
-37.33
-43.43
-48.46
-51.26
-50.77
-46.46
-38.49
-27.78
-15.68
-3.66
7.11
15.93
22.61
27.27
30.13
31.41
31.32
30.14
28.29
26.31
24.64
23.54
22.98
22.75
22.61
22.39
22.09
21.76
21.37
20.65
19.21
16.68
12.92
8.08
2.64
-2.91
-8.18
-13.05
-17.71
-22.48
-27.70
-33.54
-39.93
-46.43
-52.20
-56.11
-57.03
-54.14
-47.25
-36.99
-24.61
-11.62
0.61
11.20
19.77
26.30
30.98
33.99
35.55
35.94
35.58
34.91
34.34
34.04
34.03
34.12
34.10
33.80
33.14
32.13
30.83
29.25
27.36
25.06
22.20
18.66
14.46
9.77
4.91
0.18
-4.25
-8.49
-12.83
-17.70
-23.37
-29.78
-36.47
-42.51
-46.79
-48.21
-46.09
-40.30
-31.44
-20.63
-9.17
1.67
11.05
18.53
24.04
27.75
29.89
30.66
30.31
29.08
27.26
25.18
23.15
21.42
20.16
19.38
19.00
18.87
18.83
18.69
18.26
17.29
15.55
12.87
9.20
4.67
-0.43
-5.74
-10.95
-15.89
-20.60
-25.29
-30.27
-35.77
-41.75
-47.74
-52.86
-55.96
-55.99
-52.36
-45.22
-35.41
-24.24
-13.09
-3.04
5.28
11.72
16.40
19.55
21.38
22.07
21.82
20.91
19.68
18.48
17.60
17.15
17.09
17.22
17.29
17.08
16.47
15.39
13.80
11.68
9.00
5.78
2.14
-1.71
-5.54
-9.16
-12.53
-15.81
-19.33
-23.43
-28.31
-33.74
-39.03
-43.12
-44.84
-43.36
-38.46
-30.61
-20.88
-10.50
-0.57
8.20
15.47
21.18
25.32
27.91
28.98
28.71
27.48
25.80
24.20
23.05
22.45
22.27
22.22
22.04
21.62
21.02
20.34
19.61
18.72
17.39
15.31
12.28
8.34
3.76
-1.08
-5.84
-10.28
-14.42
-18.46
-22.66
-27.34
-32.70
-38.71
-45.06
-51.07
-55.77
-58.09
-57.13
-52.47
-44.32
-33.52
-21.34
-9.13
1.98
11.26
18.37
23.34
26.39
27.82
27.94
27.11
25.66
24.01
22.56
21.60
21.24
21.38
21.74
22.01
21.97
21.58
20.90
20.02
18.92
17.46
15.48
12.90
9.78
6.32
2.77
-0.68
-3.97
-7.26
-10.80
-14.89
-19.82
-25.66
-32.17
-38.77
-44.48
-48.11
-48.63
-45.46
-38.70
-29.15
-18.08
-6.88
3.27
11.61
17.86
22.09
24.58
25.67
25.67
24.83
23.38
21.58
19.67
17.94
16.64
15.88
15.67
15.80
15.98
15.91
15.37
14.24
12.51
10.18
7.28
3.91
0.18
-3.71
-7.53
-11.12
-14.55
-18.04
-22.00
-26.74
-32.24
-37.95
-42.91
-45.86
-45.77
-42.14
-35.21
-25.96
-15.75
-5.90
2.59
9.24
13.96
16.93
18.39
18.60
17.83
16.39
14.71
13.21
12.22
11.92
12.25
12.93
13.59
13.90
13.65
12.82
11.47
9.71
7.65
5.25
2.50
-0.61
-4.00
-7.57
-11.18
-14.78
-18.47
-22.46
-26.98
-32.04
-37.28
-41.90
-44.82
-45.03
-41.94
-35.64
-26.87
-16.79
-6.61
2.77
10.82
17.35
22.31
25.74
27.70
28.37
28.00
26.95
25.56
24.06
22.58
21.19
19.96
18.98
18.33
17.94
17.59
16.96
15.70
13.65
10.82
7.42
3.74
-0.01
-3.68
-7.29
-10.98
-14.98
-19.53
-24.84
-30.92
-37.46
-43.83
-49.06
-52.04
-51.81
-47.92
-40.53
-30.46
-18.99
-7.49
2.85
11.30
17.65
22.02
24.76
26.19
26.57
26.08
24.93
23.45
22.02
20.94
20.39
20.33
20.57
20.91
21.19
21.35
21.31
20.94
20.04
18.36
15.74
12.22
8.10
3.75
-0.44
-4.29
-7.84
-11.39
-15.35
-20.07
-25.68
-31.87
-37.87
-42.56
-44.77
-43.60
-38.83
-30.96
-21.08
-10.59
-0.69
7.70
14.24
18.95
22.10
24.07
25.21
25.87
26.28
26.62
26.86
26.88
26.48
25.46
23.72
21.35
18.54
15.56
12.66
9.94
7.44
5.09
2.83
0.61
-1.59
-3.76
-5.96
-8.27
-10.84
-13.92
-17.80
-22.66
-28.46
-34.75
-40.68
-45.12
-46.93
-45.34
-40.24
-32.20
-22.33
-11.96
-2.25
6.04
12.58
17.41
20.73
22.70
23.52
23.35
22.47
21.23
20.03
19.18
18.78
18.75
18.82
18.77
18.37
17.51
16.12
14.12
11.46
8.12
4.22
-0.02
-4.30
-8.43
-12.33
-16.15
-20.19
-24.75
-29.96
-35.66
-41.28
-45.93
-48.56
-48.23
-44.46
-37.34
-27.64
-16.54
-5.34
4.85
13.34
19.88
24.52
27.46
28.96
29.27
28.66
27.47
26.05
24.71
23.67
22.96
22.48
22.09
21.66
21.09
20.33
19.30
17.89
15.93
13.26
9.83
5.76
1.29
-3.25
-7.61
-11.68
-15.57
-19.58
-24.06
-29.33
-35.44
-42.10
-48.54
-53.61
-56.08
-54.96
-49.85
-41.18
-30.04
-17.91
-6.21
4.05
12.34
18.56
22.86
25.48
26.71
26.81
26.15
25.10
24.06
23.39
23.27
23.72
24.57
25.58
26.45
26.96
26.98
26.44
25.27
23.40
20.74
17.30
13.21
8.80
4.43
0.34
-3.44
-7.14
-11.15
-15.84
-21.42
-27.76
-34.39
-40.52
-45.20
-47.44
-46.48
-42.02
-34.31
-24.25
-13.09
-2.22
7.24
14.64
19.79
22.92
24.41
24.67
24.04
22.87
21.45
20.08
19.06
18.53
18.53
18.92
19.44
19.82
19.83
19.37
18.38
16.82
14.64
11.79
8.22
4.02
-0.61
-5.41
-10.09
-14.52
-18.76
-23.07
-27.75
-32.95
-38.40
-43.40
-46.86
-47.67
-45.05
-38.94
-30.03
-19.56
-8.91
0.80
9.00
15.50
20.44
23.96
26.15
27.08
26.90
25.91
24.54
23.18
22.09
21.34
20.91
20.75
20.82
21.05
21.28
21.24
20.62
19.15
16.76
13.58
9.87
5.92
1.87
-2.21
-6.41
-10.86
-15.68
-20.95
-26.68
-32.73
-38.62
-43.63
-46.77
-47.08
-43.96
-37.39
-28.03
-17.07
-5.91
4.27
12.69
19.06
23.42
26.03
27.21
27.25
26.48
25.21
23.75
22.37
21.21
20.34
19.74
19.37
19.15
18.96
18.66
18.02
16.79
14.85
12.19
8.97
5.51
2.07
-1.19
-4.29
-7.45
-10.91
-14.93
-19.67
-25.18
-31.30
-37.57
-43.24
-47.28
-48.62
-46.49
-40.77
-32.04
-21.48
-10.50
-0.31
8.32
15.09
20.04
23.37
25.29
26.00
25.75
24.86
23.71
22.62
21.76
21.18
20.73
20.22
19.58
18.81
18.01
17.25
16.51
15.59
14.21
12.17
9.34
5.83
1.81
-2.49
-6.89
-11.34
-15.88
-20.65
-25.84
-31.56
-37.66
-43.61
-48.40
-50.87
-49.98
-45.30
-37.21
-26.82
-15.63
-5.00
4.13
11.42
16.98
21.06
23.91
25.64
26.36
26.26
25.67
25.00
24.59
24.59
24.91
25.30
25.48
25.30
24.75
23.93
22.92
21.70
20.14
18.06
15.34
12.02
8.30
4.45
0.76
-2.67
-5.93
-9.39
-13.48
-18.58
-24.72
-31.53
-38.09
-43.23
-45.77
-44.85
-40.32
-32.64
-22.85
-12.20
-1.82
7.43
15.09
20.96
25.06
27.51
28.52
28.42
27.61
26.54
25.52
24.71
24.12
23.63
23.13
22.54
21.76
20.73
19.27
17.24
14.50
11.07
7.08
2.80
-1.51
-5.69
-9.69
-13.63
-17.72
-22.20
-27.22
-32.79
-38.69
-44.37
-49.05
-51.77
-51.66
-48.21
-41.46
-32.12
-21.33
-10.44
-0.58
7.48
13.47
17.44
19.66
20.45
20.16
19.13
17.73
16.31
15.16
14.42
14.09
14.06
14.19
14.34
14.42
14.24
13.62
12.34
10.23
7.28
3.64
-0.43
-4.63
-8.73
-12.71
-16.65
-20.74
-25.19
-30.07
-35.24
-40.23
-44.27
-46.36
-45.62
-41.57
-34.36
-24.83
-14.23
-3.86
5.22
12.46
17.77
21.40
23.67
24.83
25.02
24.39
23.09
21.41
19.73
18.42
17.72
17.67
18.06
18.56
18.81
18.53
17.61
16.06
13.99
11.50
8.68
5.55
2.12
-1.64
-5.77
-10.32
-15.38
-21.01
-27.24
-33.80
-40.12
-45.23
-48.03
-47.55
-43.40
-35.90
-26.04
-15.12
-4.47
5.00
12.76
18.66
22.78
25.26
26.27
26.12
25.19
23.91
22.67
21.71
21.09
20.70
20.37
19.94
19.39
18.77
18.11
17.36
16.31
14.66
12.13
8.67
4.44
-0.19
-4.77
-8.99
-12.73
-16.08
-19.28
-22.66
-26.46
-30.78
-35.47
-40.05
-43.70
-45.43
-44.36
-40.04
-32.58
-22.76
-11.70
-0.60
9.55
18.06
24.64
29.24
32.01
33.23
33.30
32.69
31.88
31.25
30.96
30.93
30.88
30.49
29.52
27.88
25.73
23.30
20.81
18.39
15.95
13.31
10.30
6.90
3.24
-0.42
-3.82
-6.83
-9.54
-12.20
-15.17
-18.83
-23.38
-28.80
-34.68
-40.22
-44.32
-45.90
-44.15
-38.93
-30.80
-20.96
-10.79
-1.53
6.08
11.79
15.71
18.09
19.15
19.03
17.89
16.01
13.76
11.55
9.76
8.58
8.00
7.85
7.87
7.80
7.40
6.51
5.04
3.01
0.53
-2.28
-5.32
-8.54
-11.94
-15.57
-19.49
-23.79
-28.48
-33.60
-39.01
-44.33
-48.88
-51.71
-51.84
-48.71
-42.34
-33.42
-23.19
-12.91
-3.55
4.35
10.70
15.59
19.12
21.36
22.40
22.43
21.77
20.79
19.80
18.98
18.41
18.05
17.88
17.81
17.72
17.46
16.88
15.82
14.23
12.12
9.53
6.53
3.26
-0.19
-3.70
-7.32
-11.21
-15.62
-20.72
-26.45
-32.37
-37.57
-40.91
-41.31
-38.17
-31.56
-22.30
-11.73
-1.27
7.88
15.08
20.21
23.49
25.30
25.97
25.76
24.93
23.79
22.63
21.72
21.23
21.12
21.29
21.55
21.72
21.68
21.32
20.54
19.25
17.34
14.78
11.58
7.85
3.76
-0.53
-4.86
-9.23
-13.76
-18.69
-24.17
-30.12
-36.03
-41.01
-43.93
-43.76
-39.99
-32.82
-23.15
-12.32
-1.72
7.61
15.15
20.83
24.92
27.74
29.52
30.38
30.38
29.60
28.19
26.37
24.42
22.63
21.18
20.17
19.55
19.11
18.55
17.52
15.79
13.23
9.88
5.92
1.59
-2.89
-7.37
-11.80
-16.25
-20.84
-25.71
-30.92
-36.30
-41.38
-45.42
-47.47
-46.71
-42.72
-35.61
-26.06
-15.18
-4.18
5.85
14.17
20.46
24.69
27.08
27.92
27.52
26.21
24.34
22.25
20.28
18.68
17.57
16.88
16.45
16.01
15.33
14.24
12.60
10.32
7.39
3.92
0.06
-3.90
-7.74
-11.34
-14.75
-18.20
-21.95
-26.26
-31.18
-36.57
-41.85
-46.22
-48.62
-48.06
-44.02
-36.60
-26.64
-15.52
-4.70
4.72
12.18
17.69
21.53
24.04
25.42
25.81
25.36
24.31
23.01
21.78
20.80
20.06
19.41
18.68
17.78
16.71
15.54
14.30
12.98
11.48
9.74
7.76
5.61
3.42
1.28
-0.82
-2.99
-5.42
-8.40
-12.15
-16.76
-22.02
-27.31
-31.64
-33.84
-32.89
-28.33
-20.49
-10.39
0.51
10.82
19.57
26.34
31.17
34.33
36.10
36.65
36.16
34.82
32.94
30.87
28.92
27.26
25.88
24.73
23.75
22.95
22.39
22.08
21.93
21.67
21.01
19.68
17.55
14.65
11.14
7.19
2.91
-1.67
-6.68
-12.27
-18.62
-25.70
-33.22
-40.50
-46.49
-50.08
-50.29
-46.70
-39.58
-29.86
-18.84
-7.88
2.02
10.23
16.55
21.02
23.79
25.02
24.90
23.66
21.64
19.22
16.78
14.59
12.81
11.49
10.66
10.28
10.29
10.49
10.55
10.08
8.67
6.13
2.52
-1.85
-6.53
-11.09
-15.27
-19.03
-22.57
-26.16
-30.15
-34.74
-39.86
-45.09
-49.61
-52.34
-52.27
-48.70
-41.61
-31.69
-20.21
-8.61
1.81
10.27
16.50
20.65
23.14
24.42
24.86
24.74
24.25
23.56
22.80
22.09
21.51
21.12
20.89
20.77
20.58
20.14
19.23
17.68
15.38
12.37
8.81
4.94
0.99
-2.84
-6.52
-10.07
-13.55
-17.10
-20.88
-25.02
-29.48
-33.90
-37.54
-39.42
-38.58
-34.48
-27.37
-18.14
-8.17
1.25
9.27
15.56
20.26
23.60
25.72
26.61
26.26
24.82
22.65
20.31
18.33
17.04
16.51
16.56
16.82
16.94
16.57
15.52
13.65
10.95
7.58
3.76
-0.24
-4.17
-7.89
-11.39
-14.84
-18.44
-22.42
-26.86
-31.68
-36.51
-40.68
-43.33
-43.60
-40.93
-35.25
-27.09
-17.52
-7.82
0.91
7.96
13.13
16.58
18.58
19.39
19.14
17.97
16.11
13.99
12.10
10.88
10.55
11.02
11.96
12.99
13.81
14.27
14.32
13.89
12.85
11.05
8.37
4.82
0.59
-4.09
-9.02
-14.08
-19.28
-24.68
-30.23
-35.60
-40.08
-42.71
-42.51
-38.87
-31.82
-22.12
-11.09
-0.21
9.33
16.83
22.14
25.42
26.97
27.12
26.16
24.39
22.19
19.92
17.87
16.19
14.84
13.72
12.73
11.82
11.00
10.27
9.52
8.54
7.09
5.06
2.49
-0.34
-3.17
-5.80
-8.21
-10.69
-13.55
-17.08
-21.36
-26.27
-31.42
-36.22
-39.86
-41.46
-40.26
-35.85
-28.40
-18.75
-8.10
2.22
11.16
18.17
23.17
26.35
28.06
28.62
28.26
27.25
25.85
24.27
22.66
21.07
19.53
18.06
16.72
15.61
14.82
14.33
14.00
13.56
12.69
11.14
8.81
5.75
2.18
-1.61
-5.37
-8.99
-12.51
-16.17
-20.26
-24.94
-30.10
-35.30
-39.71
-42.36
-42.38
-39.32
-33.35
-25.25
-16.22
-7.55
-0.16
5.44
9.24
11.54
12.75
13.19
13.11
12.65
11.97
11.24
10.58
10.10
9.81
9.62
9.36
8.82
7.86
6.39
4.48
2.23
-0.23
-2.84
-5.63
-8.67
-11.97
-15.43
-18.88
-22.20
-25.39
-28.58
-31.91
-35.40
-38.75
-41.28
-42.16
-40.63
-36.32
-29.37
-20.44
-10.48
-0.49
8.72
16.61
22.96
27.72
30.94
32.68
33.07
32.25
30.43
27.97
25.26
22.71
20.68
19.30
18.55
18.19
17.90
17.37
16.37
14.74
12.39
9.30
5.49
1.07
-3.76
-8.74
-13.62
-18.30
-22.84
-27.44
-32.30
-37.41
-42.43
-46.64
-49.04
-48.68
-44.95
-37.94
-28.37
-17.50
-6.70
2.92
10.74
16.64
20.84
23.67
25.39
26.18
26.11
25.32
24.01
22.43
20.83
19.41
18.30
17.54
17.10
16.92
16.86
16.70
16.21
15.13
13.30
10.66
7.32
3.50
-0.60
-4.82
-9.11
-13.49
-18.06
-22.97
-28.30
-33.98
-39.62
-44.50
-47.64
-48.04
-45.10
-38.83
-29.94
-19.61
-9.19
0.25
8.10
14.19
18.62
21.61
23.34
23.95
23.69
22.89
21.91
21.10
20.59
20.33
20.12
19.70
18.97
17.98
16.90
15.80
14.65
13.22
11.24
8.50
5.03
1.05
-3.07
-6.98
-10.48
-13.64
-16.76
-20.26
-24.53
-29.72
-35.59
-41.40
-46.09
-48.49
-47.64
-43.16
-35.35
-25.15
-13.91
-2.90
6.89
14.93
21.05
25.38
28.07
29.33
29.40
28.65
27.50
26.38
25.57
25.16
25.07
25.13
25.22
25.32
25.44
25.57
25.59
25.23
24.21
22.32
19.49
15.83
11.59
7.05
2.44
-2.10
-6.55
-10.99
-15.66
-20.81
-26.64
-33.10
-39.77
-45.81
-50.05
-51.43
-49.24
-43.46
-34.79
-24.44
-13.77
-3.92
4.36
10.79
15.39
18.39
19.99
20.40
19.83
18.55
16.86
15.09
13.57
12.44
11.76
11.38
11.13
10.79
10.18
9.22
7.84
6.06
3.88
1.37
-1.38
-4.20
-7.00
-9.79
-12.75
-16.24
-20.57
-25.87
-31.82
-37.69
-42.37
-44.65
-43.63
-39.04
-31.26
-21.31
-10.49
-0.05
9.14
16.63
22.40
26.64
29.52
31.13
31.52
30.79
29.26
27.35
25.50
24.03
23.01
22.32
21.68
20.83
19.58
17.83
15.57
12.81
9.63
6.13
2.45
-1.26
-4.94
-8.63
-12.40
-16.43
-20.91
-25.98
-31.74
-38.09
-44.54
-50.20
-53.89
-54.45
-51.12
-43.95
-33.76
-21.93
-10.00
0.82
9.81
16.73
21.63
24.70
26.17
26.29
25.45
24.12
22.75
21.68
21.09
20.93
21.09
21.35
21.58
21.66
21.52
21.09
20.25
18.84
16.76
13.97
10.55
6.69
2.59
-1.60
-5.81
-10.12
-14.74
-19.90
-25.77
-32.23
-38.84
-44.74
-48.80
-49.92
-47.31
-40.92
-31.43
-20.07
-8.31
2.63
11.94
19.31
24.73
28.40
30.49
31.27
31.08
30.31
29.43
28.79
28.51
28.54
28.60
28.46
27.93
27.04
25.86
24.52
23.03
21.24
18.97
16.01
12.28
7.89
3.08
-1.82
-6.51
-10.85
-14.87
-18.75
-22.81
-27.35
-32.53
-38.19
-43.78
-48.38
-50.87
-50.25
-46.02
-38.36
-28.10
-16.52
-4.98
5.45
14.12
20.75
25.42
28.29
29.67
29.91
29.46
28.77
28.22
28.07
28.39
29.13
30.03
30.84
31.28
31.12
30.24
28.67
26.52
23.93
21.04
17.81
14.19
10.14
5.71
1.11
-3.38
-7.54
-11.28
-14.70
-18.15
-21.99
-26.51
-31.82
-37.70
-43.53
-48.38
-51.14
-50.86
-47.04
-39.85
-30.10
-19.00
-7.79
2.57
11.52
18.80
24.36
28.17
30.27
30.80
30.07
28.60
26.99
25.75
25.16
25.25
25.75
26.30
26.49
26.09
25.12
23.74
22.24
20.81
19.51
18.16
16.42
13.97
10.67
6.61
2.14
-2.26
-6.21
-9.59
-12.58
-15.56
-19.00
-23.21
-28.23
-33.80
-39.35
-44.11
-47.22
-47.85
-45.43
-39.83
-31.44
-21.14
-10.09
0.64
10.21
18.18
24.40
28.94
31.93
33.54
34.01
33.65
32.84
31.97
31.35
31.10
31.13
31.22
31.18
30.88
30.34
29.63
28.79
27.75
26.28
24.13
21.15
17.36
12.95
8.26
3.62
-0.73
-4.77
-8.63
-12.59
-16.99
-22.07
-27.90
-34.21
-40.41
-45.60
-48.76
-49.01
-45.87
-39.49
-30.58
-20.30
-9.92
-0.47
7.39
13.41
17.60
20.11
21.15
20.90
19.70
17.95
16.13
14.62
13.62
13.11
12.90
12.75
12.51
12.10
11.53
10.76
9.69
8.17
6.03
3.22
-0.23
-4.16
-8.36
-12.64
-16.88
-21.07
-25.32
-29.81
-34.72
-40.12
-45.76
-51.01
-54.90
-56.40
-54.69
-49.56
-41.43
-31.28
-20.37
-9.87
-0.63
6.95
12.79
17.07
19.99
21.79
22.64
22.73
22.25
21.47
20.65
20.03
19.75
19.81
20.10
20.45
20.71
20.75
20.48
19.73
18.25
15.83
12.33
7.85
2.77
-2.40
-7.17
-11.31
-14.92
-18.41
-22.31
-27.03
-32.58
-38.50
-43.86
-47.48
-48.28
-45.65
-39.65
-31.05
-21.04
-10.88
-1.57
6.40
12.89
18.05
21.99
24.79
26.48
27.19
27.20
26.96
26.88
27.25
28.06
29.07
29.95
30.41
30.32
29.75
28.81
27.62
26.18
24.39
22.04
18.97
15.17
10.79
6.12
1.52
-2.73
-6.52
-9.91
-13.13
-16.52
-20.40
-25.01
-30.42
-36.44
-42.47
-47.59
-50.66
-50.70
-47.19
-40.31
-30.93
-20.29
-9.66
0.05
8.38
15.30
20.94
25.37
28.51
30.28
30.70
30.08
28.94
27.86
27.31
27.38
27.77
28.05
27.81
26.91
25.48
23.83
22.24
20.82
19.38
17.59
15.15
11.89
7.86
3.34
-1.38
-6.01
-10.36
-14.38
-18.11
-21.71
-25.37
-29.32
-33.72
-38.52
-43.36
-47.53
-50.11
-50.21
-47.35
-41.59
-33.56
-24.26
-14.73
-5.81
1.94
8.23
12.98
16.18
17.88
18.29
17.76
16.74
15.69
14.99
14.83
15.30
16.28
17.53
18.75
19.65
20.03
19.82
19.11
17.96
16.38
14.23
11.33
7.58
3.09
-1.80
-6.65
-11.12
-15.04
-18.53
-21.91
-25.53
-29.61
-34.19
-38.96
-43.30
-46.35
-47.23
-45.20
-40.01
-31.98
-21.96
-11.05
-0.42
9.06
16.91
22.96
27.30
30.01
31.21
31.02
29.69
27.65
25.51
23.86
23.08
23.16
23.75
24.30
24.34
23.66
22.33
20.63
18.79
16.89
14.86
12.48
9.58
6.07
2.06
-2.21
-6.39
-10.23
-13.59
-16.48
-19.10
-21.75
-24.73
-28.27
-32.41
-37.05
-41.79
-45.99
-48.73
-49.14
-46.60
-40.98
-32.76
-22.85
-12.40
-2.46
6.22
13.29
18.72
22.64
25.30
26.89
27.61
27.65
27.27
26.78
26.49
26.65
27.29
28.23
29.15
29.77
29.93
29.67
29.14
28.38
27.28
25.61
23.14
19.79
15.74
11.34
7.03
3.07
-0.43
-3.57
-6.60
-9.81
-13.48
-17.91
-23.25
-29.44
-36.00
-42.06
-46.46
-48.13
-46.38
-41.26
-33.48
-24.17
-14.52
-5.48
2.44
9.10
14.46
18.55
21.33
22.79
23.08
22.47
21.35
20.16
19.22
18.67
18.44
18.36
18.23
17.95
17.48
16.84
16.07
15.02
13.53
11.36
8.38
4.65
0.41
-4.01
-8.35
-12.47
-16.47
-20.59
-25.09
-30.19
-35.88
-41.86
-47.52
-51.91
-54.01
-53.01
-48.54
-40.94
-31.14
-20.39
-9.98
-0.83
6.58
12.22
16.29
19.13
20.96
21.94
22.20
21.81
20.96
19.84
18.72
17.82
17.35
17.32
17.63
18.04
18.22
17.86
16.72
14.70
11.81
8.21
4.10
-0.22
-4.49
-8.54
-12.29
-15.91
-19.71
-24.09
-29.32
-35.26
-41.28
-46.35
-49.26
-48.96
-45.02
-37.69
-27.89
-16.93
-6.16
3.42
11.24
17.19
21.44
24.20
25.66
25.97
25.29
23.96
22.46
21.30
20.91
21.40
22.49
23.72
24.58
24.74
24.22
23.26
22.12
20.89
19.46
17.50
14.78
11.18
6.89
2.25
-2.35
-6.67
-10.70
-14.57
-18.51
-22.74
-27.47
-32.80
-38.68
-44.76
-50.35
-54.40
-55.76
-53.55
-47.49
-38.16
-26.81
-14.93
-3.86
5.65
13.46
19.75
24.72
28.43
30.78
31.76
31.60
30.81
30.09
29.93
30.53
31.71
33.06
34.14
34.67
34.60
34.08
33.27
32.29
31.06
29.36
26.89
23.38
18.77
13.29
7.40
1.71
-3.30
-7.38
-10.60
-13.32
-15.99
-19.02
-22.64
-26.85
-31.35
-35.62
-38.95
-40.57
-39.89
-36.67
-31.08
-23.70
-15.22
-6.35
2.43
10.81
18.62
25.70
31.86
36.87
40.49
42.49
42.80
41.53
39.00
35.74
32.32
29.27
26.90
25.27
24.22
23.50
22.85
21.97
20.66
18.70
15.98
12.47
8.34
3.86
-0.66
-4.96
-9.00
-12.97
-17.23
-22.13
-27.78
-33.88
-39.64
-43.97
-45.73
-44.12
-38.99
-30.93
-21.06
-10.84
-1.52
6.07
11.69
15.60
18.28
20.18
21.57
22.44
22.71
22.27
21.17
19.52
17.47
15.15
12.76
10.56
8.93
8.25
8.71
10.15
12.09
13.72
14.29
13.31
10.67
6.65
1.75
-3.52
-8.83
-14.02
-19.14
-24.23
-29.13
-33.29
-35.84
-35.66
-31.76
-23.66
-11.58
3.45
19.88
36.03
50.53
62.55
71.97
79.09
84.52
88.88
92.73
96.50
100.52
105.06
110.22
116.05
122.54
129.67
137.45
145.81
154.51
163.01
170.48
175.92
178.32
176.92
171.45
162.12
149.62
134.93
119.11
103.02
87.10
71.34
55.38
38.90
22.01
5.52
-8.85
-18.86
-22.28
-17.70
-5.41
12.26
31.16
46.46
54.12
52.22
41.27
23.55
1.69
-22.34
-47.22
-71.54
-92.78
-107.32
-111.55
-103.72
-85.07
-59.44
-31.60
-5.07
18.66
39.57
57.44
70.65
76.52
72.93
60.18
41.49
21.93
6.03
-4.12
-9.55
-13.33
-18.73
-27.60
-39.86
-54.09
-68.60
-82.30
-94.92
-106.66
-117.78
-128.08
-136.91
-143.29
-146.24
-145.14
-140.02
-131.66
-121.46
-111.11
-102.10
-95.33
-90.97
-88.51
-87.08
-85.82
-84.07
-81.55
-78.23
-74.30
-69.90
-65.27
-60.66
-56.42
-52.96
-50.61
-49.52
-49.44
-49.87
-50.07
-49.47
-47.79
-45.21
-42.29
-39.74
-38.12
-37.62
-38.02
-38.68
-38.85
-37.88
-35.49
-31.86
-27.50
-23.04
-19.03
-15.74
-13.12
-10.99
-9.12
-7.39
-5.88
-4.70
-3.97
-3.68
-3.75
-4.10
-4.70
-5.58
-6.76
-8.17
-9.62
-10.84
-11.63
-11.92
-11.83
-11.58
-11.43
-11.54
-11.99
-12.72
-13.60
-14.47
-15.17
-15.61
-15.87
-16.11
-16.58
-17.43
-18.68
-20.25
-21.98
-23.68
-25.17
-26.27
-26.73
-26.30
-24.79
-22.22
-18.89
-15.26
-11.80
-8.87
-6.57
-4.88
-3.74
-3.13
-3.09
-3.57
-4.39
-5.17
-5.58
-5.40
-4.71
-3.79
-2.96
-2.41
-2.11
-1.91
-1.67
-1.35
-1.01
-0.81
-0.86
-1.14
-1.60
-2.15
-2.72
-3.34
-4.06
-4.94
-5.99
-7.25
-8.69
-10.27
-11.93
-13.52
-14.86
-15.73
-15.94
-15.38
-14.09
-12.26
-10.20
-8.25
-6.66
-5.56
-4.88
-4.43
-4.00
-3.45
-2.77
-2.06
-1.41
-0.88
-0.42
0.09
0.70
1.36
1.90
2.12
1.90
1.21
0.19
-1.02
-2.30
-3.60
-4.90
-6.23
-7.49
-8.60
-9.44
-9.92
-10.05
-9.98
-9.88
-9.96
-10.42
-11.29
-12.46
-13.68
-14.57
-14.77
-14.03
-12.34
-9.90
-7.06
-4.18
-1.53
0.75
2.64
4.13
5.25
5.97
6.30
6.21
5.75
5.02
4.10
3.14
2.27
1.65
1.32
1.35
1.59
1.92
2.13
2.07
1.70
1.06
0.25
-0.60
-1.41
-2.16
-2.88
-3.62
-4.51
-5.64
-7.13
-9.00
-11.14
-13.24
-14.90
-15.70
-15.32
-13.74
-11.14
-7.94
-4.59
-1.51
1.07
3.06
4.51
5.53
6.14
6.40
6.29
5.87
5.17
4.28
3.18
1.88
0.44
-1.04
-2.35
-3.32
-3.85
-4.03
-4.05
-4.14
-4.46
-5.00
-5.65
-6.26
-6.73
-7.02
-7.15
-7.12
-6.99
-6.87
-6.85
-7.10
-7.69
-8.61
-9.62
-10.40
-10.56
-9.83
-8.15
-5.72
-2.90
-0.16
2.16
3.84
4.89
5.43
5.67
5.74
5.73
5.68
5.62
5.62
5.71
5.94
6.20
6.34
6.17
5.64
4.82
3.95
3.29
2.96
2.87
2.78
2.45
1.72
0.70
-0.40
-1.34
-2.02
-2.51
-3.06
-3.95
-5.29
-7.07
-9.08
-10.99
-12.45
-13.07
-12.59
-10.94
-8.28
-4.98
-1.51
1.68
4.29
6.25
7.60
8.43
8.80
8.70
8.20
7.39
6.46
5.67
5.21
5.21
5.68
6.53
7.53
8.40
8.88
8.75
8.03
6.93
5.84
5.15
5.13
5.79
6.94
8.23
9.39
10.26
10.83
11.13
11.20
11.05
10.70
10.35
10.31
10.97
12.71
15.69
19.89
25.09
30.92
36.88
42.41
46.92
49.93
51.21
50.82
49.10
46.54
43.59
40.48
37.18
33.52
29.35
24.74
19.91
15.18
10.78
6.78
3.00
-0.82
-4.95
-9.63
-14.98
-21.09
-27.86
-34.98
-41.87
-47.65
-51.45
-52.63
-51.06
-47.12
-41.54
-35.02
-28.04
-20.77
-13.24
-5.55
1.87
8.32
12.98
15.24
14.98
12.58
8.82
4.47
0.12
-4.01
-7.90
-11.49
-14.61
-16.97
-18.31
-18.64
-18.30
-17.83
-17.66
-17.96
-18.51
-18.89
-18.74
-17.93
-16.63
-15.20
-14.01
-13.29
-13.12
-13.44
-14.15
-15.07
-16.09
-17.04
-17.80
-18.28
-18.39
-18.08
-17.32
-16.08
-14.38
-12.23
-9.58
-6.37
-2.55
1.74
6.14
10.09
13.02
14.56
14.71
13.83
12.45
11.10
10.06
9.37
8.96
8.69
8.49
8.31
8.12
7.82
7.32
6.47
5.14
3.24
0.79
-2.02
-4.90
-7.49
-9.64
-11.36
-12.85
-14.37
-16.00
-17.54
-18.53
-18.50
-17.15
-14.59
-11.26
-7.76
-4.68
-2.38
-0.99
-0.46
-0.63
-1.31
-2.31
-3.42
-4.44
-5.20
-5.51
-5.32
-4.68
-3.70
-2.54
-1.27
0.08
1.53
3.11
4.78
6.40
7.82
8.88
9.46
9.49
8.90
7.69
5.92
3.77
1.61
-0.05
-0.72
-0.08
1.91
4.95
8.56
12.18
15.38
17.89
19.65
20.71
21.10
20.86
20.04
18.75
17.19
15.62
14.32
13.50
13.22
13.37
13.72
14.00
14.00
13.64
12.88
11.79
10.49
9.08
7.67
6.26
4.77
3.01
0.84
-1.81
-4.83
-7.90
-10.61
-12.55
-13.42
-13.08
-11.64
-9.26
-6.24
-2.93
0.32
3.18
5.41
6.86
7.50
7.42
6.77
5.81
4.80
4.00
3.54
3.44
3.59
3.76
3.75
3.40
2.73
1.84
0.94
0.19
-0.29
-0.58
-0.85
-1.34
-2.26
-3.67
-5.50
-7.56
-9.65
-11.56
-13.15
-14.25
-14.60
-13.90
-11.90
-8.57
-4.21
0.63
5.32
9.38
12.55
14.88
16.53
17.72
18.52
18.95
19.00
18.70
18.12
17.33
16.42
15.37
14.25
13.06
11.89
10.77
9.68
8.52
7.17
5.48
3.45
1.17
-1.13
-3.24
-5.04
-6.58
-8.08
-9.75
-11.77
-14.15
-16.66
-18.95
-20.61
-21.27
-20.74
-19.02
-16.32
-12.95
-9.32
-5.80
-2.64
-0.02
2.04
3.58
4.70
5.51
6.10
6.56
6.96
7.33
7.74
8.24
8.87
9.60
10.33
10.90
11.17
11.08
10.68
10.05
9.24
8.26
7.02
5.46
3.64
1.70
-0.14
-1.77
-3.25
-4.75
-6.52
-8.71
-11.26
-13.94
-16.42
-18.33
-19.34
-19.27
-18.09
-15.90
-12.93
-9.49
-5.93
-2.53
0.50
3.04
5.07
6.59
7.68
8.35
8.63
8.51
8.02
7.25
6.38
5.60
5.12
5.00
5.19
5.58
5.93
6.11
6.00
5.63
5.05
4.34
3.54
2.66
1.71
0.70
-0.33
-1.39
-2.56
-3.94
-5.62
-7.56
-9.46
-10.81
-11.03
-9.81
-7.18
-3.57
0.33
3.90
6.77
8.89
10.41
11.57
12.45
13.09
13.35
13.22
12.78
12.25
11.82
11.62
11.63
11.73
11.76
11.65
11.38
11.09
10.84
10.66
10.45
10.03
9.27
8.09
6.56
4.80
2.97
1.17
-0.53
-2.12
-3.64
-5.18
-6.80
-8.49
-10.15
-11.52
-12.32
-12.25
-11.14
-9.02
-6.08
-2.66
0.90
4.28
7.22
9.54
11.13
11.96
12.05
11.50
10.53
9.38
8.29
7.53
7.24
7.46
8.08
8.92
9.73
10.35
10.70
10.81
10.72
10.43
9.84
8.81
7.28
5.28
2.99
0.64
-1.57
-3.56
-5.34
-6.95
-8.38
-9.61
-10.71
-11.77
-12.97
-14.31
-15.62
-16.50
-16.47
-15.18
-12.59
-9.04
-5.06
-1.25
1.99
4.47
6.22
7.34
7.97
8.26
8.30
8.21
8.11
8.07
8.13
8.28
8.45
8.58
8.58
8.34
7.85
7.08
6.11
5.02
3.93
2.89
1.88
0.81
-0.36
-1.60
-2.83
-3.91
-4.76
-5.37
-5.85
-6.32
-6.95
-7.81
-8.97
-10.39
-11.95
-13.42
-14.46
-14.74
-14.05
-12.44
-10.17
-7.61
-5.11
-2.83
-0.80
1.00
2.55
3.75
4.50
4.76
4.66
4.38
4.16
4.11
4.22
4.40
4.55
4.62
4.68
4.84
5.17
5.66
6.19
6.58
6.70
6.49
6.01
5.40
4.74
4.09
3.41
2.67
1.83
0.90
-0.10
-1.13
-2.16
-3.03
-3.56
-3.49
-2.66
-1.11
0.95
3.15
5.08
6.49
7.34
7.77
7.98
8.12
8.21
8.18
7.95
7.51
6.85
6.08
5.30
4.64
4.18
3.95
3.90
3.91
3.90
3.80
3.59
3.34
3.08
2.81
2.45
1.85
0.93
-0.38
-2.06
-4.05
-6.31
-8.81
-11.49
-14.22
-16.74
-18.61
-19.41
-18.74
-16.55
-13.11
-8.98
-4.82
-1.13
1.85
4.17
6.00
7.40
8.34
8.65
8.29
7.35
6.15
5.08
4.47
4.41
4.73
5.18
5.53
5.69
5.78
5.99
6.43
7.06
7.66
7.95
7.73
7.00
5.93
4.76
3.64
2.57
1.40
-0.11
-2.04
-4.36
-6.83
-9.10
-10.83
-11.68
-11.48
-10.25
-8.19
-5.59
-2.80
-0.12
2.27
4.26
5.81
6.97
7.77
8.25
8.47
8.48
8.30
7.93
7.41
6.78
6.17
5.71
5.47
5.43
5.51
5.57
5.56
5.49
5.39
5.27
5.02
4.57
3.87
2.94
1.89
0.86
-0.05
-0.82
-1.51
-2.31
-3.41
-4.90
-6.77
-8.85
-10.76
-12.06
-12.31
-11.32
-9.19
-6.31
-3.18
-0.29
2.06
3.78
4.91
5.52
5.68
5.39
4.67
3.64
2.49
1.50
0.88
0.75
1.09
1.79
2.63
3.45
4.12
4.56
4.76
4.71
4.41
3.91
3.22
2.41
1.48
0.47
-0.62
-1.77
-3.01
-4.41
-6.07
-8.01
-10.10
-11.99
-13.21
-13.26
-11.85
-9.08
-5.40
-1.41
2.30
5.40
7.80
9.59
10.88
11.72
12.08
11.89
11.18
10.09
8.91
7.94
7.39
7.33
7.61
7.98
8.20
8.13
7.80
7.30
6.71
6.03
5.21
4.13
2.79
1.29
-0.22
-1.66
-2.99
-4.35
-5.90
-7.76
-9.91
-12.22
-14.38
-15.98
-16.62
-16.02
-14.08
-11.02
-7.28
-3.35
0.29
3.40
5.89
7.81
9.22
10.12
10.52
10.49
10.20
9.92
9.86
10.08
10.47
10.79
10.80
10.41
9.70
8.86
8.10
7.50
6.97
6.31
5.37
4.06
2.46
0.74
-0.92
-2.45
-3.86
-5.30
-6.95
-8.89
-11.06
-13.28
-15.23
-16.60
-17.11
-16.61
-15.14
-12.81
-9.84
-6.45
-2.88
0.62
3.79
6.37
8.22
9.32
9.80
9.89
9.78
9.66
9.59
9.56
9.55
9.56
9.56
9.54
9.44
9.20
8.84
8.45
8.14
8.00
8.01
8.00
7.76
7.06
5.81
4.12
2.20
0.36
-1.19
-2.41
-3.48
-4.66
-6.23
-8.30
-10.77
-13.35
-15.67
-17.32
-17.96
-17.38
-15.53
-12.50
-8.60
-4.27
-0.04
3.64
6.44
8.27
9.30
9.79
9.97
9.99
9.83
9.45
8.82
8.03
7.24
6.59
6.10
5.67
5.20
4.65
4.17
3.92
4.06
4.51
4.99
5.12
4.63
3.45
1.81
0.04
-1.59
-3.00
-4.31
-5.75
-7.50
-9.58
-11.86
-14.09
-15.96
-17.08
-17.11
-15.83
-13.28
-9.72
-5.69
-1.75
1.67
4.37
6.43
8.00
9.22
10.08
10.52
10.47
10.06
9.51
9.07
8.98
9.22
9.66
10.05
10.26
10.26
10.18
10.18
10.28
10.35
10.09
9.27
7.77
5.70
3.32
0.94
-1.22
-3.11
-4.80
-6.43
-8.13
-10.02
-12.13
-14.44
-16.81
-18.96
-20.44
-20.75
-19.48
-16.49
-12.02
-6.74
-1.46
3.11
6.57
8.89
10.35
11.25
11.80
11.99
11.70
10.87
9.57
8.06
6.75
6.00
5.96
6.58
7.57
8.58
9.32
9.71
9.80
9.78
9.76
9.74
9.54
8.98
7.90
6.30
4.32
2.16
0.00
-2.11
-4.20
-6.32
-8.47
-10.56
-12.52
-14.37
-16.23
-18.26
-20.56
-22.94
-24.84
-25.56
-24.46
-21.25
-16.23
-10.11
-3.78
1.96
6.62
10.04
12.29
13.53
13.99
13.87
13.39
12.78
12.14
11.52
10.91
10.29
9.78
9.54
9.72
10.40
11.50
12.75
13.86
14.56
14.70
14.28
13.38
12.10
10.49
8.50
6.06
3.12
-0.24
-3.81
-7.35
-10.61
-13.46
-15.88
-17.93
-19.71
-21.30
-22.77
-24.19
-25.54
-26.68
-27.33
-27.05
-25.47
-22.38
-17.91
-12.50
-6.81
-1.46
3.08
6.61
9.13
10.76
11.64
11.93
11.76
11.30
10.69
10.08
9.56
9.21
9.03
8.97
8.94
8.87
8.67
8.31
7.83
7.28
6.72
6.14
5.44
4.49
3.21
1.62
-0.13
-1.86
-3.38
-4.68
-5.86
-7.12
-8.61
-10.39
-12.39
-14.43
-16.23
-17.40
-17.52
-16.21
-13.31
-8.98
-3.78
1.53
6.16
9.60
11.70
12.65
12.80
12.47
11.85
11.03
10.04
8.98
8.02
7.34
7.06
7.18
7.59
8.16
8.80
9.49
10.28
11.10
11.80
12.02
11.43
9.77
7.03
3.46
-0.49
-4.33
-7.66
-10.32
-12.30
-13.73
-14.86
-15.89
-16.94
-17.92
-18.56
-18.44
-17.13
-14.40
-10.31
-5.32
-0.12
4.61
8.40
11.09
12.79
13.70
13.99
13.74
12.97
11.69
10.07
8.37
6.90
5.88
5.37
5.28
5.38
5.47
5.40
5.11
4.63
4.04
3.32
2.41
1.28
-0.05
-1.47
-2.82
-3.94
-4.80
-5.48
-6.10
-6.87
-7.96
-9.41
-11.19
-13.06
-14.67
-15.59
-15.38
-13.81
-10.86
-6.83
-2.21
2.43
6.60
9.98
12.42
13.85
14.29
13.76
12.36
10.24
7.72
5.13
2.85
1.10
-0.01
-0.47
-0.39
0.14
1.07
2.31
3.75
5.23
6.48
7.18
7.08
6.03
4.09
1.47
-1.49
-4.44
-7.16
-9.56
-11.73
-13.86
-16.11
-18.58
-21.15
-23.56
-25.38
-26.12
-25.40
-23.06
-19.31
-14.65
-9.77
-5.29
-1.59
1.25
3.31
4.79
5.76
6.21
6.11
5.52
4.62
3.71
3.01
2.64
2.60
2.80
3.19
3.75
4.50
5.43
6.48
7.46
8.10
8.16
7.51
6.13
4.13
1.72
-0.94
-3.66
-6.32
-8.83
-11.16
-13.41
-15.67
-18.00
-20.25
-21.99
-22.63
-21.61
-18.71
-14.13
-8.57
-2.87
2.21
6.20
9.02
10.83
11.91
12.42
12.45
11.95
10.95
9.60
8.17
7.01
6.46
6.68
7.64
9.12
10.72
12.09
12.94
13.10
12.58
11.47
9.94
8.13
6.14
4.04
1.90
-0.26
-2.41
-4.66
-7.12
-9.96
-13.13
-16.39
-19.19
-20.84
-20.71
-18.49
-14.35
-8.86
-2.88
2.80
7.58
11.22
13.77
15.36
16.14
16.18
15.56
14.38
12.86
11.27
9.87
8.81
8.09
7.61
7.24
6.96
6.80
6.82
6.99
7.20
7.23
6.79
5.73
4.05
1.92
-0.40
-2.63
-4.66
-6.50
-8.26
-10.11
-12.18
-14.50
-17.03
-19.60
-21.92
-23.58
-24.10
-23.06
-20.25
-15.77
-10.07
-3.87
2.11
7.29
11.36
14.27
16.13
17.08
17.21
16.65
15.52
14.04
12.50
11.18
10.21
9.59
9.15
8.74
8.24
7.62
6.98
6.42
6.05
5.88
5.87
5.88
5.67
5.06
3.89
2.16
0.03
-2.26
-4.48
-6.54
-8.48
-10.49
-12.73
-15.32
-18.25
-21.35
-24.34
-26.80
-28.20
-28.08
-26.12
-22.34
-17.15
-11.28
-5.56
-0.64
3.18
5.92
7.76
8.83
9.18
8.78
7.74
6.31
4.93
3.96
3.58
3.76
4.29
4.92
5.54
6.18
6.86
7.57
8.12
8.25
7.77
6.68
5.18
3.69
2.55
2.04
2.15
2.65
3.15
3.18
2.36
0.51
-2.34
-5.84
-9.40
-12.22
-13.58
-13.01
-10.44
-6.29
-1.28
3.85
8.48
12.18
14.80
16.35
16.87
16.48
15.37
13.77
11.94
10.15
8.64
7.62
7.19
7.40
8.10
9.07
10.00
10.70
11.09
11.23
11.16
10.85
10.12
8.78
6.73
4.03
0.94
-2.26
-5.32
-8.17
-10.87
-13.61
-16.53
-19.83
-23.51
-27.34
-30.82
-33.21
-33.76
-31.96
-27.72
-21.52
-14.20
-6.73
0.07
5.69
10.00
13.08
15.09
16.16
16.39
15.91
14.86
13.55
12.32
11.48
11.22
11.54
12.22
12.92
13.35
13.36
13.06
12.67
12.41
12.36
12.31
11.93
10.86
8.92
6.21
3.06
-0.17
-3.19
-5.96
-8.54
-11.04
-13.53
-16.00
-18.43
-20.86
-23.32
-25.75
-27.83
-29.00
-28.57
-26.08
-21.48
-15.26
-8.29
-1.50
4.38
9.04
12.52
15.02
16.76
17.83
18.26
18.06
17.33
16.31
15.30
14.56
14.23
14.26
14.42
14.40
13.96
13.04
11.75
10.38
9.16
8.23
7.43
6.48
5.12
3.23
1.00
-1.24
-3.15
-4.59
-5.73
-6.94
-8.64
-11.08
-14.30
-18.08
-22.10
-25.91
-28.99
-30.76
-30.69
-28.53
-24.32
-18.58
-12.07
-5.65
0.03
4.58
7.91
10.11
11.34
11.76
11.54
10.88
9.98
9.11
8.44
8.09
8.04
8.15
8.22
8.11
7.79
7.39
7.11
7.02
7.07
7.03
6.56
5.42
3.61
1.36
-0.96
-2.96
-4.42
-5.39
-6.09
-6.92
-8.21
-10.20
-12.85
-15.86
-18.64
-20.46
-20.62
-18.67
-14.64
-9.00
-2.60
3.65
9.02
13.09
15.77
17.19
17.60
17.25
16.37
15.19
13.88
12.62
11.50
10.55
9.79
9.18
8.65
8.13
7.53
6.80
5.93
4.95
3.87
2.70
1.41
-0.03
-1.59
-3.20
-4.76
-6.22
-7.58
-8.96
-10.53
-12.49
-14.98
-17.93
-21.00
-23.59
-24.93
-24.35
-21.55
-16.74
-10.61
-4.12
1.86
6.76
10.36
12.71
13.98
14.32
13.88
12.74
11.10
9.23
7.50
6.20
5.53
5.46
5.81
6.31
6.73
7.00
7.21
7.51
7.98
8.53
8.89
8.73
7.87
6.37
4.49
2.55
0.76
-0.86
-2.48
-4.35
-6.77
-9.92
-13.80
-18.22
-22.70
-26.52
-28.81
-28.86
-26.45
-21.88
-15.99
-9.79
-4.14
0.50
4.05
6.65
8.42
9.42
9.63
9.15
8.23
7.30
6.73
6.71
7.21
8.07
9.05
10.06
11.06
12.05
12.94
13.58
13.77
13.32
12.09
10.04
7.22
3.79
0.02
-3.72
-7.05
-9.68
-11.54
-12.85
-14.07
-15.66
-17.94
-20.80
-23.70
-25.76
-26.07
-24.02
-19.60
-13.42
-6.47
0.18
5.77
9.99
12.94
14.87
15.94
16.21
15.66
14.36
12.57
10.70
9.14
8.13
7.64
7.43
7.24
6.89
6.36
5.79
5.31
4.98
4.69
4.22
3.31
1.87
-0.07
-2.24
-4.37
-6.21
-7.73
-9.09
-10.59
-12.54
-15.18
-18.53
-22.37
-26.17
-29.18
-30.59
-29.74
-26.39
-20.76
-13.53
-5.64
1.98
8.64
13.88
17.57
19.73
20.47
20.00
18.51
16.34
13.79
11.22
8.92
7.09
5.79
5.00
4.64
4.60
4.83
5.19
5.57
5.76
5.53
4.69
3.19
1.13
-1.28
-3.77
-6.15
-8.39
-10.59
-12.98
-15.72
-18.91
-22.36
-25.64
-28.02
-28.74
-27.17
-23.10
-16.89
-9.36
-1.56
5.52
11.23
15.40
18.24
20.02
20.93
20.99
20.22
18.67
16.67
14.65
13.03
12.02
11.57
11.45
11.38
11.22
10.93
10.56
10.17
9.68
8.96
7.82
6.18
4.06
1.61
-0.95
-3.48
-5.91
-8.30
-10.86
-13.80
-17.35
-21.53
-26.12
-30.51
-33.85
-35.18
-33.83
-29.59
-22.92
-14.73
-6.14
1.92
8.87
14.57
19.13
22.62
25.02
26.13
25.88
24.39
22.07
19.51
17.25
15.57
14.44
13.69
13.07
12.46
11.84
11.29
10.80
10.32
9.67
8.70
7.30
5.47
3.25
0.74
-1.96
-4.68
-7.29
-9.72
-12.04
-14.46
-17.26
-20.69
-24.77
-29.18
-33.20
-35.91
-36.39
-34.13
-29.16
-22.15
-14.11
-6.12
1.02
6.94
11.63
15.26
17.91
19.53
20.02
19.34
17.76
15.77
14.00
12.96
12.90
13.71
15.03
16.37
17.33
17.72
17.56
17.00
16.22
15.26
14.02
12.29
9.89
6.76
3.13
-0.62
-4.01
-6.73
-8.71
-10.18
-11.54
-13.19
-15.47
-18.50
-22.18
-26.22
-30.00
-32.80
-33.83
-32.52
-28.70
-22.70
-15.25
-7.33
0.19
6.72
11.98
15.94
18.63
20.15
20.59
20.11
18.93
17.33
15.61
14.03
12.75
11.81
11.18
10.75
10.45
10.25
10.13
10.10
10.12
10.03
9.66
8.81
7.35
5.30
2.79
0.02
-2.75
-5.41
-7.88
-10.27
-12.81
-15.76
-19.30
-23.26
-27.15
-30.12
-31.23
-29.77
-25.52
-18.95
-11.01
-2.88
4.52
10.69
15.55
19.22
21.82
23.34
23.65
22.71
20.75
18.21
15.69
13.66
12.34
11.68
11.45
11.47
11.69
12.09
12.64
13.15
13.30
12.81
11.55
9.66
7.48
5.41
3.70
2.40
1.33
0.24
-1.12
-2.89
-5.12
-7.77
-10.65
-13.42
-15.54
-16.35
-15.25
-11.94
-6.47
0.57
8.39
16.10
23.07
28.96
33.69
37.28
39.79
41.28
41.95
42.09
42.12
42.41
43.13
44.20
45.27
45.89
45.72
44.65
42.87
40.74
38.67
36.88
35.32
33.59
31.09
27.24
21.54
13.72
3.77
-8.15
-21.61
-35.98
-50.48
-64.32
-76.83
-87.54
-96.16
-102.46
-106.24
-107.34
-105.70
-101.59
-95.49
-88.05
-79.83
-71.18
-62.24
-53.05
-43.71
-34.32
-25.06
-16.07
-7.56
0.10
6.35
10.44
11.72
9.85
4.98
-2.27
-11.12
-20.92
-31.38
-42.57
-54.58
-67.17
-79.46
-89.96
-96.87
-98.69
-94.63
-84.88
-70.44
-52.73
-33.33
-13.79
4.40
20.00
32.44
42.23
51.08
61.36
75.14
93.14
114.30
136.18
155.89
171.12
180.65
184.14
181.56
172.82
157.67
136.18
109.10
78.01
45.04
12.59
-17.08
-42.05
-60.93
-73.04
-78.52
-78.25
-73.68
-66.44
-57.93
-49.21
-41.10
-34.23
-29.28
-26.76
-26.84
-29.20
-32.99
-37.07
-40.40
-42.40
-43.03
-42.74
-42.08
-41.37
-40.55
-39.14
-36.59
-32.68
-27.80
-22.82
-18.83
-16.55
-15.97
-16.28
-16.30
-15.04
-12.10
-7.88
-3.22
0.97
4.13
6.19
7.37
7.91
7.96
7.54
6.75
5.89
5.41
5.74
7.00
8.79
10.37
10.93
9.95
7.43
3.85
-0.02
-3.51
-6.25
-8.27
-9.79
-11.07
-12.20
-13.00
-13.10
-12.08
-9.67
-5.82
-0.77
5.11
11.43
17.93
24.49
31.01
37.19
42.46
46.15
47.71
46.97
44.34
40.72
37.08
34.17
32.21
30.89
29.63
27.95
25.65
22.93
20.27
18.10
16.74
16.18
16.22
16.48
16.54
16.01
14.58
12.15
8.88
5.39
2.72
2.15
4.81
11.16
20.69
31.93
42.76
51.09
55.56
55.77
52.28
46.24
38.85
31.05
23.37
16.06
9.28
3.20
-2.08
-6.55
-10.38
-13.87
-17.26
-20.62
-23.82
-26.60
-28.76
-30.28
-31.29
-31.99
-32.60
-33.24
-33.97
-34.79
-35.78
-37.01
-38.72
-41.08
-44.21
-48.05
-52.13
-55.62
-57.45
-56.58
-52.32
-44.69
-34.44
-22.87
-11.41
-1.29
6.82
12.79
16.89
19.52
21.02
21.56
21.25
20.21
18.70
17.05
15.59
14.55
14.00
13.84
13.89
13.98
13.85
13.34
12.26
10.51
8.12
5.21
1.94
-1.43
-4.75
-7.85
-10.65
-13.23
-15.78
-18.61
-21.96
-25.84
-29.82
-33.04
-34.42
-33.06
-28.54
-21.18
-11.88
-1.90
7.56
15.60
21.74
25.79
27.87
28.15
26.90
24.52
21.47
18.26
15.37
13.06
11.44
10.41
9.83
9.58
9.63
9.93
10.44
11.00
11.36
11.28
10.54
9.11
7.03
4.51
1.71
-1.16
-4.03
-6.91
-9.97
-13.38
-17.21
-21.15
-24.55
-26.48
-26.01
-22.73
-16.89
-9.43
-1.67
5.21
10.43
13.78
15.44
15.76
14.98
13.27
10.79
7.77
4.62
1.81
-0.26
-1.33
-1.45
-0.84
0.05
0.84
1.23
1.13
0.65
-0.05
-0.88
-1.84
-3.14
-4.96
-7.38
-10.33
-13.57
-16.91
-20.28
-23.72
-27.13
-30.12
-31.99
-31.83
-28.94
-23.16
-15.03
-5.66
3.67
11.88
18.38
23.04
26.07
27.75
28.23
27.66
26.10
23.75
20.98
18.20
15.80
14.00
12.79
12.03
11.48
10.88
10.08
8.99
7.57
5.87
3.99
2.00
-0.01
-2.03
-4.12
-6.46
-9.28
-12.82
-17.14
-22.08
-27.16
-31.60
-34.46
-34.86
-32.35
-27.00
-19.49
-10.89
-2.32
5.29
11.47
16.12
19.36
21.38
22.26
22.09
20.95
19.08
16.86
14.71
13.00
11.92
11.48
11.56
11.89
12.25
12.43
12.25
11.59
10.35
8.50
6.11
3.33
0.40
-2.53
-5.38
-8.28
-11.40
-14.90
-18.69
-22.35
-25.19
-26.46
-25.56
-22.33
-17.09
-10.52
-3.48
3.32
9.41
14.63
18.95
22.36
24.80
26.13
26.22
25.11
23.00
20.20
17.08
13.98
11.12
8.67
6.66
5.15
4.05
3.20
2.45
1.64
0.72
-0.34
-1.51
-2.89
-4.56
-6.69
-9.45
-12.96
-17.27
-22.24
-27.59
-32.65
-36.55
-38.26
-36.97
-32.42
-25.03
-15.86
-6.29
2.39
9.36
14.29
17.31
18.76
18.95
18.15
16.55
14.42
12.10
9.94
8.26
7.18
6.64
6.43
6.30
6.05
5.59
4.94
4.15
3.21
2.09
0.70
-1.10
-3.42
-6.36
-9.92
-14.00
-18.40
-22.78
-26.68
-29.57
-30.94
-30.34
-27.57
-22.70
-16.18
-8.74
-1.23
5.64
11.38
15.88
19.23
21.57
22.97
23.41
22.83
21.27
19.00
16.37
13.83
11.73
10.28
9.42
8.96
8.59
7.98
6.85
5.05
2.61
-0.25
-3.27
-6.14
-8.68
-10.89
-12.94
-15.12
-17.79
-21.20
-25.33
-29.82
-33.85
-36.38
-36.39
-33.26
-27.06
-18.53
-8.92
0.37
8.22
14.05
17.83
19.98
21.00
21.35
21.23
20.67
19.58
17.94
15.85
13.55
11.30
9.35
7.83
6.77
6.09
5.68
5.36
5.02
4.49
3.63
2.40
0.78
-1.17
-3.37
-5.73
-8.18
-10.76
-13.53
-16.61
-19.96
-23.32
-26.01
-27.13
-25.88
-21.91
-15.52
-7.69
0.30
7.28
12.53
15.89
17.59
18.03
17.54
16.37
14.73
12.91
11.22
9.93
9.23
9.07
9.24
9.41
9.32
8.87
8.05
6.98
5.80
4.54
3.17
1.62
-0.20
-2.31
-4.70
-7.34
-10.24
-13.42
-16.96
-20.88
-25.10
-29.33
-32.97
-35.23
-35.28
-32.57
-27.06
-19.29
-10.30
-1.22
6.93
13.56
18.53
21.95
24.06
25.02
24.93
23.92
22.26
20.30
18.44
16.99
16.10
15.72
15.63
15.55
15.22
14.44
13.03
10.93
8.22
5.09
1.82
-1.33
-4.21
-6.86
-9.45
-12.22
-15.39
-19.04
-23.08
-27.16
-30.70
-32.89
-32.94
-30.31
-24.94
-17.36
-8.58
0.23
8.10
14.41
19.02
22.05
23.77
24.39
24.13
23.14
21.66
19.91
18.14
16.52
15.19
14.27
13.75
13.59
13.66
13.76
13.57
12.83
11.29
8.87
5.72
2.22
-1.20
-4.12
-6.39
-8.16
-9.84
-12.01
-15.16
-19.44
-24.62
-29.99
-34.51
-37.10
-36.84
-33.37
-26.91
-18.35
-8.89
0.19
7.89
13.71
17.54
19.65
20.40
20.24
19.45
18.33
17.12
16.06
15.38
15.21
15.48
15.99
16.50
16.78
16.76
16.48
15.99
15.26
14.20
12.66
10.65
8.31
5.91
3.67
1.66
-0.15
-1.83
-3.41
-4.84
-6.17
-7.51
-9.05
-10.89
-12.82
-14.32
-14.72
-13.43
-10.25
-5.48
0.18
5.85
10.70
14.21
16.17
16.75
16.44
15.85
15.65
16.29
17.76
19.61
21.10
21.61
21.01
19.94
19.57
21.06
24.91
30.43
35.83
39.01
38.42
33.95
27.18
20.79
17.45
18.76
24.50
32.51
39.26
40.79
33.42
14.82
-15.05
-52.95
-92.06
-123.13
-137.02
-127.95
-95.87
-46.70
9.99
64.60
110.66
146.01
171.63
189.26
199.36
200.64
191.15
170.09
138.91
101.19
61.48
23.66
-10.18
-40.02
-67.19
-93.10
-117.91
-140.20
-157.42
-167.33
-169.29
-164.84
-157.19
-149.82
-145.12
-143.64
-144.42
-145.79
-146.38
-145.41
-142.59
-137.76
-130.56
-120.54
-107.42
-91.44
-73.38
-54.38
-35.73
-18.50
-3.47
8.88
18.39
25.17
29.60
32.31
34.12
35.81
37.97
40.78
44.00
47.15
49.71
51.34
52.01
51.83
51.02
49.80
48.36
46.99
46.00
45.50
45.32
44.80
43.00
38.99
32.23
22.78
11.34
-0.93
-12.67
-22.55
-29.50
-32.86
-32.48
-28.73
-22.47
-14.86
-7.18
-0.60
3.96
5.95
5.28
2.26
-2.37
-7.61
-12.38
-15.80
-17.29
-16.63
-14.00
-9.77
-4.53
1.01
6.10
10.09
12.54
13.37
12.84
11.47
9.89
8.56
7.65
7.01
6.19
4.63
1.82
-2.53
-8.33
-15.03
-21.60
-26.78
-29.39
-28.62
-24.33
-17.12
-8.14
1.27
9.95
17.19
22.80
26.96
29.92
31.88
32.87
32.83
31.71
29.61
26.84
23.86
21.12
18.91
17.23
15.82
14.25
12.12
9.27
5.75
1.89
-1.96
-5.55
-8.91
-12.28
-15.95
-20.20
-25.07
-30.47
-36.11
-41.40
-45.57
-47.68
-46.81
-42.42
-34.59
-24.07
-12.18
-0.35
10.24
18.93
25.55
30.21
33.11
34.36
34.10
32.60
30.31
27.80
25.64
24.17
23.42
23.22
23.27
23.34
23.31
23.15
22.79
22.15
21.09
19.47
17.22
14.37
11.01
7.22
3.02
-1.67
-6.97
-12.88
-19.23
-25.53
-30.94
-34.43
-35.08
-32.43
-26.65
-18.65
-9.69
-1.06
6.38
12.28
16.75
20.04
22.28
23.42
23.28
21.87
19.47
16.67
14.11
12.24
11.24
10.96
11.09
11.37
11.66
11.87
11.93
11.66
10.83
9.28
6.93
3.91
0.43
-3.30
-7.15
-11.19
-15.60
-20.54
-25.95
-31.45
-36.18
-39.05
-39.00
-35.44
-28.50
-19.14
-8.79
1.03
9.13
14.98
18.59
20.35
20.67
19.91
18.28
15.96
13.25
10.49
8.15
6.51
5.68
5.49
5.62
5.73
5.61
5.20
4.55
3.71
2.72
1.58
0.25
-1.29
-3.04
-5.07
-7.49
-10.52
-14.36
-19.05
-24.38
-29.78
-34.34
-37.04
-37.00
-33.77
-27.54
-19.11
-9.70
-0.60
7.18
13.09
17.06
19.36
20.42
20.55
19.97
18.81
17.16
15.20
13.20
11.44
10.19
9.50
9.23
9.08
8.67
7.71
6.07
3.81
1.10
-1.81
-4.70
-7.47
-10.13
-12.77
-15.50
-18.49
-21.87
-25.74
-30.07
-34.46
-38.29
-40.60
-40.44
-37.17
-30.75
-21.79
-11.43
-0.94
8.68
16.84
23.36
28.30
31.80
34.04
35.20
35.59
35.57
35.52
35.70
36.25
37.20
38.48
40.05
41.88
43.90
45.96
47.92
49.60
50.92
51.85
52.22
51.73
49.92
46.30
40.61
32.89
23.50
13.01
2.00
-9.03
-19.55
-29.04
-37.02
-43.24
-47.81
-51.30
-54.52
-58.22
-62.79
-68.05
-73.44
-78.20
-81.76
-84.02
-85.47
-86.92
-89.27
-93.04
-98.13
-103.85
-109.21
-113.29
-115.71
-116.76
-117.23
-118.12
-120.17
-123.66
-128.45
-134.06
-139.94
-145.64
-150.97
-156.06
-161.36
-167.57
-175.47
-185.45
-197.10
-208.89
-218.30
-222.43
-219.03
-207.37
-188.62
-165.44
-141.09
-118.45
-99.37
-84.63
-74.32
-68.28
-66.36
-68.37
-73.88
-82.07
-91.87
-102.28
-112.56
-122.37
-131.68
-140.51
-148.69
-155.78
-161.11
-164.04
-164.20
-161.63
-156.80
-150.52
-143.62
-136.75
-130.28
-124.27
-118.58
-113.08
-107.70
-102.50
-97.62
-93.18
-89.17
-85.43
-81.69
-77.62
-72.92
-67.39
-60.96
-53.67
-45.63
-36.96
-27.81
-18.29
-8.55
1.29
11.09
20.71
30.02
38.90
47.25
55.03
62.23
68.86
74.93
80.47
85.46
89.87
93.70
96.93
99.61
101.81
103.63
105.23
106.76
108.40
110.23
112.31
114.66
117.22
119.94
122.82
125.96
129.52
133.80
139.03
145.37
152.74
160.87
169.43
178.24
187.60
198.23
211.07
226.64
244.56
263.30
280.49
293.76
301.71
304.67
304.78
305.49
310.54
323.19
345.83
379.58
424.02
476.59
532.44
584.87
626.68
652.14
658.54
646.68
620.04
583.16
540.05
493.46
445.02
396.10
348.28
303.32
262.66
226.77
195.05
166.17
138.79
112.21
86.64
63.09
42.70
26.09
12.86
1.70
-9.08
-20.82
-33.98
-48.02
-61.77
-74.10
-84.41
-92.68
-99.46
-105.35
-110.79
-115.92
-120.63
-124.68
-127.91
-130.25
-131.73
-132.25
-131.57
-129.34
-125.30
-119.49
-112.40
-104.95
-98.14
-92.69
-88.84
-86.31
-84.50
-82.81
-80.78
-78.26
-75.30
-72.14
-69.09
-66.47
-64.56
-63.42
-62.91
-62.63
-62.19
-61.28
-59.83
-58.00
-56.12
-54.47
-53.19
-52.26
-51.59
-51.06
-50.63
-50.29
-50.00
-49.79
-49.60
-49.41
-49.27
-49.20
-49.23
-49.39
-49.66
-49.97
-50.31
-50.72
-51.21
-51.81
-52.49
-53.11
-53.43
-53.08
-51.68
-49.01
-45.12
-40.37
-35.38
-30.74
-26.85
-23.82
-21.53
-19.74
-18.30
-17.14
-16.33
-15.86
-15.63
-15.46
-15.18
-14.69
-13.94
-13.00
-11.86
-10.57
-9.17
-7.77
-6.55
-5.68
-5.27
-5.29
-5.62
-6.08
-6.54
-7.03
-7.61
-8.44
-9.63
-11.25
-13.36
-15.89
-18.63
-21.20
-23.05
-23.65
-22.64
-20.06
-16.32
-12.14
-8.29
-5.31
-3.42
-2.52
-2.29
-2.43
-2.76
-3.24
-3.90
-4.68
-5.43
-5.95
-6.09
-5.83
-5.28
-4.65
-4.13
-3.85
-3.89
-4.30
-5.12
-6.36
-7.93
-9.71
-11.53
-13.24
-14.74
-15.99
-16.99
-17.79
-18.47
-19.20
-20.20
-21.66
-23.60
-25.78
-27.73
-28.85
-28.64
-26.90
-23.80
-19.85
-15.68
-11.84
-8.67
-6.20
-4.29
-2.82
-1.75
-1.13
-1.05
-1.45
-2.16
-2.90
-3.41
-3.56
-3.39
-3.10
-2.82
-2.69
-2.66
-2.68
-2.77
-2.98
-3.42
-4.18
-5.28
-6.69
-8.33
-10.10
-11.90
-13.64
-15.23
-16.62
-17.83
-18.91
-19.89
-20.72
-21.11
-20.69
-19.16
-16.39
-12.56
-8.13
-3.69
0.22
3.22
5.20
6.22
6.47
6.17
5.50
4.57
3.48
2.31
1.18
0.25
-0.27
-0.21
0.43
1.47
2.60
3.49
3.89
3.70
2.96
1.76
0.24
-1.51
-3.41
-5.37
-7.31
-9.15
-10.96
-12.78
-14.76
-16.91
-19.05
-20.82
-21.71
-21.23
-19.15
-15.57
-10.96
-5.96
-1.23
2.77
5.81
7.89
9.05
9.39
8.96
7.84
6.18
4.21
2.21
0.44
-0.92
-1.87
-2.43
-2.74
-2.92
-3.07
-3.27
-3.55
-3.95
-4.46
-5.11
-5.91
-6.85
-7.93
-9.06
-10.19
-11.27
-12.27
-13.26
-14.35
-15.56
-16.80
-17.75
-17.90
-16.77
-14.10
-10.00
-4.99
0.15
4.66
8.03
10.12
11.14
11.36
11.08
10.41
9.42
8.18
6.79
5.41
4.16
3.11
2.20
1.37
0.51
-0.39
-1.30
-2.16
-2.91
-3.53
-4.02
-4.42
-4.80
-5.21
-5.68
-6.24
-6.91
-7.70
-8.70
-10.00
-11.61
-13.33
-14.83
-15.68
-15.51
-14.12
-11.61
-8.33
-4.76
-1.37
1.46
3.55
4.83
5.37
5.27
4.69
3.77
2.64
1.46
0.42
-0.34
-0.77
-0.88
-0.86
-1.02
-1.61
-2.77
-4.42
-6.33
-8.25
-9.96
-11.39
-12.58
-13.59
-14.46
-15.19
-15.74
-16.17
-16.60
-17.21
-18.15
-19.42
-20.76
-21.66
-21.50
-19.76
-16.24
-11.25
-5.48
0.16
4.88
8.23
10.19
11.03
11.17
10.94
10.53
10.01
9.34
8.55
7.69
6.86
6.11
5.47
4.93
4.45
4.08
3.83
3.71
3.68
3.61
3.38
2.88
2.07
0.99
-0.30
-1.78
-3.46
-5.38
-7.59
-10.06
-12.66
-15.16
-17.25
-18.55
-18.76
-17.78
-15.68
-12.77
-9.45
-6.13
-3.12
-0.61
1.26
2.39
2.70
2.20
1.01
-0.62
-2.33
-3.79
-4.74
-5.09
-4.90
-4.30
-3.49
-2.69
-2.12
-1.94
-2.24
-3.02
-4.19
-5.56
-6.94
-8.19
-9.29
-10.28
-11.30
-12.41
-13.58
-14.60
-15.15
-14.89
-13.61
-11.33
-8.23
-4.70
-1.19
1.93
4.35
5.92
6.64
6.65
6.11
5.25
4.22
3.13
2.03
0.97
0.08
-0.50
-0.65
-0.33
0.35
1.19
2.02
2.76
3.42
4.02
4.57
4.95
4.99
4.54
3.53
2.03
0.21
-1.77
-3.85
-6.04
-8.46
-11.06
-13.64
-15.75
-16.82
-16.37
-14.23
-10.67
-6.35
-2.08
1.42
3.79
5.03
5.40
5.23
4.72
3.98
3.04
1.94
0.81
-0.20
-0.96
-1.36
-1.43
-1.24
-0.88
-0.46
-0.04
0.32
0.55
0.62
0.49
0.13
-0.49
-1.37
-2.45
-3.65
-4.85
-6.00
-7.18
-8.54
-10.24
-12.27
-14.36
-16.05
-16.77
-16.05
-13.71
-9.93
-5.24
-0.31
4.14
7.66
9.99
11.13
11.26
10.60
9.37
7.77
6.00
4.24
2.68
1.46
0.57
-0.12
-0.78
-1.54
-2.40
-3.23
-3.90
-4.39
-4.79
-5.26
-5.94
-6.84
-7.83
-8.67
-9.20
-9.36
-9.25
-9.05
-8.95
-9.15
-9.80
-10.99
-12.66
-14.57
-16.29
-17.23
-16.93
-15.13
-11.94
-7.81
-3.47
0.39
3.20
4.74
5.14
4.75
3.99
3.21
2.65
2.39
2.44
2.73
3.20
3.77
4.35
4.86
5.28
5.63
5.97
6.39
6.87
7.29
7.45
7.17
6.36
5.08
3.58
2.13
1.01
0.34
0.02
-0.21
-0.71
-1.79
-3.59
-6.05
-8.80
-11.28
-12.84
-12.97
-11.44
-8.44
-4.46
-0.24
3.51
6.30
7.98
8.68
8.70
8.36
7.84
7.25
6.57
5.77
4.94
4.14
3.41
2.82
2.32
1.92
1.66
1.62
1.79
2.12
2.37
2.26
1.61
0.39
-1.18
-2.80
-4.22
-5.33
-6.19
-6.96
-7.84
-8.93
-10.29
-11.84
-13.38
-14.65
-15.27
-14.87
-13.29
-10.55
-6.99
-3.11
0.58
3.72
6.15
7.89
9.08
9.81
10.15
10.10
9.70
9.09
8.41
7.83
7.43
7.20
7.02
6.87
6.76
6.77
7.00
7.43
7.89
8.08
7.69
6.53
4.63
2.23
-0.31
-2.62
-4.40
-5.54
-6.10
-6.32
-6.58
-7.24
-8.57
-10.54
-12.84
-14.81
-15.75
-15.07
-12.63
-8.74
-4.06
0.66
4.81
8.10
10.52
12.21
13.39
14.16
14.53
14.45
13.93
12.96
11.65
10.15
8.63
7.31
6.30
5.67
5.28
5.00
4.66
4.14
3.42
2.54
1.54
0.47
-0.67
-1.86
-3.02
-4.07
-4.89
-5.48
-6.01
-6.71
-7.84
-9.47
-11.40
-13.10
-13.90
-13.20
-10.73
-6.70
-1.67
3.61
8.48
12.52
15.58
17.65
18.75
18.89
18.08
16.47
14.31
11.99
9.77
7.83
6.15
4.60
3.14
1.81
0.80
0.28
0.36
1.02
2.11
3.44
4.74
5.84
6.63
7.12
7.37
7.54
7.70
7.86
7.94
7.79
7.28
6.43
5.45
4.69
4.58
5.42
7.30
10.06
13.20
16.10
