1536347231.00
64.000000
-0.00
-0.00
-0.00
-0.00
-0.00
-0.00
-0.00
-0.00
-0.00
-0.00
0.00
0.01
0.01
-0.00
-0.03
-0.05
-0.05
0.00
0.13
0.36
0.66
1.01
1.37
1.72
2.06
2.40
2.79
3.24
3.80
4.43
5.08
5.71
6.28
6.81
7.37
8.02
8.84
9.93
11.20
12.53
13.79
14.88
15.85
16.85
18.10
19.81
22.21
25.12
28.27
31.32
34.07
36.60
39.24
42.48
46.69
52.29
58.92
66.01
72.91
79.23
85.03
90.87
97.53
105.69
115.96
127.82
140.39
152.60
163.75
173.81
183.51
194.40
205.47
219.19
236.16
256.24
277.87
297.79
311.55
314.65
304.16
279.69
243.96
200.78
154.03
106.33
58.69
11.21
-35.96
-81.97
-125.48
-164.99
-200.14
-231.59
-260.42
-287.44
-312.89
-336.77
-359.15
-380.31
-399.98
-417.10
-429.18
-433.12
-426.68
-409.52
-383.95
-353.83
-322.67
-292.10
-261.99
-231.47
-200.61
-171.14
-145.75
-126.34
-112.51
-101.43
-89.35
-73.77
-55.00
-35.87
-20.14
-10.20
-5.66
-3.57
-0.14
7.06
17.69
28.93
37.12
40.03
38.16
34.48
32.71
35.13
41.27
48.24
52.51
52.03
47.42
41.61
38.04
38.61
42.54
46.86
48.27
45.15
38.60
31.88
28.46
29.94
35.05
40.28
41.89
38.02
29.86
20.94
15.22
14.76
18.63
23.48
25.59
23.05
16.91
10.57
7.58
9.57
15.17
20.82
22.85
19.72
12.95
6.10
2.80
4.54
9.84
15.25
17.42
15.07
9.74
4.88
3.65
7.10
13.44
19.12
20.86
17.58
11.06
4.81
2.12
4.08
9.04
13.60
14.67
11.28
5.15
-0.32
-2.10
0.71
6.30
11.17
12.19
8.44
1.78
-4.18
-6.21
-3.36
2.41
7.39
8.38
4.55
-1.96
-7.43
-8.76
-5.38
0.40
4.79
4.83
0.10
-6.98
-12.61
-13.84
-10.27
-4.27
0.42
0.90
-3.19
-9.48
-14.33
-14.92
-10.97
-4.81
-0.05
0.60
-3.06
-8.70
-12.74
-12.62
-8.26
-2.17
2.10
2.01
-2.44
-8.63
-12.95
-12.82
-8.28
-1.96
2.49
2.54
-1.69
-7.57
-11.39
-10.68
-5.59
1.15
5.94
6.38
2.73
-2.21
-4.90
-3.06
2.87
10.04
14.81
14.92
10.85
5.47
2.43
3.97
9.66
16.55
21.03
20.94
16.79
11.61
8.95
10.91
16.77
23.46
27.36
26.49
21.70
16.13
13.40
15.37
21.14
27.48
30.77
29.11
23.41
16.86
13.08
13.99
18.70
24.12
26.75
24.83
19.36
13.51
10.66
12.35
17.29
22.13
23.44
19.80
12.66
5.52
1.86
3.18
8.09
13.19
15.04
12.17
5.92
-0.35
-3.24
-1.31
4.03
9.36
11.25
8.36
2.20
-3.70
-5.90
-3.11
2.99
8.80
10.86
7.92
1.68
-4.30
-6.69
-4.32
1.14
6.21
7.69
4.58
-1.37
-6.65
-8.08
-4.74
1.48
6.99
8.56
5.30
-0.79
-6.08
-7.40
-3.92
2.27
7.47
8.56
4.84
-1.59
-6.97
-8.24
-4.73
1.40
6.49
7.54
4.01
-1.89
-6.59
-7.18
-3.29
2.76
7.29
7.45
2.93
-3.84
-9.04
-9.76
-5.61
1.00
6.28
7.31
3.70
-2.19
-6.66
-6.87
-2.59
3.71
8.26
8.32
3.83
-2.55
-7.02
-6.93
-2.36
3.87
7.99
7.46
2.57
-3.74
-7.70
-6.89
-1.78
4.59
8.39
7.31
1.96
-4.53
-8.32
-7.18
-1.81
4.56
8.09
6.61
0.94
-5.63
-9.24
-7.78
-2.10
4.48
8.14
6.79
1.25
-5.21
-8.91
-7.79
-2.65
3.40
6.88
5.90
1.34
-3.80
-6.22
-4.30
0.87
6.21
8.43
6.06
0.35
-5.45
-7.98
-5.77
-0.11
5.68
8.16
5.82
-0.04
-6.05
-8.74
-6.55
-0.74
5.31
8.10
6.05
0.37
-5.54
-8.22
-6.11
-0.46
5.38
8.00
5.93
0.48
-5.00
-7.20
-4.80
0.74
6.07
7.94
5.18
-0.55
-5.87
-7.57
-4.57
1.37
6.77
8.42
5.29
-0.82
-6.35
-8.06
-4.94
1.21
6.75
8.46
5.34
-0.80
-6.34
-8.10
-5.17
0.56
5.52
6.64
3.24
-2.58
-7.26
-7.84
-3.86
2.43
7.36
8.00
3.96
-2.45
-7.53
-8.40
-4.66
1.38
6.10
6.74
3.00
-2.78
-7.04
-7.12
-2.87
3.24
7.57
7.51
3.02
-3.30
-7.76
-7.72
-3.22
3.09
7.49
7.42
2.95
-3.24
-7.47
-7.20
-2.55
3.77
8.05
7.82
3.30
-2.76
-6.68
-6.08
-1.33
4.71
8.32
7.19
1.82
-4.73
-8.69
-7.76
-2.47
4.05
8.04
7.19
2.03
-4.38
-8.36
-7.66
-2.76
3.41
7.27
6.70
2.22
-3.37
-6.67
-5.74
-1.24
4.05
6.87
5.48
0.73
-4.49
-6.93
-4.99
0.30
5.90
8.48
6.45
0.90
-5.01
-7.86
-5.97
-0.42
5.59
8.61
6.92
1.52
-4.42
-7.48
-5.94
-0.85
4.66
7.24
5.31
0.01
-5.46
-7.83
-5.64
-0.19
5.23
7.34
4.80
-0.94
-6.50
-8.58
-5.89
0.04
5.77
8.01
5.48
-0.25
-5.78
-7.84
-5.27
0.38
5.70
7.54
4.87
-0.68
-5.72
-7.23
-4.31
1.29
6.18
7.48
4.42
-1.12
-5.77
-6.69
-3.28
2.47
7.09
7.76
3.95
-2.24
-7.25
-8.16
-4.44
1.74
6.72
7.57
3.82
-2.29
-7.08
-7.70
-3.84
2.10
6.42
6.41
1.98
-4.22
-8.42
-7.96
-2.93
3.88
8.54
8.35
3.40
-3.45
-8.26
-8.28
-3.56
3.11
7.83
7.84
3.17
-3.45
-8.15
-8.23
-3.71
2.74
7.35
7.51
3.27
-2.75
-6.86
-6.57
-2.06
4.02
8.03
7.57
2.92
-3.14
-6.95
-6.22
-1.29
4.94
8.81
8.01
2.93
-3.47
-7.57
-7.14
-2.65
2.99
6.28
5.18
0.34
-5.29
-8.26
-6.66
-1.30
4.74
7.94
6.43
1.15
-4.73
-7.66
-5.83
-0.24
5.85
8.86
6.96
1.23
-5.05
-8.26
-6.60
-1.15
4.79
7.69
5.87
0.47
-5.21
-7.74
-5.58
-0.02
5.62
7.88
5.27
-0.82
-6.99
-9.75
-7.54
-1.70
4.39
7.26
5.38
0.04
-5.38
-7.52
-4.96
0.82
6.43
8.52
5.83
0.01
-5.46
-7.25
-4.25
1.81
7.37
9.14
6.06
-0.09
-5.74
-7.67
-4.85
0.87
5.95
7.24
3.85
-2.25
-7.44
-8.56
-4.87
1.56
7.05
8.44
5.04
-1.05
-6.19
-7.38
-4.00
1.77
6.39
6.98
3.11
-2.95
-7.60
-7.96
-3.72
2.80
7.86
8.59
4.60
-1.70
-6.62
-7.31
-3.41
2.66
7.23
7.46
3.10
-3.45
-8.48
-9.17
-5.27
0.84
5.52
6.10
2.42
-3.04
-6.74
-6.18
-1.45
4.78
8.86
8.31
3.34
-3.34
-7.94
-7.92
-3.40
2.90
7.27
7.15
2.65
-3.45
-7.48
-6.93
-2.01
4.43
8.61
8.04
3.04
-3.51
-7.79
-7.37
-2.61
3.59
7.52
6.89
2.15
-3.75
-7.22
-6.14
-1.10
4.90
8.25
6.90
1.57
-4.69
-8.26
-7.15
-2.19
3.56
6.55
4.97
-0.19
-5.75
-8.19
-5.85
0.18
6.55
9.68
7.78
1.93
-4.55
-8.09
-6.87
-1.89
3.69
6.47
4.80
-0.23
-5.48
-7.63
-5.22
0.48
6.19
8.53
6.09
0.28
-5.49
-7.83
-5.31
0.63
6.54
8.95
6.43
0.38
-5.72
-8.40
-6.21
-0.55
5.10
7.38
4.98
-0.59
-5.88
-7.67
-4.88
0.75
5.73
6.90
3.46
-2.62
-7.71
-8.75
-4.98
1.43
6.85
8.16
4.62
-1.68
-7.15
-8.67
-5.45
0.59
5.95
7.63
4.80
-0.72
-5.55
-6.77
-3.65
1.96
6.70
7.69
4.30
-1.52
-6.29
-7.14
-3.49
2.58
7.47
8.30
4.56
-1.51
-6.28
-6.86
-2.88
3.27
7.89
8.17
3.90
-2.41
-7.05
-7.30
-3.08
3.01
7.27
7.15
2.71
-3.37
-7.47
-7.16
-2.65
3.31
7.14
6.49
1.71
-4.43
-8.32
-7.70
-2.93
3.17
7.03
6.37
1.58
-4.56
-8.51
-8.01
-3.40
2.59
6.53
6.23
2.07
-3.28
-6.49
-5.55
-0.99
4.44
7.47
6.22
1.42
-4.07
-6.92
-5.32
-0.13
5.62
8.49
6.68
1.13
-5.00
-8.18
-6.56
-1.11
4.95
7.99
6.16
0.38
-6.04
-9.47
-8.00
-2.58
3.54
6.76
5.25
-0.02
-5.84
-8.73
-6.97
-1.66
4.03
6.71
4.82
-0.44
-5.96
-8.48
-6.61
-1.64
3.33
5.17
2.62
-3.01
-8.59
-11.09
-9.36
-4.76
-0.29
1.20
-1.26
-6.24
-10.90
-12.72
-11.13
-7.81
-5.63
-6.81
-11.43
-17.34
-21.45
-21.69
-18.36
-14.20
-12.70
-15.99
-23.33
-31.29
-35.71
-34.12
-27.39
-19.47
-15.46
-18.64
-28.57
-40.91
-49.16
-47.67
-34.05
-10.29
17.99
43.72
61.07
67.58
64.56
56.56
49.16
46.83
51.27
60.65
70.13
73.32
64.51
41.11
5.81
-33.87
-67.67
-85.78
-82.07
-56.10
-13.02
37.88
85.40
118.72
129.50
114.63
77.93
29.81
-15.98
-47.34
-58.65
-52.54
-37.63
-23.66
-16.54
-16.39
-19.28
-20.79
-19.00
-15.08
-11.35
-8.89
-6.62
-2.10
6.34
18.03
29.99
38.56
40.97
36.84
28.34
18.95
11.97
9.17
10.21
13.09
15.21
14.62
10.83
4.88
-1.31
-5.86
-7.73
-7.10
-5.09
-3.16
-2.49
-3.45
-5.61
-8.06
-9.89
-10.53
-10.00
-8.75
-7.41
-6.51
-6.28
-6.60
-7.16
-7.61
-7.73
-7.47
-6.96
-6.38
-5.89
-5.59
-5.44
-5.35
-5.23
-4.97
-4.55
-4.04
-3.52
-3.11
-2.87
-2.76
-2.67
-2.40
-1.79
-0.82
0.35
1.44
2.15
2.30
1.98
1.48
1.29
1.79
3.09
4.88
6.57
7.54
7.43
6.39
5.05
4.30
4.86
6.88
9.78
12.52
14.06
13.89
12.34
10.46
9.64
10.63
13.32
16.61
18.92
19.02
16.30
10.71
2.16
-9.26
-22.89
-36.81
-47.53
-51.02
-44.34
-27.46
-3.40
21.67
41.92
53.70
56.54
52.64
45.08
36.67
29.23
23.94
21.59
23.16
29.20
39.10
50.35
58.61
58.81
46.91
22.08
-12.66
-50.90
-85.25
-110.43
-124.90
-131.07
-133.57
-136.71
-142.01
-147.28
-147.65
-138.32
-117.99
-89.33
-59.06
-34.98
-22.28
-21.06
-26.14
-30.07
-27.05
-15.41
1.39
17.79
29.67
36.37
40.23
44.31
50.00
56.22
60.56
60.91
56.65
49.20
41.27
35.40
32.90
33.44
35.37
36.63
35.65
32.07
26.74
21.21
16.93
14.65
14.23
14.79
15.25
14.68
12.74
9.67
6.10
2.72
0.10
-1.52
-2.20
-2.28
-2.34
-2.93
-4.46
-7.06
-10.44
-13.96
-16.83
-18.46
-18.68
-18.02
-17.43
-18.00
-20.36
-24.43
-29.30
-33.65
-36.45
-37.26
-36.56
-35.45
-35.10
-36.39
-39.88
-45.86
-54.10
-63.25
-70.35
-71.35
-62.47
-42.29
-13.11
19.40
48.31
68.22
77.41
77.85
73.53
68.12
63.39
59.22
54.73
49.66
44.73
41.17
39.70
39.90
40.52
40.17
37.98
34.17
29.86
26.36
24.55
24.47
25.33
26.02
25.70
24.19
22.12
20.46
19.99
20.87
22.54
24.02
24.47
23.75
22.42
21.57
22.19
24.62
28.30
32.06
34.80
35.78
35.27
34.13
33.54
34.44
37.56
43.23
51.15
59.81
66.15
66.23
56.62
36.36
8.08
-22.60
-49.20
-67.07
-75.13
-75.69
-72.56
-68.81
-65.53
-62.01
-57.33
-51.46
-45.74
-41.97
-41.23
-43.08
-45.76
-47.11
-45.47
-40.72
-34.19
-28.06
-24.36
-24.09
-26.73
-30.49
-33.23
-33.11
-29.63
-23.62
-16.92
-11.76
-10.20
-13.41
-20.84
-29.96
-36.18
-34.41
-21.04
4.14
37.52
72.93
104.00
125.99
136.80
136.24
125.04
104.18
75.47
42.16
8.82
-19.50
-39.50
-50.89
-56.35
-59.67
-62.99
-65.46
-64.83
-59.72
-51.59
-45.27
-45.00
-51.37
-60.13
-64.12
-57.29
-38.65
-12.99
12.07
29.90
38.41
40.04
39.21
39.35
40.89
42.15
41.41
38.59
35.20
33.95
37.15
45.21
56.14
65.75
68.90
61.89
44.04
18.46
-8.81
-31.29
-44.94
-49.41
-47.71
-44.05
-41.64
-41.42
-42.68
-44.35
-46.15
-49.21
-55.30
-65.35
-79.44
-94.97
-107.32
-111.01
-102.13
-80.19
-49.05
-15.68
12.51
30.62
38.14
38.25
35.55
33.50
33.01
32.89
31.45
28.08
23.74
20.27
19.09
20.28
22.63
24.47
24.35
21.97
18.13
14.17
11.45
10.60
11.37
12.79
13.72
13.36
11.64
9.10
6.58
4.85
4.20
4.43
5.01
5.30
4.94
3.90
2.50
1.15
0.19
-0.22
-0.20
0.01
0.13
-0.02
-0.47
-1.13
-1.83
-2.44
-2.88
-3.17
-3.35
-3.51
-3.71
-3.99
-4.35
-4.77
-5.21
-5.65
-6.06
-6.44
-6.82
-7.24
-7.76
-8.43
-9.22
-10.04
-10.78
-11.33
-11.61
-11.67
-11.58
-11.47
-11.39
-11.26
-10.86
-9.90
-8.13
-5.48
-2.07
1.77
5.75
9.52
12.98
16.28
19.63
23.22
27.05
30.87
34.33
37.14
39.19
40.60
41.67
42.61
43.54
44.58
46.05
48.49
52.26
56.91
60.81
61.38
56.05
43.74
25.67
5.20
-13.40
-26.76
-33.62
-34.77
-32.08
-27.33
-21.75
-16.40
-12.87
-13.30
-19.54
-31.72
-47.35
-61.80
-70.08
-69.02
-58.71
-42.34
-24.70
-10.03
-0.54
3.95
5.10
4.81
4.32
3.99
3.75
3.70
4.38
6.72
11.56
18.96
28.02
37.10
44.49
48.98
50.50
50.02
48.70
47.86
48.27
50.10
53.09
56.86
61.07
65.43
69.78
74.06
78.45
83.23
88.71
94.94
101.34
106.51
108.90
107.40
101.96
93.38
82.76
71.03
58.66
45.78
31.87
16.76
0.90
-14.70
-28.80
-40.20
-47.75
-50.33
-47.48
-41.06
-34.01
-29.25
-28.50
-31.78
-37.53
-43.22
-46.47
-46.74
-47.34
-52.77
-66.63
-90.04
-121.60
-158.10
-195.07
-227.67
-252.59
-270.31
-282.80
-291.82
-298.18
-302.37
-305.37
-308.45
-312.75
-301.96
-265.71
-204.36
-129.43
-55.03
9.74
61.82
101.43
129.44
141.53
135.15
109.22
66.84
16.06
-32.45
-68.89
-87.31
-75.38
-34.98
20.01
71.90
108.50
127.51
134.32
136.50
139.27
143.92
147.16
145.26
137.35
126.25
116.65
112.53
115.40
124.45
137.16
149.53
156.68
154.84
142.30
120.02
91.45
61.63
35.75
17.42
6.70
1.09
-2.70
-7.18
-12.75
-18.08
-21.40
-21.79
-19.87
-17.83
-18.11
-20.91
-25.76
-31.22
-35.56
-37.72
-37.60
-35.72
-32.68
-28.79
-23.91
-18.24
-12.49
-8.12
-7.03
-10.72
-19.43
-30.27
-38.99
-41.72
-37.39
-27.68
-15.58
-3.55
7.27
16.74
25.09
32.22
37.70
40.93
42.12
42.10
42.01
42.86
45.14
48.76
53.08
57.12
59.77
60.76
60.30
58.89
57.01
54.80
52.08
48.38
42.96
34.55
23.29
9.86
-4.67
-19.10
-32.43
-44.10
-53.87
-60.19
-64.60
-68.01
-70.86
-73.04
-74.15
-73.80
-71.98
-68.77
-65.06
-62.03
-60.07
-58.86
-57.43
-54.31
-48.15
-39.92
-29.10
-17.16
-6.65
0.50
3.29
2.12
-1.50
-5.87
-10.13
-13.93
-18.57
-26.00
-37.63
-54.16
-75.35
-99.88
-122.70
-140.37
-147.96
-141.68
-120.54
-87.22
-47.82
-9.75
21.32
43.40
58.23
70.82
86.02
106.27
130.37
154.89
174.04
182.18
176.00
154.34
123.08
90.29
63.30
46.14
38.69
37.61
38.65
38.63
36.21
31.71
25.20
15.99
3.19
-13.17
-31.28
-47.52
-57.78
-59.31
-52.31
-40.81
-30.76
-27.04
-30.48
-37.31
-41.23
-37.08
-24.04
-6.08
10.13
19.54
21.77
21.51
25.51
37.75
56.96
76.93
89.95
91.01
80.44
63.56
47.93
39.60
41.60
52.98
69.95
88.82
106.63
120.65
127.77
124.29
107.16
74.43
27.51
-29.38
-89.80
-146.82
-195.09
-232.06
-258.61
-271.05
-269.95
-257.62
-238.59
-218.02
-200.66
-189.62
-185.11
-184.76
-184.50
-181.37
-168.61
-145.79
-118.38
-94.47
-79.44
-72.71
-70.03
-66.63
-60.43
-51.59
-42.58
-35.45
-30.41
-26.32
-20.71
-11.57
2.14
20.00
40.86
62.72
84.55
107.17
128.67
149.45
169.98
190.45
210.62
230.58
250.33
269.73
287.30
299.02
299.24
281.61
242.01
180.59
102.21
14.50
-74.34
-157.29
-228.81
-283.38
-315.54
-320.21
-294.53
-239.93
-163.04
-74.48
14.05
92.76
156.01
202.04
232.21
249.48
257.30
259.01
257.38
254.28
250.20
244.38
234.87
219.42
196.59
166.62
131.64
95.20
61.02
31.63
7.52
-13.03
-33.15
-56.07
-83.65
-115.44
-148.44
-177.75
-197.72
-203.06
-189.75
-155.72
-101.41
-30.52
49.76
129.33
197.03
243.38
263.16
256.77
229.63
190.10
146.58
105.28
69.15
38.40
11.89
-11.45
-31.87
-48.95
-62.39
-72.72
-81.55
-91.01
-102.76
-117.02
-132.26
-145.89
-155.34
-159.24
-157.73
-152.14
-144.09
-134.70
-124.32
-112.74
-99.76
-85.62
-71.17
-57.56
-46.03
-37.39
-31.84
-28.87
-27.37
-25.96
-23.52
-19.67
-15.03
-11.21
-10.21
-13.85
-23.01
-37.07
-54.01
-70.76
-83.89
-90.39
-88.33
-77.25
-58.58
-35.54
-12.64
5.01
12.72
7.10
-12.80
-44.72
-82.90
-119.25
-145.39
-155.34
-147.88
-127.13
-100.82
-76.78
-59.52
-48.37
-39.08
-26.63
-7.93
16.97
45.66
75.39
105.08
135.59
168.86
204.88
241.07
273.21
296.97
309.51
310.25
300.97
285.03
266.78
248.60
230.89
212.80
192.72
168.80
139.06
102.27
58.30
9.16
-43.40
-97.42
-150.24
-195.76
-225.92
-236.14
-228.26
-216.96
-209.25
-206.92
-209.01
-210.52
-209.36
-206.24
-204.93
-208.48
-217.72
-229.75
-239.96
-243.34
-236.02
-216.90
-187.70
-153.32
-117.26
-81.34
-45.16
-7.34
33.78
79.44
129.55
182.90
236.12
288.27
339.78
383.76
410.40
410.47
380.02
322.60
256.88
188.00
118.27
49.68
-15.86
-76.97
-129.47
-168.70
-190.81
-194.42
-183.37
-163.38
-142.62
-130.03
-131.19
-144.81
-164.57
-182.92
-195.37
-203.43
-209.65
-215.45
-219.15
-215.04
-193.99
-148.66
-77.38
14.44
115.43
214.66
303.98
378.99
427.86
441.64
418.73
367.62
302.47
234.94
171.64
114.85
65.30
24.25
-4.77
-19.10
-19.62
-10.10
0.54
4.67
-1.71
-18.36
-41.96
-66.84
-88.00
-102.96
-112.13
-117.79
-121.56
-123.79
-123.95
-121.78
-117.21
-111.05
-104.62
-99.35
-96.16
-94.89
-94.72
-94.88
-95.06
-94.92
-94.11
-92.21
-88.96
-84.41
-78.40
-70.57
-60.25
-46.71
-29.39
-8.36
15.51
40.90
66.56
92.06
117.67
143.85
170.30
195.39
216.13
229.07
231.54
222.85
204.85
181.51
157.52
136.63
120.39
107.82
96.44
83.84
69.11
53.31
38.68
27.09
18.84
12.36
5.09
-4.98
-18.13
-32.71
-45.95
-55.39
-59.94
-60.24
-58.02
-55.11
-52.48
-50.06
-47.12
-43.03
-37.84
-32.34
-27.72
-25.00
-24.56
-26.05
-28.50
-30.75
-31.82
-31.29
-29.32
-26.55
-23.78
-21.56
-20.04
-19.00
-18.07
-17.13
-16.42
-16.46
-17.67
-20.05
-23.02
-25.57
-26.71
-25.85
-23.08
-19.13
-14.97
-11.50
-9.19
-8.07
-7.79
-7.92
-8.14
-8.25
-8.21
-7.97
-7.41
-6.34
-4.55
-2.01
1.11
4.40
7.34
9.51
10.71
11.02
10.70
10.13
9.54
9.00
8.42
7.57
6.29
4.49
2.16
-0.62
-3.71
-6.91
-9.91
-12.35
-13.98
-14.74
-14.83
-14.70
-14.85
-15.66
-17.36
-19.90
-23.09
-26.71
-30.51
-34.29
-37.83
-40.84
-43.05
-44.30
-44.69
-44.65
-44.88
-46.07
-48.61
-52.27
-56.23
-59.24
-60.14
-58.24
-53.69
-47.44
-41.07
-36.39
-35.04
-37.92
-44.68
-53.37
-60.69
-62.92
-57.25
-43.11
-22.54
0.49
21.69
38.13
49.13
56.15
61.65
67.92
76.11
86.06
96.56
105.92
112.40
114.58
111.69
103.70
91.32
75.73
58.35
40.64
24.09
10.22
0.56
-3.77
-2.40
4.04
13.91
25.12
35.65
44.07
49.71
52.55
52.88
51.11
47.62
42.76
36.92
30.57
24.32
18.75
14.35
11.32
9.51
8.45
7.61
6.69
5.84
5.78
7.57
12.25
20.46
32.20
46.81
63.17
79.99
96.10
110.60
122.93
132.77
140.03
144.75
147.11
147.46
146.27
144.11
141.54
139.05
136.94
135.20
133.56
131.43
128.11
122.93
115.54
106.07
95.14
83.65
72.51
62.19
52.61
43.21
33.24
22.23
10.23
-2.14
-13.86
-23.93
-31.73
-37.21
-40.96
-44.06
-47.70
-52.92
-60.28
-69.71
-80.62
-92.04
-102.86
-112.01
-118.58
-121.93
-121.78
-118.40
-112.71
-106.33
-101.06
-98.26
-98.35
-100.66
-103.80
-106.41
-107.72
-107.86
-107.72
-108.33
-110.17
-112.93
-115.77
-117.77
-118.46
-117.85
-116.31
-114.44
-112.57
-110.53
-107.86
-104.20
-99.50
-94.02
-88.08
-81.88
-76.41
-72.70
-71.57
-73.24
-77.28
-82.78
-88.66
-93.85
-97.66
-102.00
-109.49
-122.14
-139.69
-159.26
-176.07
-185.10
-182.82
-168.39
-146.99
-125.58
-109.58
-100.03
-94.01
-86.95
-75.59
-60.02
-43.20
-33.70
-39.90
-67.06
-115.86
-184.50
-270.30
-370.94
-483.90
-578.38
-623.94
-599.64
-505.72
-362.49
-199.17
-41.10
95.16
202.19
280.83
332.30
364.47
385.29
401.56
417.09
434.00
452.60
471.02
486.66
494.52
482.27
445.45
396.80
348.29
307.62
282.04
273.85
279.41
288.10
287.23
267.36
224.98
162.01
85.80
5.78
-71.19
-141.94
-207.26
-268.77
-325.94
-375.81
-414.55
-436.99
-437.71
-414.06
-367.08
-302.28
-228.57
-155.67
-91.56
-40.07
1.73
42.57
91.35
153.36
227.92
308.73
386.22
450.27
492.49
508.96
500.80
470.93
423.10
360.93
287.75
206.55
119.94
30.62
-60.55
-145.02
-211.37
-250.53
-260.76
-247.13
-217.69
-179.74
-138.59
-98.37
-58.48
-20.47
12.16
35.59
47.84
49.23
42.55
29.18
13.00
-0.98
-9.73
-12.82
-12.54
-12.16
-14.65
-20.34
-27.05
-30.85
-28.61
-20.89
-11.17
-4.61
-5.26
-15.94
-36.06
-61.63
-85.83
-100.73
-100.28
-81.94
-48.25
-5.43
37.12
72.01
96.17
111.59
123.50
137.38
156.92
177.85
199.27
214.06
215.56
200.34
169.31
126.71
75.38
21.09
-31.17
-77.74
-119.17
-156.23
-188.66
-214.86
-233.05
-242.63
-244.36
-240.66
-225.77
-197.86
-158.80
-114.02
-69.64
-29.86
3.25
29.12
47.43
58.57
62.03
58.84
51.57
43.47
37.29
34.82
36.59
42.23
50.17
57.58
62.68
65.21
65.88
66.27
67.55
70.02
72.83
74.43
72.58
65.78
53.67
36.91
17.63
-2.05
-20.49
-37.00
-51.82
-65.94
-80.54
-93.86
-107.94
-123.92
-141.01
-155.77
-162.56
-155.59
-131.95
-93.85
-48.49
-6.24
24.52
40.39
43.49
39.49
34.43
31.74
31.67
32.86
33.89
34.63
34.81
32.65
25.05
9.47
-13.32
-38.52
-58.58
-67.20
-62.23
-47.09
-28.79
-14.19
-6.85
-6.23
-9.32
-13.12
-16.54
-19.94
-23.99
-28.30
-31.31
-31.19
-27.08
-19.38
-9.76
-0.46
7.14
12.59
16.50
20.03
24.16
29.16
34.40
38.69
40.76
39.96
36.48
31.30
25.74
20.96
17.56
15.44
14.01
12.54
10.60
8.22
5.79
3.88
2.79
2.39
2.10
1.26
-0.59
-3.52
-7.03
-10.31
-12.64
-13.74
-13.99
-14.24
-15.23
-17.28
-20.03
-22.39
-23.09
-21.30
-17.21
-12.19
-8.31
-7.13
-9.27
-13.82
-18.60
-20.97
-19.13
-12.99
-4.35
3.82
9.45
11.92
12.82
15.40
23.40
39.59
65.36
101.05
142.97
187.65
230.24
264.75
285.60
290.52
282.61
270.26
263.68
269.72
288.42
312.16
329.77
332.41
317.85
290.40
257.61
225.63
196.37
168.44
139.51
109.05
79.12
52.77
31.51
14.84
0.98
-11.81
-23.97
-35.27
-45.81
-56.83
-70.03
-88.13
-111.65
-138.33
-164.00
-185.29
-201.95
-216.62
-232.20
-249.31
-267.70
-285.03
-299.61
-312.13
-326.03
-345.40
-371.21
-398.73
-418.73
-425.39
-417.51
-400.46
-382.72
-372.18
-372.29
-380.88
-391.41
-376.90
-320.62
-221.02
-94.53
34.98
148.30
237.18
302.40
349.09
382.85
403.02
410.65
406.01
391.56
369.57
342.58
313.04
283.35
255.33
226.77
198.39
169.38
140.08
108.60
73.37
34.12
-7.26
-47.35
-84.69
-118.73
-150.73
-181.89
-217.16
-261.09
-316.19
-382.04
-456.06
-535.70
-617.31
-695.81
-737.93
-718.41
-630.49
-491.95
-334.92
-189.34
-73.02
9.92
64.44
99.43
119.18
125.16
118.41
102.20
82.30
64.91
54.54
52.62
57.59
64.05
66.24
61.00
49.12
34.28
20.62
10.92
5.77
4.02
2.10
-3.56
-14.59
-29.90
-46.39
-60.54
-69.55
-71.59
-69.01
-64.41
-60.13
-57.43
-56.13
-55.13
-53.15
-49.48
-44.11
-37.64
-30.81
-24.47
-19.10
-14.68
-10.84
-7.22
-3.67
-0.37
2.36
4.51
6.12
7.33
8.38
9.53
10.86
12.24
13.34
13.80
13.62
13.07
12.73
13.38
15.74
20.22
26.80
35.03
44.32
54.37
65.30
77.61
92.01
109.02
128.58
150.04
172.25
193.98
214.37
233.21
250.92
268.44
287.05
308.12
332.75
361.11
391.88
421.81
446.24
460.21
460.18
445.40
418.33
383.74
346.84
311.21
277.77
245.10
210.94
174.14
135.79
98.89
66.75
41.16
21.48
5.47
-8.94
-22.04
-32.33
-38.12
-39.58
-39.46
-41.86
-49.56
-62.01
-75.51
-85.52
-89.43
-87.80
-83.29
-78.08
-72.18
-63.73
-51.26
-36.13
-22.86
-17.27
-23.19
-40.28
-64.13
-88.68
-109.22
-124.10
-134.48
-142.40
-149.06
-154.39
-157.71
-158.85
-158.38
-156.96
-154.10
-147.41
-133.14
-108.09
-71.53
-26.60
20.25
61.10
88.71
98.04
86.51
53.76
1.95
-63.57
-133.72
-196.63
-240.55
-257.67
-246.94
-214.28
-169.93
-124.30
-84.29
-52.15
-26.63
-5.49
12.62
27.71
39.26
47.21
52.40
56.14
59.52
63.03
66.69
70.13
73.11
75.41
76.87
77.42
76.99
75.55
73.12
69.81
65.86
61.65
57.63
54.22
51.72
50.27
49.87
50.39
51.66
53.47
55.59
57.77
59.80
61.46
62.64
63.36
63.70
63.78
63.66
63.28
62.49
61.12
59.07
56.35
53.16
49.79
46.49
43.45
40.69
38.23
36.10
34.41
33.34
32.97
33.21
33.75
34.18
34.15
33.50
32.20
30.38
28.06
25.27
21.95
18.13
13.97
9.69
5.52
1.52
-2.41
-6.40
-10.47
-14.38
-17.70
-19.96
-20.85
-20.44
-19.17
-17.69
-16.58
-16.20
-16.58
-17.51
-18.74
-20.11
-21.60
-23.29
-25.24
-27.42
-29.68
-31.72
-33.18
-33.61
-32.60
-29.98
-25.94
-21.20
-16.84
-13.92
-13.11
-14.40
-17.28
-21.11
-25.50
-30.39
-35.92
-41.92
-47.61
-51.68
-52.78
-49.93
-42.78
-31.53
-16.60
1.28
20.96
40.70
58.44
72.41
81.78
87.20
90.54
94.45
101.12
111.63
125.56
140.74
153.42
159.10
153.82
135.98
107.99
75.38
45.02
22.52
10.17
6.56
7.97
10.45
11.41
10.66
8.69
5.91
2.56
-0.59
-1.47
3.01
15.30
35.38
60.54
84.89
101.60
105.62
95.65
74.44
47.24
19.49
-10.10
-41.45
-73.67
-104.36
-130.22
-148.56
-158.45
-161.04
-158.92
-154.65
-149.07
-142.23
-133.61
-122.72
-109.77
-95.76
-82.27
-71.10
-63.24
-57.99
-53.97
-49.70
-44.26
-37.84
-31.73
-27.93
-28.82
-35.40
-46.85
-61.26
-76.44
-90.70
-103.48
-115.37
-125.59
-135.59
-146.51
-158.88
-172.63
-186.71
-198.50
-203.85
-198.13
-178.33
-145.30
-103.77
-61.20
-25.07
0.01
13.70
19.00
20.17
20.45
20.89
21.34
21.67
22.61
25.76
32.49
42.86
55.40
67.73
77.43
83.36
86.02
87.17
88.88
92.51
98.12
104.55
110.02
112.95
112.70
109.97
106.43
104.16
104.98
109.71
117.89
127.62
135.78
138.73
133.58
119.10
96.15
67.47
36.87
8.06
-16.50
-36.08
-51.89
-65.88
-79.89
-95.02
-111.51
-129.18
-147.85
-167.71
-186.98
-204.45
-218.95
-229.72
-236.92
-242.08
-247.82
-256.88
-271.09
-290.47
-313.50
-337.35
-358.52
-373.30
-378.24
-370.63
-349.12
-314.29
-268.74
-216.66
-162.30
-108.83
-57.77
-9.39
36.44
79.45
118.88
153.95
184.38
210.88
234.86
257.95
281.31
305.12
328.21
348.07
361.31
364.61
356.14
336.49
308.81
277.82
248.16
222.85
202.60
186.37
172.42
159.68
148.18
138.77
132.21
128.44
126.32
123.97
119.43
111.33
99.32
84.07
67.02
49.87
34.04
20.41
9.22
0.26
-6.88
-12.57
-17.15
-20.90
-24.08
-26.91
-29.55
-31.95
-33.94
-35.26
-35.65
-35.02
-33.43
-31.09
-28.35
-25.67
-23.59
-22.61
-23.13
-25.20
-28.52
-32.42
-36.05
-38.70
-40.00
-40.02
-39.27
-38.37
-37.82
-37.69
-37.63
-37.10
-35.67
-33.32
-30.56
-28.22
-27.10
-27.59
-29.50
-32.09
-34.39
-35.57
-35.24
-33.50
-30.88
-28.14
-26.18
-25.86
-27.81
-32.15
-38.18
-44.34
-48.55
-48.84
-44.31
-35.58
-24.75
-14.66
-7.93
-5.99
-8.75
-14.86
-22.36
-29.57
-35.70
-41.12
-46.91
-53.97
-62.01
-69.16
-72.42
-68.91
-57.23
-38.22
-14.67
9.83
32.19
50.71
64.99
75.44
82.67
87.34
90.26
92.60
95.62
100.16
106.02
111.88
115.86
116.37
112.84
106.04
97.63
89.56
83.22
79.15
77.00
75.93
75.01
73.61
71.51
68.82
65.90
63.27
61.51
61.18
62.72
66.28
71.61
78.00
84.35
89.45
92.35
92.67
90.74
87.43
83.75
80.47
77.88
75.72
73.46
70.48
66.27
60.33
52.17
41.25
27.22
10.07
-9.57
-30.54
-51.35
-70.66
-87.51
-101.44
-112.33
-120.16
-124.94
-126.68
-125.59
-122.14
-117.04
-111.01
-104.61
-98.10
-91.48
-84.68
-77.67
-70.54
-63.45
-56.52
-49.82
-43.38
-37.26
-31.60
-26.57
-22.33
-18.97
-16.42
-14.55
-13.14
-11.95
-10.74
-9.26
-7.39
-5.16
-2.86
-0.91
0.24
0.32
-0.63
-2.37
-4.54
-6.81
-9.00
-11.03
-12.82
-14.31
-15.41
-16.09
-16.39
-16.43
-16.39
-16.39
-16.50
-16.69
-16.89
-16.95
-16.74
-16.18
-15.26
-14.04
-12.64
-11.20
-9.82
-8.63
-7.68
-6.97
-6.44
-5.98
-5.46
-4.87
-4.31
-4.02
-4.27
-5.18
-6.68
-8.47
-10.17
-11.49
-12.29
-12.61
-12.63
-12.48
-12.26
-11.95
-11.59
-11.24
-11.07
-11.21
-11.71
-12.46
-13.22
-13.77
-13.96
-13.77
-13.32
-12.78
-12.33
-12.06
-12.00
-12.09
-12.20
-12.20
-12.01
-11.74
-11.64
-12.04
-13.17
-14.96
-17.03
-18.84
-19.95
-20.36
-20.54
-21.30
-23.41
-27.15
-32.09
-37.12
-40.81
-41.94
-40.00
-35.39
-29.36
-23.52
-19.34
-17.52
-17.62
-17.94
-15.80
-8.28
6.76
29.82
59.32
92.00
124.15
152.89
177.23
198.00
216.82
234.82
251.48
264.72
271.79
270.48
259.87
240.54
214.38
184.04
152.42
121.98
93.86
67.16
39.21
7.00
-30.84
-72.29
-112.06
-143.61
-162.50
-169.07
-169.24
-172.47
-187.78
-219.85
-267.01
-322.09
-375.18
-417.23
-442.60
-450.11
-442.57
-425.11
-403.27
-381.32
-361.19
-342.14
-321.51
-296.04
-263.33
-223.03
-177.06
-128.78
-81.70
-38.53
-0.87
30.44
54.79
72.13
83.32
90.54
96.78
104.90
116.40
130.85
145.91
158.15
164.03
160.80
147.28
124.29
94.67
62.60
32.45
7.26
-12.04
-26.47
-37.83
-47.41
-55.38
-61.16
-64.37
-65.75
-67.07
-70.31
-76.39
-84.52
-92.39
-97.30
-97.38
-92.30
-83.19
-71.83
-59.84
-48.15
-37.05
-26.37
-15.67
-4.14
9.38
25.96
45.84
67.67
88.49
104.72
113.93
116.19
114.27
112.36
114.00
120.49
130.58
141.57
150.95
157.62
161.99
165.22
168.25
171.16
173.43
174.49
174.35
173.65
173.24
173.51
174.04
173.69
171.14
165.67
157.50
147.71
137.84
129.25
122.74
118.46
115.88
113.94
111.27
106.50
98.69
87.74
74.60
60.89
48.23
37.31
27.64
17.79
6.13
-8.37
-25.96
-46.47
-70.11
-97.58
-129.38
-164.59
-199.97
-230.39
-250.39
-256.31
-247.65
-227.05
-198.97
-168.05
-137.91
-111.06
-89.32
-74.16
-66.62
-66.67
-72.74
-81.93
-90.80
-96.44
-97.32
-93.40
-85.79
-76.16
-66.12
-56.71
-48.32
-40.76
-33.60
-26.44
-19.14
-11.95
-5.30
0.20
4.01
5.72
5.16
2.57
-1.30
-5.18
-7.49
-6.80
-2.23
6.29
18.00
31.55
45.48
58.56
69.98
79.21
85.93
89.86
90.85
89.02
84.91
79.45
73.72
68.64
64.64
61.60
58.97
56.11
52.57
48.33
43.76
39.53
36.32
34.54
34.24
35.01
36.15
36.82
36.36
34.44
31.12
26.78
21.99
17.31
13.16
9.81
7.32
5.61
4.42
3.43
2.34
0.94
-0.80
-2.71
-4.52
-5.96
-6.86
-7.18
-7.02
-6.56
-5.99
-5.46
-5.08
-4.88
-4.83
-4.83
-4.79
-4.66
-4.50
-4.42
-4.56
-4.94
-5.49
-6.07
-6.57
-6.96
-7.25
-7.45
-7.49
-7.29
-6.83
-6.24
-5.80
-5.80
-6.39
-7.47
-8.73
-9.68
-9.94
-9.24
-7.55
-5.04
-1.99
1.19
4.09
6.30
7.57
7.79
7.07
5.65
3.87
2.07
0.53
-0.54
-1.08
-1.13
-0.88
-0.60
-0.56
-0.96
-1.84
-3.05
-4.34
-5.41
-6.07
-6.26
-6.04
-5.50
-4.76
-3.89
-2.95
-2.02
-1.22
-0.64
-0.30
-0.14
0.00
0.28
0.79
1.47
2.14
2.57
2.54
1.98
1.00
-0.08
-0.90
-1.09
-0.49
0.82
2.57
4.32
5.67
6.30
6.11
5.19
3.76
2.13
0.56
-0.78
-1.86
-2.76
-3.61
-4.55
-5.68
-7.01
-8.53
-10.10
-11.55
-12.61
-13.08
-12.82
-11.89
-10.55
-9.18
-8.11
-7.54
-7.42
-7.55
-7.62
-7.37
-6.64
-5.42
-3.83
-2.10
-0.43
0.98
2.05
2.75
3.12
3.20
3.05
2.69
2.16
1.54
0.90
0.29
-0.31
-0.91
-1.53
-2.11
-2.58
-2.83
-2.84
-2.65
-2.36
-2.10
-1.98
-2.04
-2.28
-2.69
-3.17
-3.64
-3.97
-4.07
-3.88
-3.42
-2.74
-1.92
-1.03
-0.11
0.78
1.58
2.21
2.61
2.73
2.60
2.31
1.97
1.71
1.63
1.81
2.23
2.76
3.20
3.33
3.06
2.42
1.62
0.90
0.45
0.29
0.33
0.40
0.37
0.16
-0.24
-0.83
-1.61
-2.53
-3.51
-4.37
-4.94
-5.07
-4.72
-3.96
-2.91
-1.73
-0.56
0.54
1.56
2.54
3.52
4.49
5.43
6.22
6.77
7.02
7.02
6.86
6.69
6.56
6.45
6.30
6.06
5.74
5.44
5.25
5.22
5.31
5.40
5.36
5.09
4.61
3.97
3.22
2.40
1.51
0.56
-0.42
-1.35
-2.14
-2.72
-3.09
-3.24
-3.19
-2.89
-2.33
-1.54
-0.62
0.31
1.11
1.77
2.33
2.88
3.49
4.08
4.52
4.66
4.48
4.06
3.60
3.26
3.11
3.08
3.02
2.82
2.40
1.81
1.14
0.50
-0.02
-0.39
-0.61
-0.73
-0.83
-1.00
-1.35
-1.94
-2.74
-3.61
-4.38
-4.87
-5.02
-4.92
-4.75
-4.70
-4.81
-4.99
-5.02
-4.62
-3.61
-1.94
0.22
2.46
4.22
4.92
4.20
2.08
-0.94
-4.04
-6.38
-7.46
-7.33
-6.54
-5.84
-5.82
-6.67
-8.17
-9.90
-11.55
-13.07
-14.70
-16.80
-19.57
-22.94
-26.52
-29.81
-32.42
-34.30
-35.75
-37.34
-39.63
-42.97
-47.46
-52.91
-58.72
-63.83
-66.77
-65.89
-60.02
-49.04
-34.19
-17.76
-2.36
10.00
18.48
23.36
25.54
25.87
24.78
22.35
18.62
13.90
8.74
3.70
-0.92
-5.20
-9.47
-14.01
-18.86
-23.74
-28.23
-31.95
-34.86
-37.20
-39.47
-42.22
-45.88
-50.71
-56.68
-63.46
-70.43
-76.70
-81.31
-83.41
-82.54
-78.70
-72.37
-64.23
-55.01
-45.30
-35.56
-26.16
-17.48
-9.84
-3.51
1.40
5.01
7.60
9.58
11.34
13.19
15.28
17.53
19.73
21.59
22.87
23.44
23.35
22.75
21.84
20.76
19.56
18.21
16.58
14.49
11.82
8.49
4.62
0.53
-3.25
-6.08
-7.34
-6.57
-3.63
1.24
7.47
14.31
20.93
26.72
31.29
34.53
36.54
37.50
37.58
36.95
35.79
34.33
32.82
31.54
30.61
29.98
29.44
28.73
27.64
26.13
24.28
22.26
20.22
18.21
16.18
14.00
11.52
8.61
5.21
1.37
-2.65
-6.42
-9.35
-10.84
-10.47
-8.09
-3.92
1.55
7.66
13.74
19.25
23.80
27.19
29.39
30.47
30.61
30.08
29.18
28.21
27.38
26.82
26.49
26.25
25.89
25.21
24.12
22.61
20.78
18.79
16.77
14.81
12.85
10.82
8.55
5.92
2.89
-0.45
-3.84
-6.88
-9.05
-9.86
-8.97
-6.31
-2.10
3.17
8.87
14.42
19.35
23.39
26.40
28.35
29.27
29.24
28.45
27.17
25.72
24.37
23.30
22.56
22.07
21.65
21.07
20.16
18.84
17.28
15.79
14.64
13.98
13.69
13.49
13.02
11.98
10.24
8.02
5.70
3.84
2.97
3.57
5.88
9.85
15.11
21.03
27.19
33.23
38.96
44.22
48.81
52.47
54.93
56.06
55.91
55.52
55.96
58.01
61.80
66.78
71.93
76.25
79.05
80.11
81.09
83.74
89.26
97.82
108.46
119.62
129.81
138.03
143.84
149.61
157.66
169.54
185.43
204.12
223.81
242.97
260.93
277.76
297.23
323.03
357.61
401.01
450.66
502.31
551.71
595.98
613.94
590.97
519.97
405.26
261.72
108.90
-36.21
-163.05
-267.52
-349.97
-409.93
-448.11
-466.34
-468.01
-457.94
-441.43
-423.08
-406.00
-391.78
-378.54
-363.99
-346.48
-325.75
-303.00
-280.14
-258.83
-239.96
-223.83
-208.89
-193.77
-177.77
-161.04
-144.53
-129.42
-116.52
-106.08
-97.91
-90.89
-84.00
-76.54
-68.30
-59.56
-50.85
-42.65
-35.36
-29.19
-23.97
-19.39
-15.20
-11.22
-7.46
-4.07
-1.23
1.00
2.57
3.52
3.87
3.54
2.49
0.79
-1.57
-4.30
-7.03
-9.41
-11.26
-12.41
-12.69
-11.86
-9.81
-6.84
-3.66
-1.34
-0.77
-2.26
-5.35
-8.96
-12.02
-13.84
-14.41
-14.09
-13.33
-12.33
-11.04
-9.43
-7.66
-6.10
-5.17
-5.00
-5.36
-5.84
-5.97
-5.49
-4.53
-3.38
-2.39
-1.82
-1.76
-2.05
-2.37
-2.30
-1.42
0.49
3.42
7.05
10.78
13.89
15.81
16.26
15.39
13.63
11.40
9.02
6.68
4.40
2.12
-0.23
-2.76
-5.62
-8.21
-10.37
-12.11
-13.53
-14.78
-15.94
-17.04
-18.01
-18.72
-19.01
-18.93
-18.57
-18.09
-17.67
-17.48
-17.59
-18.02
-18.68
-19.36
-19.86
-19.83
-18.89
-16.77
-13.44
-9.13
-4.32
0.42
4.62
7.94
10.30
11.78
12.54
12.73
12.43
11.72
10.72
9.60
8.53
7.72
7.27
7.17
7.25
7.26
6.99
6.33
5.33
4.15
2.96
1.89
0.91
-0.05
-1.14
-2.50
-4.17
-6.16
-8.35
-10.51
-12.31
-13.30
-13.06
-11.32
-8.10
-3.75
1.11
5.81
9.76
12.62
14.30
14.86
14.48
13.35
11.68
9.73
7.83
6.29
5.31
4.89
4.86
4.89
4.64
3.96
2.90
1.69
0.61
-0.16
-0.61
-0.91
-1.31
-2.01
-3.13
-4.67
-6.54
-8.61
-10.64
-12.33
-13.27
-13.09
-11.56
-8.76
-5.08
-1.12
2.57
5.59
7.80
9.24
9.97
10.06
9.56
8.59
7.41
6.36
5.74
5.70
6.16
6.85
7.45
7.71
7.52
6.87
5.90
4.74
3.52
2.33
1.19
0.06
-1.20
-2.75
-4.73
-7.15
-9.83
-12.37
-14.26
-15.04
-14.47
-12.58
-9.69
-6.27
-2.78
0.40
3.07
5.17
6.66
7.50
7.69
7.22
6.24
4.96
3.71
2.75
2.30
2.37
2.82
3.38
3.81
3.92
3.72
3.29
2.78
2.27
1.76
1.21
0.52
-0.38
-1.55
-3.00
-4.72
-6.70
-8.80
-10.80
-12.28
-12.81
-12.02
-9.81
-6.44
-2.44
1.56
4.98
7.52
9.11
9.86
9.97
9.56
8.74
7.60
6.30
5.03
3.99
3.34
3.12
3.25
3.57
3.84
3.88
3.60
3.02
2.26
1.49
0.82
0.26
-0.26
-0.93
-1.85
-3.10
-4.66
-6.40
-8.18
-9.81
-11.06
-11.62
-11.21
-9.65
-6.99
-3.56
0.11
3.42
5.92
7.43
7.99
7.83
7.24
6.42
5.51
4.60
3.80
3.20
2.86
2.78
2.79
2.67
2.20
1.35
0.23
-0.92
-1.86
-2.53
-3.02
-3.55
-4.28
-5.26
-6.38
-7.50
-8.57
-9.58
-10.56
-11.46
-12.08
-12.16
-11.43
-9.79
-7.31
-4.22
-0.90
2.29
4.98
6.96
8.12
8.52
8.30
7.63
6.67
5.52
4.34
3.28
2.51
2.13
2.11
2.28
2.40
2.25
1.74
0.88
-0.22
-1.47
-2.80
-4.19
-5.61
-7.01
-8.38
-9.75
-11.24
-12.98
-15.05
-17.39
-19.75
-21.74
-22.90
-22.86
-21.48
-18.89
-15.53
-12.02
-9.01
-7.01
-6.25
-6.75
-8.33
-10.75
-13.77
-17.12
-20.56
-23.81
-26.61
-28.83
-30.40
-31.34
-31.66
-31.35
-30.33
-28.52
-25.88
-22.41
-18.12
-13.09
-7.31
-0.89
5.95
12.84
19.25
24.62
28.52
30.81
31.64
31.44
30.83
30.32
30.32
30.96
32.11
33.47
34.67
35.40
35.48
34.92
33.80
32.22
30.26
27.92
25.28
22.52
19.89
17.66
15.96
14.78
13.95
13.26
12.53
11.66
10.60
9.36
7.90
6.28
4.57
2.92
1.42
0.12
-1.05
-2.20
-3.39
-4.68
-6.05
-7.46
-8.80
-9.87
-10.36
-9.94
-8.45
-5.94
-2.79
0.45
3.25
5.31
6.60
7.30
7.61
7.65
7.42
6.87
6.02
5.05
4.19
3.67
3.59
3.86
4.26
4.54
4.51
4.12
3.46
2.67
1.86
1.01
0.06
-1.07
-2.33
-3.61
-4.73
-5.59
-6.27
-6.98
-8.01
-9.44
-11.14
-12.72
-13.67
-13.57
-12.29
-9.95
-6.90
-3.63
-0.56
1.99
3.84
4.93
5.31
5.09
4.43
3.49
2.52
1.74
1.35
1.47
2.07
2.96
3.83
4.36
4.33
3.65
2.43
0.87
-0.79
-2.34
-3.63
-4.59
-5.24
-5.66
-6.02
-6.47
-7.16
-8.10
-9.18
-10.12
-10.61
-10.36
-9.24
-7.27
-4.66
-1.76
1.06
3.44
5.14
6.07
6.27
5.90
5.12
4.12
3.03
1.97
1.04
0.32
-0.12
-0.29
-0.28
-0.27
-0.44
-0.92
-1.69
-2.65
-3.63
-4.47
-5.12
-5.64
-6.16
-6.89
-7.96
-9.42
-11.21
-13.09
-14.75
-15.77
-15.78
-14.54
-12.05
-8.60
-4.67
-0.85
2.37
4.70
6.09
6.71
6.77
6.45
5.86
5.03
4.04
3.03
2.17
1.67
1.57
1.83
2.26
2.64
2.75
2.43
1.68
0.59
-0.64
-1.80
-2.76
-3.47
-4.05
-4.66
-5.47
-6.57
-7.95
-9.49
-11.00
-12.28
-13.07
-13.15
-12.35
-10.63
-8.07
-4.91
-1.50
1.78
4.58
6.63
7.84
8.25
8.04
7.43
6.67
5.90
5.23
4.70
4.35
4.19
4.20
4.32
4.44
4.41
4.18
3.76
3.21
2.59
1.91
1.13
0.22
-0.86
-2.06
-3.35
-4.75
-6.35
-8.18
-10.14
-11.97
-13.21
-13.41
-12.31
-9.91
-6.50
-2.56
1.39
4.90
7.65
9.53
10.52
10.72
10.31
9.49
8.45
7.39
6.47
5.82
5.53
5.61
5.98
6.48
6.87
6.95
6.58
5.78
4.67
3.44
2.24
1.17
0.24
-0.63
-1.53
-2.56
-3.80
-5.26
-6.89
-8.45
-9.62
-10.01
-9.33
-7.49
-4.64
-1.15
2.51
5.90
8.71
10.77
12.02
12.49
12.26
11.48
10.34
9.04
7.83
6.85
6.23
5.96
5.96
6.08
6.14
5.99
5.53
4.76
3.73
2.57
1.36
0.18
-0.99
-2.23
-3.61
-5.16
-6.83
-8.47
-9.83
-10.64
-10.66
-9.77
-7.99
-5.48
-2.53
0.54
3.41
5.86
7.72
8.98
9.65
9.77
9.42
8.66
7.58
6.31
5.04
3.97
3.25
2.92
2.89
2.94
2.87
2.55
1.98
1.31
0.69
0.19
-0.26
-0.81
-1.65
-2.84
-4.35
-6.07
-7.84
-9.48
-10.81
-11.59
-11.57
-10.57
-8.55
-5.69
-2.34
1.00
3.92
6.09
7.41
7.96
7.93
7.50
6.85
6.10
5.32
4.65
4.19
4.03
4.15
4.43
4.65
4.60
4.16
3.31
2.22
1.07
0.07
-0.67
-1.16
-1.54
-1.99
-2.68
-3.69
-4.99
-6.43
-7.78
-8.76
-9.08
-8.54
-7.03
-4.67
-1.78
1.16
3.70
5.53
6.60
7.05
7.16
7.12
6.96
6.64
6.11
5.41
4.67
4.10
3.80
3.78
3.91
3.99
3.87
3.48
2.86
2.07
1.24
0.44
-0.29
-0.94
-1.60
-2.35
-3.32
-4.59
-6.13
-7.80
-9.34
-10.40
-10.67
-9.90
-8.05
-5.29
-1.97
1.44
4.50
6.93
8.63
9.64
10.08
10.00
9.42
8.35
6.94
5.47
4.29
3.65
3.58
3.82
3.97
3.71
2.90
1.70
0.44
-0.58
-1.21
-1.56
-1.82
-2.23
-2.89
-3.82
-4.99
-6.33
-7.72
-8.96
-9.74
-9.72
-8.66
-6.55
-3.64
-0.42
2.65
5.18
7.01
8.15
8.70
8.71
8.26
7.36
6.15
4.81
3.58
2.68
2.20
2.08
2.15
2.23
2.15
1.87
1.40
0.82
0.16
-0.53
-1.23
-1.97
-2.80
-3.79
-5.05
-6.62
-8.46
-10.37
-12.01
-12.99
-13.00
-11.88
-9.76
-6.95
-3.93
-1.13
1.17
2.87
4.03
4.80
5.26
5.46
5.37
5.00
4.43
3.80
3.32
3.17
3.37
3.83
4.27
4.41
4.09
3.33
2.31
1.29
0.44
-0.19
-0.72
-1.26
-1.93
-2.77
-3.80
-4.98
-6.23
-7.38
-8.14
-8.20
-7.31
-5.46
-2.89
-0.02
2.68
4.91
6.56
7.68
8.37
8.69
8.62
8.13
7.25
6.14
5.04
4.19
3.76
3.75
4.01
4.35
4.55
4.51
4.18
3.66
3.07
2.56
2.18
1.89
1.54
0.95
-0.04
-1.45
-3.18
-5.00
-6.67
-7.94
-8.64
-8.65
-7.91
-6.49
-4.53
-2.29
-0.08
1.82
3.21
4.03
4.33
4.17
3.63
2.76
1.69
0.57
-0.37
-0.93
-1.09
-0.94
-0.74
-0.71
-0.96
-1.43
-1.97
-2.45
-2.78
-3.03
-3.26
-3.59
-4.05
-4.68
-5.49
-6.53
-7.75
-9.03
-10.10
-10.67
-10.47
-9.38
-7.47
-4.93
-2.05
0.85
3.48
5.60
7.07
7.82
7.91
7.48
6.69
5.72
4.71
3.86
3.32
3.23
3.61
4.31
4.99
5.32
5.08
4.28
3.15
2.02
1.11
0.52
0.14
-0.18
-0.55
-1.05
-1.69
-2.50
-3.51
-4.72
-5.98
-7.04
-7.53
-7.11
-5.61
-3.17
-0.19
2.77
5.14
6.59
7.07
6.80
6.10
5.27
4.49
3.82
3.27
2.86
2.64
2.64
2.88
3.27
3.72
4.08
4.22
4.06
3.57
2.83
1.95
1.04
0.22
-0.50
-1.14
-1.84
-2.70
-3.81
-5.14
-6.57
-7.88
-8.80
-9.08
-8.59
-7.33
-5.46
-3.22
-0.87
1.33
3.18
4.55
5.32
5.50
5.18
4.52
3.72
2.96
2.41
2.15
2.23
2.60
3.17
3.76
4.17
4.24
3.87
3.13
2.14
1.10
0.13
-0.67
-1.33
-1.90
-2.46
-3.15
-4.07
-5.32
-6.86
-8.48
-9.81
-10.41
-9.99
-8.45
-6.05
-3.25
-0.60
1.52
2.96
3.84
4.35
4.68
4.81
4.68
4.19
3.36
2.41
1.67
1.40
1.65
2.24
2.81
3.00
2.66
1.85
0.79
-0.25
-1.13
-1.83
-2.41
-2.96
-3.55
-4.24
-5.08
-6.10
-7.30
-8.58
-9.73
-10.50
-10.59
-9.86
-8.28
-6.09
-3.63
-1.32
0.46
1.49
1.73
1.27
0.30
-1.00
-2.47
-4.01
-5.49
-6.80
-7.83
-8.54
-8.99
-9.36
-9.89
-10.74
-12.00
-13.61
-15.47
-17.44
-19.46
-21.50
-23.62
-25.91
-28.40
-31.09
-33.89
-36.58
-38.89
-40.49
-41.05
-40.34
-38.15
-34.43
-29.17
-22.55
-14.87
-6.54
1.90
9.98
17.30
23.62
28.84
32.97
36.10
38.36
39.88
40.74
41.00
40.65
39.68
38.13
36.07
33.64
30.98
28.24
25.53
22.94
20.52
18.26
16.11
13.96
11.66
9.12
6.38
3.58
1.07
-0.80
-1.70
-1.47
-0.23
1.70
3.83
5.72
7.09
7.84
8.11
8.08
7.87
7.53
6.99
6.22
5.27
4.30
3.47
2.89
2.55
2.33
2.04
1.56
0.88
0.03
-0.89
-1.79
-2.62
-3.39
-4.09
-4.77
-5.46
-6.25
-7.21
-8.35
-9.61
-10.75
-11.45
-11.38
-10.35
-8.38
-5.75
-2.85
-0.12
2.12
3.72
4.67
5.07
5.03
4.63
3.93
3.01
1.98
1.02
0.29
-0.11
-0.18
-0.05
0.07
-0.01
-0.33
-0.85
-1.41
-1.88
-2.19
-2.40
-2.60
-2.87
-3.27
-3.81
-4.51
-5.40
-6.50
-7.72
-8.84
-9.51
-9.42
-8.36
-6.37
-3.71
-0.80
1.96
4.24
5.87
6.82
7.16
6.97
6.35
5.45
4.45
3.51
2.80
2.39
2.25
2.29
2.34
2.29
2.07
1.66
1.08
0.39
-0.36
-1.11
-1.79
-2.37
-2.84
-3.25
-3.68
-4.21
-4.91
-5.81
-6.85
-7.92
-8.81
-9.29
-9.08
-7.99
-5.99
-3.22
-0.08
2.99
5.60
7.51
8.66
9.17
9.20
8.90
8.36
7.65
6.81
5.94
5.14
4.50
4.07
3.87
3.88
4.05
4.31
4.59
4.76
4.76
4.59
4.27
3.88
3.49
3.12
2.72
2.20
1.51
0.57
-0.62
-1.99
-3.43
-4.75
-5.71
-6.05
-5.60
-4.30
-2.29
0.13
2.60
4.78
6.41
7.36
7.66
7.42
6.84
6.11
5.38
4.73
4.20
3.84
3.70
3.82
4.17
4.63
5.00
5.07
4.76
4.12
3.30
2.49
1.76
1.09
0.42
-0.30
-1.07
-1.88
-2.75
-3.72
-4.88
-6.25
-7.70
-8.99
-9.81
-9.92
-9.19
-7.68
-5.61
-3.26
-0.93
1.11
2.63
3.50
3.69
3.29
2.47
1.44
0.40
-0.52
-1.22
-1.64
-1.80
-1.68
-1.36
-0.93
-0.53
-0.30
-0.30
-0.54
-0.93
-1.38
-1.84
-2.33
-2.98
-3.91
-5.21
-6.86
-8.69
-10.44
-11.81
-12.53
-12.43
-11.43
-9.60
-7.15
-4.37
-1.64
0.71
2.42
3.43
3.83
3.79
3.46
2.92
2.23
1.42
0.58
-0.09
-0.41
-0.26
0.36
1.30
2.30
3.11
3.57
3.65
3.43
3.06
2.65
2.27
1.87
1.35
0.61
-0.41
-1.70
-3.14
-4.62
-5.98
-7.03
-7.61
-7.58
-6.87
-5.50
-3.64
-1.54
0.49
2.23
3.51
4.33
4.74
4.82
4.65
4.27
3.73
3.14
2.66
2.45
2.60
3.07
3.68
4.20
4.46
4.41
4.13
3.78
3.51
3.36
3.28
3.18
2.90
2.37
1.56
0.51
-0.71
-2.01
-3.20
-4.08
-4.40
-4.00
-2.82
-1.03
1.08
3.16
4.88
6.05
6.62
6.66
6.30
5.63
4.78
3.86
2.99
2.31
1.87
1.72
1.80
2.03
2.30
2.48
2.47
2.21
1.70
1.03
0.29
-0.42
-1.07
-1.70
-2.42
-3.28
-4.30
-5.40
-6.46
-7.35
-7.94
-8.09
-7.71
-6.70
-5.07
-2.97
-0.59
1.78
3.89
5.53
6.55
6.86
6.45
5.40
3.86
2.11
0.47
-0.81
-1.55
-1.73
-1.45
-0.91
-0.32
0.11
0.27
0.10
-0.36
-1.07
-1.95
-2.93
-3.96
-5.01
-6.11
-7.31
-8.66
-10.16
-11.70
-13.01
-13.77
-13.68
-12.56
-10.48
-7.71
-4.64
-1.69
0.81
2.68
3.81
4.21
3.94
3.11
1.89
0.56
-0.61
-1.38
-1.62
-1.38
-0.85
-0.28
0.09
0.13
-0.17
-0.70
-1.29
-1.82
-2.20
-2.40
-2.52
-2.69
-3.08
-3.83
-4.99
-6.46
-8.02
-9.37
-10.23
-10.39
-9.77
-8.39
-6.37
-3.90
-1.27
1.23
3.33
4.83
5.73
6.14
6.24
6.18
5.99
5.65
5.15
4.55
4.01
3.65
3.55
3.62
3.69
3.65
3.44
3.12
2.74
2.32
1.79
1.07
0.13
-0.97
-2.09
-3.13
-4.05
-4.85
-5.55
-6.07
-6.23
-5.77
-4.50
-2.36
0.51
3.81
7.11
10.07
12.40
13.96
14.73
14.77
14.19
13.13
11.81
10.43
9.21
8.31
7.79
7.65
7.78
8.01
8.18
8.12
7.73
6.98
5.92
4.69
3.46
2.40
1.57
0.91
0.27
-0.51
-1.56
-2.89
-4.36
-5.76
-6.83
-7.28
-6.95
-5.77
-3.81
-1.29
1.47
4.09
6.26
7.75
8.48
8.46
7.78
6.59
5.08
3.46
1.98
0.85
0.19
-0.00
0.13
0.33
0.36
0.04
-0.72
-1.83
-3.16
-4.49
-5.65
-6.54
-7.13
-7.53
-7.88
-8.34
-9.02
-9.91
-10.92
-11.83
-12.36
-12.28
-11.40
-9.71
-7.37
-4.68
-2.04
0.18
1.66
2.28
2.05
1.16
-0.11
-1.46
-2.60
-3.36
-3.62
-3.36
-2.60
-1.47
-0.19
0.98
1.74
1.94
1.58
0.86
0.03
-0.69
-1.25
-1.73
-2.26
-2.96
-3.81
-4.75
-5.69
-6.55
-7.25
-7.69
-7.72
-7.17
-5.98
-4.17
-1.97
0.30
2.29
3.73
4.50
4.70
4.53
4.21
3.87
3.51
3.02
2.33
1.42
0.43
-0.50
-1.26
-1.86
-2.33
-2.73
-3.00
-3.06
-2.82
-2.31
-1.70
-1.26
-1.19
-1.59
-2.37
-3.35
-4.39
-5.35
-6.20
-6.92
-7.41
-7.51
-7.03
-5.85
-4.01
-1.69
0.85
3.33
5.52
7.30
8.61
9.40
9.65
9.34
8.52
7.28
5.78
4.16
2.56
1.07
-0.25
-1.31
-2.04
-2.35
-2.21
-1.65
-0.81
0.11
0.89
1.36
1.44
1.10
0.38
-0.72
-2.15
-3.85
-5.65
-7.34
-8.67
-9.42
-9.48
-8.82
-7.52
-5.71
-3.57
-1.28
0.97
2.96
4.55
5.59
6.06
6.05
5.75
5.37
5.07
4.93
4.85
4.70
4.33
3.67
2.73
1.62
0.42
-0.76
-1.84
-2.71
-3.18
-3.07
-2.27
-0.85
0.91
2.62
3.86
4.41
4.24
3.55
2.65
1.86
1.42
1.43
1.91
2.76
3.83
4.90
5.75
6.17
6.07
5.45
4.50
3.45
2.59
2.12
2.14
2.60
3.32
4.10
4.73
5.05
4.99
4.55
3.83
2.97
2.15
1.55
1.22
1.13
1.16
1.13
0.89
0.32
-0.62
-1.90
-3.39
-4.90
-6.16
-6.84
-6.67
-5.53
-3.51
-0.92
1.82
4.33
6.35
7.85
8.92
9.66
10.14
10.31
10.12
9.60
8.88
8.17
7.72
7.67
8.02
8.70
9.53
10.35
11.01
11.39
11.35
10.82
9.71
8.00
5.76
3.10
0.24
-2.59
-5.10
-7.05
-8.24
-8.56
-7.99
-6.57
-4.45
-1.85
0.93
3.52
5.54
6.71
6.94
6.32
5.08
3.53
1.96
0.57
-0.50
-1.20
-1.53
-1.58
-1.53
-1.58
-1.96
-2.76
-3.89
-5.15
-6.34
-7.32
-8.12
-8.88
-9.73
-10.74
-11.88
-13.07
-14.23
-15.33
-16.31
-17.07
-17.42
-17.14
-16.08
-14.23
-11.80
-9.10
-6.50
-4.24
-2.48
-1.25
-0.55
-0.33
-0.57
-1.19
-2.08
-3.04
-3.92
-4.56
-4.93
-5.07
-5.09
-5.07
-5.08
-5.10
-5.09
-5.00
-4.84
-4.69
-4.71
-5.07
-5.87
-7.12
-8.73
-10.44
-11.91
-12.73
-12.60
-11.37
-9.18
-6.37
-3.42
-0.81
1.13
2.32
2.86
3.00
3.00
3.04
3.21
3.47
3.73
3.93
4.01
3.98
3.86
3.66
3.32
2.77
1.92
0.80
-0.50
-1.76
-2.80
-3.53
-4.00
-4.39
-4.92
-5.76
-6.94
-8.35
-9.82
-11.14
-12.14
-12.62
-12.41
-11.37
-9.45
-6.79
-3.69
-0.56
2.21
4.42
6.00
7.03
7.62
7.83
7.73
7.40
6.94
6.46
6.01
5.53
4.90
3.99
2.79
1.41
0.06
-1.04
-1.77
-2.16
-2.37
-2.56
-2.81
-3.13
-3.46
-3.73
-3.96
-4.21
-4.52
-4.91
-5.37
-5.87
-6.46
-7.19
-8.08
-8.98
-9.56
-9.38
-8.11
-5.64
-2.26
1.53
5.10
8.01
10.04
11.22
11.71
11.69
11.31
10.66
9.85
9.02
8.31
7.80
7.49
7.32
7.17
6.97
6.67
6.29
5.84
5.35
4.90
4.55
4.37
4.42
4.64
4.90
4.98
4.68
3.84
2.42
0.49
-1.77
-4.04
-6.00
-7.27
-7.56
-6.75
-4.99
-2.59
-0.02
2.31
4.11
5.25
5.72
5.60
4.98
3.99
2.80
1.62
0.64
-0.00
-0.25
-0.13
0.24
0.73
1.17
1.40
1.29
0.77
-0.09
-1.14
-2.14
-2.91
-3.36
-3.58
-3.66
-3.75
-3.97
-4.35
-4.91
-5.64
-6.44
-7.16
-7.57
-7.41
-6.43
-4.55
-1.87
1.32
4.60
7.57
9.93
11.54
12.40
12.58
12.20
11.39
10.31
9.15
8.15
7.53
7.40
7.73
8.31
8.82
9.03
8.80
8.15
7.25
6.29
5.38
4.61
3.93
3.22
2.37
1.24
-0.26
-2.16
-4.46
-7.06
-9.75
-12.22
-14.05
-14.84
-14.30
-12.36
-9.24
-5.39
-1.41
2.16
4.96
6.86
7.94
8.37
8.36
8.09
7.68
7.22
6.77
6.38
6.10
6.01
6.15
6.53
7.11
7.73
8.25
8.49
8.36
7.84
6.98
5.88
4.62
3.28
1.92
0.61
-0.61
-1.77
-2.98
-4.40
-6.16
-8.24
-10.39
-12.19
-13.20
-13.06
-11.67
-9.18
-5.96
-2.49
0.75
3.41
5.31
6.44
6.93
6.94
6.61
6.02
5.21
4.28
3.42
2.83
2.71
3.07
3.77
4.56
5.19
5.49
5.46
5.14
4.64
4.02
3.34
2.68
2.13
1.72
1.42
1.05
0.40
-0.76
-2.55
-4.88
-7.46
-9.88
-11.69
-12.50
-12.12
-10.55
-8.02
-4.94
-1.77
1.05
3.25
4.68
5.40
5.57
5.40
5.10
4.79
4.59
4.57
4.74
5.11
5.63
6.18
6.64
6.94
7.07
7.08
7.04
6.92
6.67
6.19
5.42
4.41
3.24
2.03
0.87
-0.24
-1.31
-2.39
-3.51
-4.74
-6.16
-7.75
-9.37
-10.63
-11.06
-10.25
-8.06
-4.75
-0.89
2.80
5.74
7.63
8.46
8.46
7.94
7.15
6.29
5.48
4.78
4.28
4.03
4.09
4.43
4.97
5.56
6.02
6.23
6.17
5.91
5.58
5.25
4.91
4.47
3.87
3.05
2.05
0.95
-0.20
-1.42
-2.78
-4.38
-6.26
-8.34
-10.41
-12.17
-13.30
-13.54
-12.79
-11.14
-8.86
-6.36
-4.06
-2.24
-1.00
-0.31
-0.05
-0.12
-0.47
-1.00
-1.63
-2.23
-2.68
-2.89
-2.89
-2.72
-2.45
-2.16
-1.89
-1.71
-1.70
-1.87
-2.21
-2.63
-3.05
-3.42
-3.78
-4.15
-4.56
-4.99
-5.41
-5.84
-6.35
-7.03
-7.88
-8.75
-9.39
-9.48
-8.79
-7.24
-4.90
-2.04
1.04
4.00
6.60
8.67
10.16
11.13
11.67
11.86
11.76
11.38
10.78
10.11
9.58
9.34
9.49
9.94
10.52
11.02
11.32
11.43
11.42
11.35
11.15
10.71
9.92
8.82
7.52
6.21
4.97
3.76
2.43
0.82
-1.12
-3.28
-5.38
-7.10
-8.13
-8.28
-7.52
-5.95
-3.89
-1.69
0.25
1.61
2.23
2.13
1.47
0.50
-0.53
-1.37
-1.88
-1.97
-1.68
-1.12
-0.44
0.24
0.81
1.24
1.50
1.59
1.46
1.12
0.60
-0.00
-0.58
-1.08
-1.57
-2.19
-3.12
-4.41
-6.00
-7.66
-9.17
-10.35
-11.13
-11.48
-11.40
-10.81
-9.64
-7.86
-5.60
-3.19
-1.06
0.43
1.08
0.91
0.18
-0.84
-1.91
-2.92
-3.88
-4.79
-5.61
-6.16
-6.30
-5.95
-5.18
-4.23
-3.38
-2.84
-2.66
-2.75
-2.93
-3.07
-3.09
-3.03
-3.01
-3.13
-3.51
-4.19
-5.13
-6.26
-7.44
-8.47
-9.10
-9.12
-8.36
-6.85
-4.77
-2.44
-0.20
1.63
2.92
3.67
3.97
3.97
3.75
3.32
2.70
1.91
1.09
0.39
-0.02
-0.10
0.09
0.42
0.72
0.87
0.82
0.57
0.15
-0.38
-0.96
-1.49
-1.87
-2.08
-2.16
-2.30
-2.67
-3.38
-4.40
-5.48
-6.28
-6.53
-6.04
-4.81
-2.99
-0.78
1.56
3.75
5.51
6.63
7.01
6.71
5.97
5.07
4.26
3.65
3.24
2.97
2.80
2.76
2.93
3.35
3.96
4.58
5.03
5.16
5.00
4.68
4.35
4.10
3.86
3.50
2.86
1.91
0.72
-0.53
-1.64
-2.49
-3.02
-3.18
-2.95
-2.26
-1.11
0.39
2.00
3.45
4.49
5.04
5.11
4.80
4.19
3.32
2.20
0.94
-0.33
-1.42
-2.16
-2.48
-2.42
-2.08
-1.59
-1.07
-0.61
-0.27
-0.11
-0.09
-0.19
-0.36
-0.55
-0.82
-1.20
-1.76
-2.53
-3.46
-4.49
-5.49
-6.34
-6.86
-6.87
-6.21
-4.80
-2.74
-0.30
2.15
4.26
5.82
6.78
7.16
7.00
6.30
5.06
3.36
1.45
-0.36
-1.72
-2.45
-2.55
-2.24
-1.80
-1.48
-1.39
-1.53
-1.79
-2.08
-2.38
-2.70
-3.12
-3.68
-4.41
-5.26
-6.18
-7.13
-8.08
-9.01
-9.83
-10.41
-10.53
-10.01
-8.77
-6.91
-4.67
-2.41
-0.46
0.96
1.77
1.95
1.59
0.75
-0.49
-2.05
-3.79
-5.53
-7.10
-8.35
-9.25
-9.88
-10.40
-11.01
-11.81
-12.88
-14.19
-15.71
-17.37
-19.13
-20.93
-22.66
-24.27
-25.74
-27.17
-28.74
-30.55
-32.56
-34.40
-35.57
-35.50
-33.75
-30.18
-24.95
-18.43
-11.07
-3.34
4.38
11.72
18.37
24.06
28.63
31.98
34.18
35.35
35.68
35.39
34.67
33.76
32.83
32.00
31.27
30.52
29.59
28.34
26.76
24.91
22.91
20.90
18.94
17.03
15.12
13.14
11.06
8.88
6.68
4.58
2.75
1.36
0.57
0.44
0.96
2.08
3.63
5.46
7.33
8.99
10.19
10.74
10.59
9.79
8.51
7.00
5.46
4.03
2.79
1.77
0.97
0.38
-0.04
-0.37
-0.70
-1.13
-1.74
-2.48
-3.30
-4.08
-4.80
-5.45
-6.11
-6.84
-7.68
-8.60
-9.62
-10.67
-11.69
-12.50
-12.86
-12.51
-11.26
-9.10
-6.21
-2.93
0.33
3.17
5.33
6.62
7.04
6.67
5.72
4.45
3.08
1.81
0.73
-0.10
-0.64
-0.84
-0.69
-0.22
0.44
1.11
1.62
1.88
1.89
1.70
1.36
0.85
0.13
-0.86
-2.11
-3.61
-5.32
-7.21
-9.22
-11.23
-13.02
-14.26
-14.60
-13.83
-11.93
-9.09
-5.62
-1.91
1.71
4.93
7.51
9.23
9.93
9.62
8.45
6.74
4.91
3.37
2.40
2.09
2.33
2.89
3.49
3.89
3.94
3.58
2.79
1.64
0.20
-1.36
-2.81
-3.87
-4.31
-4.09
-3.43
-2.80
-2.67
-3.37
-4.88
-6.82
-8.60
-9.65
-9.57
-8.29
-6.02
-3.08
0.14
3.28
6.01
8.08
9.29
9.56
8.96
7.69
6.00
4.17
2.43
0.97
-0.10
-0.68
-0.72
-0.24
0.65
1.82
3.07
4.21
5.05
5.41
5.17
4.24
2.66
0.59
-1.67
-3.77
-5.40
-6.40
-6.79
-6.75
-6.55
-6.43
-6.49
-6.63
-6.64
-6.20
-5.07
-3.19
-0.70
2.04
4.61
6.60
7.81
8.23
7.99
7.31
6.35
5.26
4.10
2.92
1.81
0.87
0.17
-0.26
-0.44
-0.45
-0.37
-0.26
-0.17
-0.16
-0.27
-0.58
-1.15
-1.95
-2.87
-3.74
-4.43
-4.86
-5.10
-5.32
-5.63
-6.05
-6.45
-6.62
-6.36
-5.56
-4.18
-2.30
-0.07
2.33
4.65
6.60
7.94
8.49
8.25
7.38
6.15
4.83
3.64
2.70
2.02
1.62
1.50
1.61
1.92
2.30
2.57
2.54
2.09
1.23
0.10
-1.05
-2.02
-2.73
-3.23
-3.67
-4.19
-4.86
-5.69
-6.61
-7.53
-8.34
-8.89
-8.98
-8.43
-7.11
-5.01
-2.30
0.72
3.72
6.35
8.34
9.57
10.05
9.88
9.27
8.45
7.64
6.99
6.58
6.42
6.45
6.59
6.77
6.93
7.06
7.13
7.15
7.11
7.00
6.81
6.52
6.13
5.64
5.07
4.41
3.59
2.55
1.26
-0.24
-1.80
-3.19
-4.18
-4.59
-4.33
-3.45
-2.08
-0.40
1.38
3.09
4.50
5.42
5.71
5.31
4.31
2.84
1.11
-0.70
-2.45
-4.01
-5.30
-6.24
-6.79
-7.00
-7.03
-7.06
-7.25
-7.62
-8.07
-8.38
-8.42
-8.18
-7.85
-7.68
-7.85
-8.41
-9.20
-10.03
-10.66
-10.96
-10.87
-10.31
-9.25
-7.61
-5.44
-2.89
-0.25
2.12
3.93
5.05
5.48
5.42
5.08
4.63
4.18
3.73
3.25
2.72
2.15
1.65
1.29
1.14
1.19
1.34
1.44
1.37
1.04
0.47
-0.30
-1.18
-2.13
-3.16
-4.28
-5.52
-6.84
-8.18
-9.38
-10.22
-10.46
-9.93
-8.58
-6.52
-4.03
-1.41
1.05
3.16
4.87
6.18
7.10
7.62
7.70
7.31
6.51
5.44
4.36
3.50
3.00
2.88
3.01
3.20
3.27
3.09
2.62
1.93
1.11
0.23
-0.63
-1.45
-2.22
-2.89
-3.46
-3.91
-4.29
-4.66
-5.11
-5.64
-6.16
-6.46
-6.28
-5.42
-3.84
-1.71
0.68
3.01
5.03
6.63
7.78
8.57
9.02
9.14
8.91
8.31
7.43
6.46
5.62
5.06
4.84
4.90
5.14
5.44
5.73
5.98
6.11
6.07
5.80
5.28
4.60
3.91
3.31
2.80
2.28
1.56
0.51
-0.90
-2.53
-4.15
-5.44
-6.11
-5.98
-5.01
-3.36
-1.34
0.62
2.09
2.79
2.64
1.79
0.53
-0.82
-2.01
-2.94
-3.64
-4.12
-4.38
-4.37
-4.04
-3.43
-2.71
-2.12
-1.87
-2.07
-2.64
-3.39
-4.12
-4.66
-4.98
-5.15
-5.23
-5.32
-5.48
-5.76
-6.17
-6.71
-7.29
-7.73
-7.81
-7.28
-6.00
-3.97
-1.37
1.48
4.21
6.52
8.21
9.29
9.81
9.89
9.61
9.01
8.16
7.18
6.21
5.37
4.70
4.15
3.62
3.04
2.46
1.93
1.49
1.09
0.63
0.01
-0.74
-1.47
-2.02
-2.31
-2.43
-2.60
-3.03
-3.80
-4.78
-5.74
-6.43
-6.64
-6.27
-5.31
-3.78
-1.78
0.50
2.79
4.77
6.19
6.95
7.13
6.87
6.33
5.56
4.55
3.32
1.97
0.72
-0.18
-0.55
-0.36
0.21
0.90
1.45
1.72
1.71
1.51
1.24
0.97
0.71
0.44
0.14
-0.18
-0.48
-0.71
-0.88
-1.05
-1.27
-1.57
-1.89
-2.08
-1.97
-1.42
-0.38
1.08
2.77
4.45
5.88
6.87
7.32
7.27
6.85
6.24
5.63
5.10
4.67
4.31
3.99
3.79
3.77
3.99
4.42
4.91
5.26
5.29
4.95
4.31
3.52
2.77
2.14
1.66
1.26
0.92
0.61
0.32
0.03
-0.31
-0.72
-1.16
-1.53
-1.62
-1.26
-0.32
1.12
2.84
4.50
5.80
6.53
6.66
6.26
5.47
4.40
3.14
1.79
0.47
-0.69
-1.57
-2.11
-2.37
-2.47
-2.53
-2.66
-2.92
-3.28
-3.71
-4.16
-4.60
-5.00
-5.35
-5.71
-6.15
-6.71
-7.41
-8.20
-8.92
-9.42
-9.52
-9.11
-8.12
-6.59
-4.70
-2.70
-0.93
0.39
1.14
1.38
1.27
0.97
0.55
-0.01
-0.72
-1.55
-2.37
-3.04
-3.43
-3.54
-3.48
-3.38
-3.37
-3.49
-3.72
-4.01
-4.30
-4.57
-4.84
-5.17
-5.59
-6.15
-6.84
-7.65
-8.50
-9.28
-9.86
-10.06
-9.72
-8.73
-7.08
-4.88
-2.37
0.18
2.43
4.13
5.12
5.43
5.19
4.65
4.08
3.63
3.36
3.20
3.10
2.98
2.87
2.75
2.60
2.37
1.97
1.36
0.52
-0.44
-1.42
-2.30
-3.01
-3.56
-4.05
-4.67
-5.54
-6.74
-8.15
-9.56
-10.63
-11.09
-10.76
-9.58
-7.67
-5.25
-2.59
0.05
2.43
4.38
5.82
6.69
7.02
6.89
6.39
5.64
4.75
3.86
3.08
2.50
2.19
2.12
2.22
2.32
2.29
2.04
1.60
1.06
0.54
0.12
-0.26
-0.66
-1.17
-1.79
-2.50
-3.27
-4.10
-5.01
-5.98
-6.86
-7.36
-7.18
-6.17
-4.37
-2.09
0.33
2.51
4.26
5.56
6.41
6.86
6.94
6.68
6.18
5.61
5.13
4.89
4.90
5.07
5.30
5.48
5.58
5.63
5.64
5.62
5.56
5.42
5.17
4.76
4.20
3.48
2.63
1.67
0.61
-0.53
-1.73
-2.92
-3.99
-4.81
-5.25
-5.18
-4.57
-3.47
-2.01
-0.41
1.09
2.25
2.89
2.95
2.47
1.59
0.50
-0.62
-1.63
-2.46
-3.10
-3.56
-3.82
-3.85
-3.64
-3.22
-2.71
-2.26
-2.04
-2.13
-2.55
-3.20
-3.94
-4.65
-5.27
-5.80
-6.30
-6.80
-7.34
-7.92
-8.55
-9.19
-9.73
-9.98
-9.69
-8.65
-6.82
-4.32
-1.50
1.25
3.57
5.26
6.31
6.84
6.99
6.93
6.77
6.57
6.38
6.22
6.06
5.87
5.65
5.41
5.16
4.89
4.55
4.03
3.24
2.15
0.87
-0.42
-1.49
-2.20
-2.53
-2.63
-2.71
-2.94
-3.43
-4.17
-5.10
-6.11
-7.08
-7.86
-8.21
-7.91
-6.78
-4.81
-2.18
0.73
3.49
5.73
7.26
8.09
8.34
8.20
7.82
7.29
6.66
5.97
5.29
4.71
4.34
4.26
4.43
4.76
5.10
5.33
5.37
5.27
5.08
4.88
4.69
4.43
4.01
3.40
2.66
1.94
1.38
1.00
0.70
0.30
-0.39
-1.42
-2.66
-3.82
-4.52
-4.46
-3.47
-1.61
0.84
3.48
5.86
7.63
8.60
8.81
8.40
7.62
6.65
5.60
4.51
3.46
2.58
2.04
1.97
2.38
3.07
3.75
4.11
4.00
3.49
2.77
2.05
1.44
0.93
0.42
-0.16
-0.73
-1.16
-1.35
-1.33
-1.31
-1.57
-2.32
-3.56
-5.08
-6.46
-7.30
-7.29
-6.40
-4.82
-2.87
-0.91
0.76
1.99
2.69
2.90
2.64
2.00
1.05
-0.06
-1.19
-2.14
-2.75
-2.93
-2.71
-2.18
-1.53
-0.93
-0.50
-0.27
-0.22
-0.29
-0.41
-0.57
-0.77
-1.03
-1.36
-1.77
-2.26
-2.81
-3.42
-4.12
-4.94
-5.92
-7.01
-8.04
-8.68
-8.63
-7.67
-5.81
-3.37
-0.81
1.38
2.85
3.49
3.39
2.83
2.10
1.44
1.00
0.78
0.75
0.80
0.88
0.99
1.13
1.33
1.56
1.79
1.97
2.10
2.21
2.34
2.46
2.49
2.31
1.83
1.02
-0.06
-1.30
-2.59
-3.88
-5.14
-6.33
-7.39
-8.18
-8.55
-8.34
-7.46
-5.91
-3.80
-1.35
1.13
3.33
4.97
5.93
6.24
6.05
5.55
4.92
4.25
3.59
2.98
2.49
2.21
2.20
2.41
2.71
2.93
2.98
2.81
2.47
2.02
1.45
0.72
-0.18
-1.23
-2.29
-3.23
-3.93
-4.43
-4.87
-5.43
-6.19
-7.06
-7.74
-7.85
-7.07
-5.31
-2.76
0.14
2.91
5.17
6.79
7.80
8.37
8.62
8.58
8.28
7.79
7.27
6.91
6.85
7.12
7.61
8.12
8.48
8.57
8.37
7.91
7.28
6.56
5.85
5.24
4.81
4.59
4.49
4.33
3.90
3.05
1.76
0.16
-1.50
-2.91
-3.80
-3.96
-3.34
-2.01
-0.20
1.79
3.61
4.99
5.77
5.93
5.54
4.72
3.55
2.14
0.58
-1.04
-2.59
-3.91
-4.88
-5.45
-5.64
-5.54
-5.37
-5.26
-5.33
-5.53
-5.78
-5.97
-6.09
-6.23
-6.51
-7.04
-7.81
-8.71
-9.60
-10.38
-11.01
-11.48
-11.73
-11.65
-11.06
-9.83
-8.00
-5.78
-3.51
-1.53
-0.04
0.92
1.49
1.79
1.91
1.82
1.49
0.95
0.36
-0.07
-0.20
0.03
0.47
0.93
1.21
1.21
0.93
0.43
-0.21
-0.93
-1.67
-2.38
-3.01
-3.54
-3.96
-4.32
-4.66
-5.03
-5.43
-5.83
-6.13
-6.17
-5.79
-4.86
-3.35
-1.33
0.98
3.27
5.24
6.66
7.42
7.57
7.26
6.66
5.94
5.17
4.35
3.50
2.64
1.88
1.36
1.17
1.29
1.58
1.81
1.73
1.20
0.18
-1.17
-2.63
-3.92
-4.85
-5.37
-5.56
-5.58
-5.66
-5.92
-6.40
-7.06
-7.71
-8.15
-8.15
-7.53
-6.25
-4.37
-2.06
0.45
2.92
5.16
7.00
8.30
9.00
9.16
8.92
8.53
8.21
8.06
7.99
7.84
7.44
6.76
5.89
4.98
4.16
3.47
2.86
2.27
1.70
1.22
0.92
0.86
1.03
1.34
1.69
1.97
2.13
2.14
1.99
1.71
1.32
0.95
0.75
0.89
1.49
2.54
3.88
5.24
6.27
6.72
6.43
5.43
3.84
1.88
-0.21
-2.19
-3.84
-5.02
-5.64
-5.76
-5.50
-5.04
-4.54
-4.09
-3.71
-3.35
-2.96
-2.58
-2.28
-2.15
-2.29
-2.71
-3.39
-4.22
-5.13
-6.04
-6.94
-7.83
-8.74
-9.69
-10.64
-11.47
-12.01
-12.12
-11.68
-10.75
-9.50
-8.21
-7.19
-6.68
-6.81
-7.53
-8.72
-10.21
-11.88
-13.67
-15.61
-17.71
-19.97
-22.25
-24.37
-26.11
-27.25
-27.68
-27.31
-26.05
-23.84
-20.67
-16.59
-11.78
-6.50
-1.02
4.44
9.71
14.66
19.14
22.94
25.81
27.55
28.11
27.58
26.24
24.48
22.67
21.14
20.09
19.58
19.53
19.75
19.95
19.84
19.26
18.16
16.72
15.14
13.67
12.38
11.27
10.24
9.21
8.20
7.26
6.47
5.84
5.30
4.78
4.21
3.61
3.02
2.44
1.87
1.23
0.46
-0.43
-1.35
-2.17
-2.79
-3.24
-3.64
-4.19
-5.01
-6.09
-7.28
-8.30
-8.85
-8.70
-7.73
-6.00
-3.71
-1.20
1.13
2.91
3.93
4.22
4.01
3.63
3.37
3.34
3.49
3.65
3.68
3.57
3.39
3.28
3.27
3.35
3.42
3.42
3.33
3.21
3.08
2.94
2.69
2.25
1.60
0.78
-0.07
-0.85
-1.52
-2.14
-2.81
-3.63
-4.64
-5.79
-6.97
-8.04
-8.81
-9.08
-8.67
-7.54
-5.77
-3.66
-1.60
0.06
1.08
1.43
1.26
0.78
0.22
-0.25
-0.53
-0.63
-0.59
-0.48
-0.35
-0.18
0.13
0.65
1.36
2.11
2.67
2.83
2.52
1.86
1.10
0.42
-0.10
-0.54
-1.08
-1.80
-2.70
-3.69
-4.67
-5.63
-6.60
-7.60
-8.53
-9.21
-9.37
-8.83
-7.58
-5.81
-3.86
-2.09
-0.73
0.13
0.56
0.73
0.77
0.78
0.80
0.83
0.85
0.88
0.96
1.07
1.24
1.42
1.56
1.64
1.62
1.50
1.28
0.94
0.48
-0.10
-0.72
-1.30
-1.72
-1.89
-1.83
-1.60
-1.33
-1.15
-1.10
-1.13
-1.12
-0.82
0.01
1.53
3.73
6.39
9.08
11.34
12.74
13.03
12.19
10.29
7.53
4.14
0.37
-3.44
-6.91
-9.67
-11.45
-12.18
-12.06
-11.48
-10.86
-10.57
-10.72
-11.21
-11.75
-12.01
-11.73
-10.80
-9.31
-7.43
-5.44
-3.65
-2.38
-1.91
-2.39
-3.74
-5.65
-7.60
-8.97
-9.22
-8.02
-5.35
-1.42
3.30
8.32
13.14
17.42
20.94
23.59
25.30
25.97
25.47
23.74
20.83
17.00
12.69
8.43
4.73
1.95
0.25
-0.43
-0.29
0.36
1.17
1.86
2.25
2.34
2.26
2.20
2.27
2.42
2.45
2.11
1.23
-0.23
-2.13
-4.24
-6.30
-8.05
-9.24
-9.64
-9.11
-7.62
-5.37
-2.69
0.05
2.58
4.83
6.94
9.12
11.51
14.09
16.64
18.79
20.12
20.34
19.34
17.33
14.69
11.93
9.42
7.36
5.71
4.29
2.95
1.64
0.42
-0.63
-1.46
-2.10
-2.59
-3.00
-3.32
-3.54
-3.66
-3.70
-3.69
-3.62
-3.40
-2.92
-2.07
-0.82
0.74
2.42
4.03
5.32
6.18
6.53
6.39
5.86
5.08
4.24
3.50
2.95
2.64
2.52
2.53
2.58
2.58
2.51
2.36
2.16
1.93
1.74
1.57
1.41
1.16
0.71
-0.02
-1.06
-2.35
-3.81
-5.32
-6.80
-8.21
-9.51
-10.62
-11.38
-11.62
-11.16
-9.94
-8.08
-5.79
-3.38
-1.15
0.71
2.06
2.88
3.18
2.97
2.31
1.30
0.09
-1.15
-2.26
-3.12
-3.68
-3.99
-4.13
-4.26
-4.51
-4.96
-5.59
-6.29
-6.93
-7.39
-7.64
-7.76
-7.85
-8.02
-8.30
-8.69
-9.17
-9.75
-10.40
-11.08
-11.69
-12.04
-11.91
-11.11
-9.57
-7.37
-4.74
-2.02
0.44
2.41
3.81
4.74
5.35
5.79
6.09
6.19
6.01
5.50
4.73
3.81
2.91
2.14
1.57
1.16
0.84
0.50
0.05
-0.56
-1.32
-2.17
-3.01
-3.77
-4.43
-4.98
-5.48
-5.98
-6.49
-7.01
-7.56
-8.09
-8.54
-8.77
-8.61
-7.90
-6.50
-4.41
-1.79
1.08
3.86
6.25
8.06
9.31
10.13
10.73
11.23
11.64
11.90
11.91
11.60
11.08
10.47
9.91
9.48
9.14
8.83
8.53
8.32
8.29
8.52
8.91
9.25
9.28
8.80
7.82
6.53
5.18
3.99
3.03
2.20
1.30
0.18
-1.21
-2.85
-4.57
-6.15
-7.31
-7.80
-7.42
-6.10
-4.00
-1.43
1.19
3.44
5.06
5.97
6.27
6.14
5.73
5.16
4.47
3.69
2.88
2.14
1.54
1.15
0.93
0.78
0.57
0.21
-0.32
-0.99
-1.74
-2.54
-3.36
-4.16
-4.91
-5.59
-6.19
-6.73
-7.22
-7.71
-8.22
-8.73
-9.24
-9.75
-10.26
-10.71
-11.00
-10.99
-10.48
-9.33
-7.50
-5.09
-2.34
0.42
2.85
4.70
5.91
6.53
6.74
6.68
6.48
6.14
5.68
5.11
4.50
3.90
3.34
2.78
2.19
1.58
1.01
0.57
0.31
0.16
0.04
-0.20
-0.63
-1.24
-1.95
-2.63
-3.19
-3.57
-3.83
-4.08
-4.49
-5.21
-6.31
-7.73
-9.26
-10.56
-11.28
-11.15
-10.03
-7.98
-5.25
-2.20
0.74
3.25
5.12
6.32
6.94
7.13
7.01
6.65
6.05
5.25
4.32
3.44
2.82
2.68
3.11
4.06
5.40
6.94
8.51
9.97
11.23
12.13
12.52
12.29
11.49
10.27
8.90
7.59
6.47
5.50
4.56
3.54
2.38
1.09
-0.31
-1.87
-3.66
-5.83
-8.40
-11.23
-14.01
-16.33
-17.78
-18.15
-17.50
-16.12
-14.48
-12.99
-11.91
-11.23
-10.80
-10.42
-9.98
-9.46
-8.95
-8.53
-8.20
-7.92
-7.64
-7.31
-6.91
-6.47
-6.00
-5.49
-4.90
-4.14
-3.13
-1.84
-0.32
1.25
2.59
3.46
3.72
3.44
2.83
2.16
1.61
1.22
0.87
0.38
-0.37
-1.39
-2.54
-3.49
-3.89
-3.41
-1.95
0.38
3.16
5.88
8.01
9.20
9.36
8.64
7.38
5.92
4.58
3.61
3.10
3.05
3.37
3.89
4.45
4.95
5.29
5.46
5.44
5.21
4.76
4.08
3.16
2.06
0.86
-0.29
-1.27
-1.96
-2.37
-2.59
-2.84
-3.36
-4.37
-5.94
-7.93
-10.06
-11.90
-13.06
-13.26
-12.39
-10.50
-7.81
-4.64
-1.28
1.99
4.96
7.45
9.37
10.62
11.20
11.16
10.60
9.68
8.58
7.50
6.71
6.51
7.13
8.71
11.20
14.43
18.18
22.26
26.54
30.86
34.92
38.26
40.34
40.77
39.42
36.52
32.52
27.94
23.23
18.71
14.60
11.06
8.21
6.17
5.02
4.81
5.59
7.36
10.03
13.43
17.34
21.58
26.09
31.05
36.79
43.66
51.84
61.24
71.43
81.80
91.73
100.79
108.81
115.85
122.04
127.52
132.36
136.58
140.27
143.53
146.46
149.18
151.70
154.03
156.19
158.27
160.34
162.42
164.26
165.33
164.92
162.32
157.15
149.40
139.39
127.56
114.14
99.11
82.27
63.66
43.84
23.96
5.50
-10.32
-23.01
-32.97
-41.25
-49.01
-56.95
-65.09
-72.88
-79.61
-84.69
-87.91
-89.36
-89.28
-87.99
-85.88
-83.54
-81.72
-81.32
-83.03
-87.15
-93.38
-100.96
-108.87
-116.23
-122.53
-127.77
-132.29
-136.54
-140.77
-144.85
-148.32
-150.59
-151.30
-150.50
-148.66
-146.42
-144.25
-142.26
-140.19
-137.63
-134.36
-130.50
-126.42
-122.50
-118.83
-115.16
-110.97
-105.79
-99.41
-92.03
-84.16
-76.40
-69.23
-62.89
-57.43
-52.73
-48.72
-45.40
-42.78
-40.81
-39.27
-37.76
-35.82
-33.09
-29.39
-24.86
-19.83
-14.68
-9.78
-5.32
-1.38
2.09
5.16
7.99
10.72
13.58
16.75
20.40
24.52
28.96
33.44
37.58
41.05
43.58
45.05
45.38
44.62
42.81
40.03
36.38
31.93
26.71
20.73
14.10
7.12
0.32
-5.57
-9.87
-12.20
-12.67
-11.90
-10.69
-9.78
-9.50
-9.75
-10.16
-10.29
-9.89
-9.02
-7.93
-6.92
-6.20
-5.86
-5.80
-5.93
-6.20
-6.58
-7.08
-7.71
-8.48
-9.37
-10.40
-11.52
-12.59
-13.45
-13.89
-13.87
-13.55
-13.31
-13.65
-14.98
-17.42
-20.72
-24.28
-27.43
-29.64
-30.71
-30.85
-30.58
-30.48
-30.91
-31.87
-32.98
-33.74
-33.79
-33.20
-32.52
-32.63
-34.37
-38.20
-43.96
-50.91
-57.99
-64.23
-69.11
-72.73
-75.68
-78.78
-82.71
-87.75
-93.53
-98.89
-101.99
-100.75
-93.64
-80.44
-62.84
-44.08
-27.99
-17.51
-13.63
-15.17
-19.55
-24.06
-26.92
-27.65
-26.72
-24.78
-22.14
-18.79
-14.74
-10.30
-6.24
-3.42
-2.42
-3.18
-4.98
-6.74
-7.50
-6.79
-4.83
-2.37
-0.42
0.12
-1.17
-4.19
-8.31
-12.57
-15.90
-17.36
-16.38
-12.84
-7.15
-0.14
7.18
13.92
19.55
24.02
27.69
31.11
34.72
38.69
42.84
46.84
50.35
53.22
55.49
57.32
58.91
60.34
61.59
62.59
63.21
63.41
63.16
62.54
61.66
60.67
59.70
58.79
57.87
56.73
55.14
52.90
50.00
46.57
42.82
38.93
34.86
30.36
25.03
18.44
10.41
1.09
-8.93
-18.78
-27.54
-34.62
-39.96
-44.13
-48.02
-52.60
-58.51
-65.94
-74.53
-83.56
-92.08
-99.16
-103.98
-106.00
-105.05
-101.61
-96.80
-92.16
-89.24
-89.17
-92.27
-97.89
-104.39
-109.19
-109.46
-102.56
-86.57
-60.99
-27.20
11.40
50.17
84.46
111.56
131.14
145.66
159.46
177.06
201.21
231.74
265.48
296.98
320.33
329.82
322.01
297.61
262.10
224.45
194.30
178.40
177.72
187.57
198.52
200.81
188.63
161.92
125.11
84.06
43.44
3.13
-33.21
-61.28
-78.58
-84.99
-81.93
-71.69
-57.49
-42.79
-30.84
-22.41
-17.37
-14.63
-12.68
-10.22
-6.91
-3.42
-0.95
-1.71
-5.56
-12.30
-21.57
-32.79
-45.24
-58.33
-71.71
-81.65
-88.41
-92.14
-93.57
-93.76
-93.71
-94.03
-94.80
-95.50
-95.25
-93.89
-90.89
-86.68
-82.32
-78.94
-77.41
-78.34
-82.15
-88.71
-97.09
-104.09
-105.08
-95.57
-73.43
-40.52
-2.65
32.55
58.72
72.98
76.91
74.69
70.48
66.56
62.96
58.76
53.49
47.86
43.25
40.92
40.94
42.20
43.04
41.90
38.30
32.91
27.19
22.63
20.25
20.09
21.30
22.52
22.49
20.59
17.03
12.71
8.86
6.47
5.89
6.80
8.28
9.23
8.95
7.23
4.54
1.73
-0.34
-1.04
0.02
3.04
8.07
14.73
21.83
27.32
28.74
24.32
13.85
-0.77
-16.13
-28.58
-35.65
-36.89
-33.53
-27.60
-20.83
-14.17
-7.89
-2.14
2.67
5.84
6.76
5.36
2.23
-1.54
-4.71
-6.37
-6.19
-4.39
-1.62
1.40
4.05
5.99
7.17
7.78
8.16
8.67
9.60
11.03
12.74
14.29
15.08
14.62
12.67
9.25
4.79
0.23
-3.02
-3.30
0.67
9.17
21.09
34.01
44.93
51.41
52.47
49.01
43.35
38.27
36.06
37.66
42.38
47.89
51.00
48.69
39.16
22.50
0.74
-22.95
-45.51
-64.15
-77.57
-85.95
-90.39
-92.01
-91.47
-89.06
-85.11
-80.40
-76.10
-73.39
-72.83
-73.93
-75.34
-75.51
-73.43
-69.07
-63.26
-57.20
-51.94
-47.93
-44.87
-41.92
-38.09
-32.54
-24.79
-14.64
-1.96
13.48
31.96
53.61
77.98
103.73
128.78
150.96
168.80
182.09
191.55
198.05
201.78
202.01
197.64
188.05
173.90
157.01
139.71
123.80
109.92
97.50
85.27
72.02
57.16
41.04
24.74
9.71
-2.67
-11.58
-17.01
-19.66
-20.59
-20.59
-19.85
-18.07
-14.69
-9.46
-2.62
5.19
13.22
21.00
28.47
35.95
43.86
52.60
62.51
73.92
86.99
101.35
115.64
127.38
133.33
130.57
117.64
95.29
66.26
34.15
2.11
-28.11
-56.10
-82.11
-106.22
-127.86
-146.04
-159.98
-169.60
-175.59
-179.02
-180.80
-181.25
-180.12
-176.84
-170.93
-162.24
-150.93
-137.27
-121.39
-103.24
-82.89
-60.93
-38.87
-19.06
-4.10
4.08
5.05
0.13
-8.03
-16.46
-22.82
-25.96
-25.94
-23.59
-19.89
-15.75
-11.88
-8.89
-7.24
-7.16
-8.48
-10.56
-12.55
-13.62
-13.32
-11.82
-9.73
-7.81
-6.67
-6.42
-6.77
-7.18
-7.26
-6.91
-6.40
-6.07
-6.18
-6.64
-7.11
-7.18
-6.59
-5.31
-3.56
-1.70
-0.06
1.16
1.90
2.27
2.50
2.87
3.54
4.50
5.53
6.37
6.76
6.66
6.14
5.37
4.47
3.52
2.60
1.83
1.40
1.43
1.95
2.84
3.86
4.81
5.62
6.36
7.21
8.35
9.89
11.81
13.98
16.21
18.39
20.41
22.30
24.10
25.84
27.52
29.06
30.43
31.63
32.84
34.36
36.54
39.68
43.95
49.30
55.46
62.10
68.83
75.38
81.53
87.09
91.97
96.12
99.64
102.78
105.90
109.34
113.33
118.02
123.44
129.69
136.92
145.23
154.50
164.26
173.63
181.52
186.82
188.70
186.74
180.95
171.66
159.38
144.72
128.32
110.91
93.23
75.99
59.73
44.66
30.67
17.37
4.27
-8.96
-22.40
-35.87
-48.99
-61.31
-72.44
-82.13
-90.39
-97.41
-103.56
-109.17
-114.33
-118.91
-122.60
-125.18
-126.70
-127.48
-127.99
-128.53
-129.12
-129.52
-129.50
-129.11
-128.72
-128.91
-130.10
-132.30
-135.08
-137.80
-139.98
-141.47
-142.43
-143.09
-143.48
-143.34
-142.24
-139.86
-136.22
-131.65
-126.64
-121.51
-116.28
-110.67
-104.37
-97.30
-89.68
-81.92
-74.40
-67.25
-60.35
-53.52
-46.75
-40.34
-34.78
-30.47
-27.41
-25.07
-22.54
-18.94
-13.82
-7.29
0.04
7.37
13.98
19.41
23.47
26.09
27.33
27.28
26.12
24.13
21.63
18.93
16.30
13.92
11.97
10.54
9.66
9.20
8.97
8.79
8.57
8.41
8.47
8.92
9.75
10.84
12.01
13.20
14.40
15.68
16.99
18.14
18.86
18.94
18.38
17.43
16.44
15.76
15.58
15.87
16.45
17.03
17.35
17.24
16.69
15.79
14.82
14.08
13.90
14.41
15.51
16.78
17.61
17.38
15.70
12.62
8.62
4.40
0.62
-2.42
-4.75
-6.67
-8.44
-10.14
-11.63
-12.72
-13.39
-13.79
-14.21
-14.87
-15.78
-16.69
-17.22
-17.06
-16.14
-14.65
-12.91
-11.21
-9.65
-8.15
-6.44
-4.32
-1.71
1.27
4.32
7.12
9.43
11.12
12.17
12.65
12.56
11.91
10.63
8.66
5.93
2.48
-1.55
-5.85
-10.01
-13.65
-16.48
-18.45
-19.68
-20.33
-20.52
-20.11
-18.81
-16.34
-12.56
-7.67
-2.12
3.42
8.28
11.94
14.06
14.57
13.66
11.71
9.27
6.86
4.85
3.35
2.23
1.25
0.28
-0.53
-0.80
-0.11
1.73
4.54
7.81
11.01
13.84
16.36
18.83
21.51
24.36
27.07
29.25
30.64
31.32
31.61
31.82
32.05
32.05
31.29
29.24
25.59
20.34
13.76
6.33
-1.44
-9.08
-16.17
-22.39
-27.49
-31.33
-33.83
-35.01
-34.97
-33.90
-32.10
-29.95
-27.79
-25.94
-24.50
-23.46
-22.76
-22.39
-22.49
-23.15
-24.34
-25.81
-27.11
-27.80
-27.63
-26.61
-25.01
-23.16
-21.30
-19.53
-17.89
-16.48
-15.47
-15.04
-15.26
-15.96
-16.71
-16.94
-16.13
-14.05
-10.84
-6.92
-2.84
0.91
4.14
6.82
9.14
11.19
13.03
14.61
15.80
16.48
16.53
15.92
14.61
12.54
9.66
5.96
1.50
-3.57
-9.05
-14.69
-20.31
-25.81
-31.25
-36.71
-42.33
-48.15
-54.13
-60.08
-65.80
-71.10
-75.85
-80.03
-83.63
-86.65
-88.99
-90.45
-90.84
-90.05
-88.19
-85.57
-82.58
-79.48
-76.20
-72.28
-67.07
-59.99
-50.85
-39.98
-28.22
-16.71
-6.57
1.34
6.54
9.03
9.08
7.19
3.89
-0.29
-4.84
-9.22
-12.90
-15.40
-16.42
-15.91
-14.06
-11.23
-7.81
-4.07
-0.25
3.45
6.74
9.28
10.79
11.21
10.74
9.80
8.90
8.51
8.92
10.20
12.23
14.71
17.27
19.54
21.29
22.41
23.00
23.29
23.59
24.16
25.11
26.42
27.90
29.31
30.39
30.93
30.83
30.12
28.95
27.56
26.24
25.22
24.60
24.29
24.03
23.51
22.44
20.73
18.50
16.08
13.84
12.09
11.00
10.56
10.62
11.01
11.59
12.23
12.83
13.31
13.64
13.88
14.12
14.49
15.07
15.80
16.56
17.22
17.73
18.17
18.70
19.44
20.43
21.55
22.57
23.28
23.53
23.43
23.27
23.52
24.63
26.85
30.03
33.60
36.77
38.90
39.75
39.64
39.26
39.30
40.08
41.41
42.73
43.40
42.97
41.18
37.98
33.23
26.65
17.70
5.64
-10.48
-31.73
-59.16
-93.48
-134.51
-180.56
-227.96
-271.21
-303.89
-320.28
-317.11
-294.68
-256.96
-210.43
-162.22
-118.18
-81.59
-52.90
-30.49
-11.84
5.31
22.20
38.93
54.75
68.42
78.61
84.12
84.14
78.50
68.01
54.67
41.51
31.84
28.17
31.30
39.93
51.24
62.03
69.95
74.16
75.23
74.49
73.11
71.67
70.11
68.03
65.17
61.59
57.66
53.81
50.34
47.32
44.68
42.34
40.44
39.30
39.28
40.66
43.39
47.06
51.02
54.52
56.94
57.99
57.65
56.14
53.71
50.48
46.47
41.64
36.14
30.38
25.01
20.72
17.87
16.42
15.83
15.40
14.53
12.97
10.89
8.69
6.83
5.64
5.30
5.77
6.93
8.56
10.36
11.96
13.04
13.39
13.03
12.22
11.35
10.79
10.67
10.88
11.16
11.23
10.94
10.33
9.55
8.74
7.98
7.26
6.57
5.92
5.42
5.18
5.24
5.62
6.23
6.93
7.60
8.04
8.19
7.91
7.18
6.06
4.67
3.19
1.81
0.66
-0.26
-1.06
-1.87
-2.79
-3.74
-4.61
-5.23
-5.48
-5.37
-5.01
-4.55
-4.08
-3.60
-3.11
-2.60
-2.12
-1.72
-1.41
-1.13
-0.78
-0.23
0.54
1.45
2.32
3.03
3.51
3.85
4.18
4.61
5.18
5.80
6.34
6.72
6.96
7.29
8.01
9.40
11.58
14.39
17.44
20.07
21.62
21.55
19.64
16.03
11.26
6.08
1.23
-2.63
-5.22
-6.48
-6.62
-5.97
-4.87
-3.65
-2.61
-2.01
-2.04
-2.74
-3.92
-5.30
-6.50
-7.27
-7.53
-7.35
-6.94
-6.52
-6.20
-6.07
-6.15
-6.48
-7.04
-7.79
-8.59
-9.25
-9.59
-9.54
-9.11
-8.45
-7.72
-7.02
-6.42
-5.89
-5.36
-4.77
-4.06
-3.22
-2.23
-1.14
-0.02
1.00
1.84
2.41
2.73
2.84
2.85
2.84
2.83
2.80
2.70
2.51
2.25
1.98
1.72
1.50
1.27
1.00
0.69
0.38
0.13
0.03
0.07
0.19
0.28
0.21
-0.08
-0.58
-1.15
-1.65
-1.94
-2.03
-2.02
-2.07
-2.29
-2.71
-3.20
-3.59
-3.77
-3.70
-3.46
-3.17
-2.94
-2.77
-2.63
-2.47
-2.24
-1.96
-1.65
-1.35
-1.07
-0.79
-0.47
-0.05
0.51
1.19
1.91
2.56
2.99
3.15
3.06
2.79
2.46
2.15
1.88
1.65
1.50
1.43
1.47
1.59
1.72
1.75
1.64
1.37
1.02
0.70
0.48
0.38
0.35
0.33
0.25
0.05
-0.24
-0.62
-1.06
-1.51
-1.88
-2.11
-2.14
-1.90
-1.39
-0.67
0.19
1.09
1.95
2.71
3.35
3.89
4.35
4.72
4.99
5.15
5.17
5.04
4.78
4.44
4.15
4.02
4.11
4.47
5.03
5.67
6.24
6.60
6.73
6.65
6.47
6.29
6.18
6.17
6.20
6.21
6.12
5.93
5.71
5.52
5.38
5.26
5.06
4.69
4.12
3.40
2.66
2.06
1.68
1.53
1.53
1.58
1.59
1.49
1.29
1.03
0.79
0.59
0.48
0.44
0.44
0.42
0.33
0.12
-0.21
-0.62
-1.03
-1.34
-1.45
-1.35
-1.06
-0.63
-0.08
0.60
1.42
2.33
3.26
4.05
4.57
4.81
4.82
4.70
4.55
4.41
4.32
4.28
4.30
4.37
4.44
4.43
4.27
3.93
3.47
2.99
2.59
2.31
2.12
1.93
1.70
1.36
0.97
0.58
0.27
0.06
-0.08
-0.22
-0.39
-0.59
-0.71
-0.69
-0.52
-0.26
-0.01
0.13
0.17
0.20
0.36
0.74
1.33
2.02
2.63
3.00
3.08
2.96
2.83
2.88
3.23
3.83
4.53
5.10
5.40
5.39
5.14
4.76
4.34
3.96
3.64
3.43
3.39
3.54
3.83
4.12
4.25
4.09
3.65
3.01
2.35
1.82
1.50
1.43
1.57
1.87
2.25
2.62
2.85
2.84
2.57
2.08
1.54
1.08
0.81
0.75
0.83
0.98
1.14
1.26
1.31
1.27
1.18
1.05
0.96
0.94
0.98
1.03
0.97
0.77
0.45
0.10
-0.20
-0.39
-0.48
-0.48
-0.40
-0.22
0.01
0.22
0.28
0.12
-0.19
-0.52
-0.64
-0.45
-0.01
0.52
0.96
1.20
1.26
1.24
1.22
1.22
1.24
1.30
1.46
1.76
2.22
2.75
3.20
3.40
3.32
3.03
2.66
2.32
2.05
1.77
1.42
0.98
0.47
-0.03
-0.49
-0.94
-1.41
-1.93
-2.41
-2.76
-2.89
-2.77
-2.45
-2.07
-1.75
-1.51
-1.29
-0.99
-0.56
-0.01
0.53
0.88
0.96
0.77
0.43
0.14
0.04
0.20
0.54
0.93
1.24
1.42
1.45
1.42
1.40
1.45
1.61
1.85
2.13
2.39
2.55
2.59
2.50
2.31
2.03
1.68
1.33
1.05
0.89
0.90
1.03
1.16
1.14
0.89
0.39
-0.27
-0.96
-1.53
-1.95
-2.22
-2.38
-2.47
-2.51
-2.51
-2.46
-2.39
-2.27
-2.12
-1.90
-1.59
-1.16
-0.58
0.16
1.03
1.95
2.78
3.40
3.70
3.67
3.39
3.02
2.72
2.58
2.61
2.72
2.83
2.88
2.87
2.82
2.77
2.74
2.70
2.59
2.40
2.13
1.82
1.56
1.39
1.38
1.51
1.78
2.11
2.46
2.75
2.92
2.91
2.72
2.39
1.98
1.57
1.20
0.92
0.75
0.68
0.66
0.64
0.52
0.20
-0.34
-1.08
-1.92
-2.71
-3.34
-3.74
-3.93
-3.93
-3.77
-3.45
-2.96
-2.30
-1.56
-0.80
-0.10
0.53
1.11
1.72
2.38
3.07
3.71
4.21
4.50
4.61
4.65
4.76
5.03
5.51
6.10
6.66
7.02
7.11
6.97
6.76
6.66
6.80
7.17
7.61
7.92
7.91
7.51
6.73
5.68
4.44
3.12
1.78
0.50
-0.65
-1.63
-2.46
-3.22
-3.98
-4.75
-5.44
-5.96
-6.21
-6.22
-6.10
-5.98
-5.92
-5.87
-5.73
-5.44
-5.01
-4.53
-4.07
-3.64
-3.18
-2.67
-2.13
-1.70
-1.52
-1.58
-1.72
-1.70
-1.34
-0.60
0.31
1.15
1.68
1.83
1.70
1.40
1.08
0.78
0.53
0.36
0.31
0.44
0.76
1.24
1.74
2.15
2.33
2.21
1.81
1.24
0.67
0.28
0.14
0.23
0.42
0.52
0.36
-0.17
-1.03
-2.11
-3.21
-4.12
-4.65
-4.71
-4.31
-3.54
-2.54
-1.42
-0.24
0.94
2.05
3.00
3.73
4.21
4.56
4.95
5.55
6.41
7.47
8.61
9.68
10.62
11.40
12.10
12.83
13.77
15.05
16.75
18.79
20.96
22.97
24.57
25.73
26.65
27.80
29.69
32.74
37.06
42.31
47.70
52.05
54.04
52.34
45.92
34.18
17.16
-4.40
-29.07
-54.91
-79.94
-102.51
-121.75
-137.62
-150.66
-161.66
-171.28
-179.95
-187.96
-195.45
-202.28
-207.78
-210.39
-207.82
-197.60
-178.09
-149.55
-114.63
-78.04
-45.24
-20.80
-7.14
-4.17
-9.95
-21.77
-36.76
-51.90
-63.60
-67.71
-60.49
-40.09
-7.90
31.31
70.98
105.10
130.22
146.13
154.74
158.51
159.05
156.93
152.31
145.68
138.01
130.26
122.72
114.78
105.35
93.62
79.76
65.16
52.06
42.69
38.46
39.52
44.59
51.57
58.12
62.45
63.82
62.65
60.11
57.60
56.14
56.04
56.88
57.79
57.80
56.18
52.65
47.36
40.84
33.78
26.72
19.93
13.37
6.85
0.26
-6.33
-12.63
-18.42
-23.68
-28.77
-34.32
-41.02
-49.19
-58.51
-68.06
-76.58
-82.98
-86.89
-88.87
-90.25
-92.49
-96.50
-102.20
-108.46
-113.66
-116.34
-115.81
-112.19
-106.20
-98.63
-89.97
-80.34
-69.63
-57.89
-45.50
-33.21
-21.88
-12.23
-4.59
1.13
5.28
8.39
10.98
13.59
16.73
20.81
26.12
32.61
39.89
47.24
53.77
58.68
61.37
61.58
59.36
55.04
49.18
42.52
35.85
29.92
25.30
22.26
20.73
20.28
20.20
19.68
17.95
14.50
9.18
2.37
-5.16
-12.33
-17.98
-21.13
-21.18
-18.08
-12.28
-4.69
3.63
11.63
18.56
24.03
27.96
30.44
31.58
31.48
30.31
28.44
26.40
24.83
24.15
24.43
25.33
26.30
26.84
26.72
26.02
24.92
23.61
22.09
20.24
17.96
15.21
12.16
9.04
6.10
3.48
1.13
-1.18
-3.77
-6.89
-10.60
-14.71
-18.79
-22.43
-25.39
-27.76
-29.89
-32.17
-34.80
-37.60
-40.03
-41.39
-41.13
-39.01
-35.21
-30.25
-24.67
-18.88
-13.02
-7.01
-0.73
5.80
12.35
18.48
23.79
28.00
31.12
33.38
35.11
36.61
37.97
39.15
39.99
40.37
40.33
40.02
39.76
39.79
40.19
40.81
41.32
41.35
40.62
39.08
36.88
34.25
31.44
28.60
25.79
23.00
20.25
17.58
15.06
12.72
10.50
8.29
5.97
3.42
0.63
-2.41
-5.72
-9.44
-13.73
-18.67
-24.08
-29.34
-33.54
-35.70
-35.13
-31.70
-25.89
-18.60
-10.81
-3.28
3.56
9.59
14.83
19.33
23.11
26.22
28.75
30.77
32.39
33.62
34.47
34.93
35.00
34.76
34.32
33.81
33.36
33.05
32.93
32.93
32.93
32.70
32.05
30.82
28.98
26.65
23.98
21.18
18.44
15.92
13.73
11.95
10.58
9.55
8.68
7.74
6.51
4.85
2.73
0.26
-2.39
-5.03
-7.58
-10.07
-12.65
-15.63
-19.31
-23.84
-29.13
-34.65
-39.50
-42.63
-43.15
-40.63
-35.35
-28.16
-20.18
-12.48
-5.74
-0.18
4.36
8.21
11.70
15.00
18.13
20.98
23.44
25.37
26.67
27.32
27.36
26.89
26.12
25.23
24.41
23.73
23.16
22.62
22.01
21.26
20.34
19.15
17.61
15.66
13.35
10.91
8.68
6.99
5.98
5.49
5.14
4.51
3.28
1.41
-0.87
-3.24
-5.41
-7.24
-8.76
-10.15
-11.64
-13.48
-15.85
-18.87
-22.51
-26.53
-30.46
-33.62
-35.30
-34.88
-32.15
-27.31
-21.03
-14.22
-7.75
-2.18
2.32
5.98
9.19
12.31
15.49
18.61
21.41
23.58
25.00
25.72
25.92
25.80
25.51
25.12
24.64
24.10
23.51
22.83
21.99
20.89
19.48
17.82
16.08
14.53
13.34
12.55
12.02
11.51
10.81
9.81
8.49
6.93
5.21
3.38
1.44
-0.62
-2.79
-5.09
-7.48
-9.92
-12.34
-14.68
-16.91
-19.08
-21.35
-24.00
-27.28
-31.33
-35.99
-40.76
-44.90
-47.63
-48.40
-47.05
-43.86
-39.41
-34.36
-29.25
-24.41
-19.98
-16.01
-12.53
-9.50
-6.85
-4.33
-1.66
1.49
5.30
9.73
14.47
19.02
22.85
25.57
27.08
27.64
27.75
27.96
28.66
29.87
31.29
32.35
32.55
31.58
29.43
26.40
22.89
19.28
15.78
12.49
9.35
6.33
3.42
0.66
-1.86
-4.08
-5.95
-7.48
-8.75
-9.95
-11.40
-13.46
-16.43
-20.39
-25.01
-29.60
-33.24
-35.06
-34.55
-31.68
-26.97
-21.22
-15.29
-9.81
-5.05
-0.98
2.58
5.76
8.52
10.67
12.01
12.45
12.14
11.43
10.70
10.27
10.29
10.70
11.41
12.30
13.33
14.45
15.57
16.51
16.99
16.80
15.86
14.35
12.61
11.00
9.69
8.59
7.34
5.63
3.28
0.42
-2.62
-5.51
-8.01
-10.10
-11.88
-13.43
-14.73
-15.73
-16.43
-17.03
-17.91
-19.50
-22.11
-25.67
-29.71
-33.48
-36.13
-37.04
-36.01
-33.32
-29.56
-25.41
-21.39
-17.72
-14.36
-11.15
-7.97
-4.84
-1.87
0.82
3.16
5.12
6.72
7.98
8.93
9.62
10.15
10.63
11.18
11.85
12.66
13.58
14.54
15.45
16.24
16.85
17.21
17.28
17.00
16.32
15.26
13.87
12.28
10.64
9.08
7.60
6.14
4.56
2.79
0.88
-1.07
-2.94
-4.60
-6.06
-7.40
-8.77
-10.42
-12.68
-15.82
-20.02
-25.07
-30.43
-35.16
-38.28
-39.00
-37.10
-32.92
-27.30
-21.25
-15.62
-10.86
-7.03
-3.92
-1.25
1.12
3.20
4.92
6.23
7.20
7.96
8.61
9.21
9.72
10.07
10.25
10.33
10.46
10.81
11.46
12.39
13.38
14.15
14.37
13.79
12.33
10.10
7.36
4.49
1.82
-0.37
-1.96
-2.98
-3.52
-3.76
-3.89
-4.09
-4.46
-5.04
-5.79
-6.65
-7.58
-8.59
-9.83
-11.46
-13.65
-16.45
-19.71
-23.08
-25.97
-27.77
-27.92
-26.13
-22.47
-17.41
-11.68
-6.07
-1.21
2.64
5.52
7.68
9.38
10.75
11.80
12.42
12.56
12.19
11.40
10.27
8.91
7.41
5.89
4.51
3.41
2.68
2.28
2.08
1.96
1.84
1.69
1.57
1.52
1.55
1.61
1.64
1.59
1.39
0.94
0.14
-1.07
-2.61
-4.28
-5.80
-6.94
-7.67
-8.16
-8.79
-9.95
-11.93
-14.78
-18.26
-21.83
-24.76
-26.29
-25.82
-23.15
-18.56
-12.71
-6.51
-0.78
3.97
7.60
10.23
12.14
13.56
14.62
15.33
15.65
15.57
15.14
14.52
13.88
13.36
13.06
13.00
13.15
13.44
13.79
14.12
14.27
14.12
13.55
12.57
11.22
9.64
7.90
6.07
4.11
2.05
-0.11
-2.30
-4.50
-6.66
-8.80
-10.91
-12.92
-14.74
-16.29
-17.51
-18.49
-19.36
-20.36
-21.69
-23.50
-25.87
-28.74
-31.82
-34.55
-36.19
-36.07
-33.81
-29.50
-23.73
-17.36
-11.20
-5.81
-1.37
2.22
5.22
7.91
10.49
13.02
15.47
17.68
19.46
20.60
21.01
20.76
20.05
19.16
18.30
17.63
17.16
16.81
16.50
16.13
15.63
14.96
14.07
12.96
11.63
10.15
8.65
7.26
6.11
5.24
4.56
3.88
2.98
1.70
0.01
-2.00
-4.12
-6.18
-8.11
-9.98
-11.96
-14.24
-16.93
-20.05
-23.49
-27.05
-30.44
-33.31
-35.21
-35.76
-34.62
-31.73
-27.28
-21.79
-15.84
-10.03
-4.75
-0.22
3.52
6.51
8.80
10.47
11.63
12.42
13.00
13.48
13.93
14.35
14.74
15.14
15.54
15.90
16.11
16.02
15.52
14.59
13.34
11.97
10.61
9.32
8.06
6.73
5.29
3.86
2.63
1.79
1.37
1.24
1.13
0.70
-0.33
-2.01
-4.17
-6.49
-8.59
-10.22
-11.34
-12.17
-13.09
-14.46
-16.51
-19.22
-22.38
-25.61
-28.46
-30.40
-30.95
-29.73
-26.64
-21.91
-16.12
-10.06
-4.48
0.10
3.51
5.91
7.60
8.91
10.04
11.06
11.94
12.64
13.07
13.20
12.98
12.43
11.62
10.71
9.94
9.54
9.66
10.24
11.07
11.78
12.05
11.67
10.64
9.11
7.29
5.43
3.71
2.27
1.16
0.33
-0.35
-1.09
-2.08
-3.36
-4.82
-6.24
-7.45
-8.47
-9.55
-11.08
-13.38
-16.53
-20.24
-23.97
-26.97
-28.60
-28.42
-26.35
-22.67
-17.92
-12.74
-7.69
-3.14
0.77
4.08
6.90
9.32
11.41
13.12
14.38
15.09
15.20
14.76
13.93
12.96
12.13
11.66
11.63
11.99
12.59
13.24
13.80
14.09
14.02
13.48
12.44
10.94
9.13
7.20
5.34
3.70
2.29
1.04
-0.20
-1.62
-3.31
-5.27
-7.38
-9.49
-11.40
-12.96
-14.13
-14.97
-15.65
-16.45
-17.68
-19.62
-22.41
-25.91
-29.69
-33.06
-35.26
-35.64
-33.88
-30.09
-24.79
-18.80
-12.96
-7.99
-4.31
-1.96
-0.65
0.09
0.82
1.97
3.74
6.07
8.65
11.02
12.75
13.53
13.35
12.45
11.25
10.21
9.63
9.53
9.75
10.04
10.20
10.18
10.05
9.93
9.89
9.98
10.19
10.59
11.24
12.23
13.53
15.03
16.50
17.63
18.12
17.69
16.16
13.56
10.10
6.19
2.32
-1.13
-3.95
-6.25
-8.32
-10.55
-13.26
-16.63
-20.52
-24.50
-27.88
-29.85
-29.67
-26.93
-21.74
-14.73
-6.90
0.61
6.85
11.22
13.63
14.41
14.16
13.56
13.16
13.22
13.74
14.52
15.31
15.96
16.45
16.91
17.49
18.32
19.40
20.63
21.84
22.80
23.37
23.49
23.27
22.95
22.72
22.63
22.50
21.98
20.63
18.13
14.45
9.83
4.76
-0.24
-4.73
-8.50
-11.48
-13.81
-15.67
-17.28
-18.87
-20.62
-22.66
-25.02
-27.65
-30.45
-33.34
-36.28
-39.19
-41.82
-43.67
-44.08
-42.42
-38.45
-32.46
-25.27
-17.88
-11.07
-5.15
0.10
5.12
10.26
15.52
20.56
24.87
28.09
30.17
31.32
31.97
32.56
33.36
34.44
35.65
36.70
37.25
37.00
35.78
33.60
30.69
27.37
24.05
21.07
18.57
16.52
14.63
12.54
9.79
5.96
0.75
-5.84
-13.44
-21.20
-27.97
-32.66
-34.57
-33.73
-30.92
-27.31
-24.07
-22.05
-21.64
-22.80
-25.19
-28.19
-30.88
-32.17
-31.05
-27.06
-20.58
-12.80
-5.25
0.93
5.38
8.52
11.05
13.25
14.66
14.21
10.84
4.17
-5.00
-14.90
-23.36
-28.65
-30.02
-27.72
-22.72
-16.14
-8.84
-1.27
6.34
13.86
21.25
28.82
37.08
46.23
55.40
62.42
64.45
59.22
46.52
28.94
11.45
-0.18
-1.51
9.03
29.81
56.78
84.58
107.83
122.31
125.90
119.05
104.53
86.41
68.94
55.51
48.70
49.94
58.88
73.49
90.93
108.58
124.46
136.62
144.87
149.72
152.08
152.92
152.98
152.36
151.71
150.74
148.78
145.36
140.28
133.65
125.85
117.37
108.67
100.04
91.34
82.27
72.67
62.52
51.97
41.35
31.03
21.46
12.94
5.49
-1.01
-6.65
-11.54
-15.74
-19.23
-21.97
-23.88
-24.90
-25.13
-24.74
-23.90
-22.78
-21.50
-20.17
-18.83
-17.45
-16.01
-14.49
-12.88
-11.15
-9.31
-7.36
-5.30
-3.19
-1.08
1.00
2.96
4.75
6.33
7.69
8.78
9.59
10.06
10.11
9.70
8.81
7.44
5.64
3.47
1.03
-1.62
-4.47
-7.53
-10.80
-14.29
-17.91
-21.54
-25.02
-28.20
-31.05
-33.62
-36.08
-38.59
-41.26
-44.06
-46.80
-49.22
-51.09
-52.39
-53.32
-54.29
-55.73
-57.92
-60.86
-64.22
-67.50
-70.34
-72.69
-74.91
-77.74
-81.95
-88.02
-95.88
-104.95
-114.40
-123.46
-131.83
-139.77
-147.98
-157.41
-168.94
-183.27
-200.54
-220.12
-240.26
-258.28
-271.05
-276.05
-272.28
-260.74
-243.97
-225.02
-206.11
-187.95
-169.74
-150.09
-128.05
-103.94
-79.41
-56.93
-38.87
-26.79
-20.96
-20.43
-23.41
-27.82
-31.88
-34.29
-34.39
-31.96
-27.10
-20.16
-11.75
-2.67
6.18
14.10
20.86
26.84
32.83
39.62
47.49
55.94
63.73
69.20
70.91
68.08
60.80
49.93
36.68
22.33
7.77
-6.44
-20.01
-32.63
-43.70
-52.35
-57.52
-58.49
-55.17
-48.31
-39.32
-29.77
-20.91
-13.27
-6.58
-0.21
6.47
13.66
20.97
27.65
33.03
36.82
39.35
41.51
44.31
48.49
54.07
60.19
65.30
67.63
65.73
59.02
47.97
33.97
18.90
4.56
-7.76
-17.54
-24.79
-29.87
-33.10
-34.70
-34.79
-33.62
-31.62
-29.41
-27.53
-26.31
-25.81
-25.93
-26.72
-28.46
-31.57
-36.24
-42.04
-47.81
-51.94
-52.89
-49.87
-43.17
-34.17
-24.92
-17.46
-13.29
-12.95
-15.95
-21.02
-26.53
-31.00
-33.43
-33.48
-31.34
-27.50
-22.60
-17.29
-12.44
-9.00
-7.84
-9.19
-12.13
-14.60
-14.00
-8.20
3.39
19.50
37.39
54.02
66.97
75.21
78.83
78.62
75.38
69.69
62.02
52.99
43.50
34.49
26.69
20.32
15.00
9.94
4.15
-3.12
-12.21
-22.77
-33.72
-43.45
-50.24
-52.85
-50.97
-45.32
-37.38
-28.76
-20.67
-13.61
-7.45
-1.78
3.79
9.44
15.08
20.44
25.18
29.01
31.63
32.96
33.08
32.35
31.32
30.53
30.31
30.75
31.64
32.67
33.56
34.08
34.14
33.64
32.54
30.82
28.57
25.90
22.94
19.69
15.99
11.60
6.39
0.51
-5.60
-11.34
-16.16
-19.89
-22.73
-25.31
-28.47
-33.04
-39.57
-48.01
-57.55
-66.62
-73.28
-75.83
-73.39
-66.29
-55.87
-43.99
-32.31
-21.77
-12.52
-4.18
3.77
11.62
19.35
26.66
33.11
38.33
42.10
44.37
45.31
45.24
44.59
43.77
43.03
42.44
41.85
41.05
39.85
38.11
35.79
32.93
29.59
25.97
22.39
19.20
16.66
14.77
13.21
11.46
9.03
5.70
1.62
-2.71
-6.76
-10.08
-12.54
-14.41
-16.26
-18.82
-22.77
-28.39
-35.22
-42.10
-47.45
-49.83
-48.50
-43.67
-36.38
-27.98
-19.64
-11.95
-4.96
1.59
7.95
14.15
19.99
25.12
29.17
31.95
33.52
34.21
34.49
34.80
35.33
36.02
36.57
36.76
36.52
35.99
35.40
34.86
34.26
33.27
31.63
29.19
26.19
23.04
20.23
18.06
16.49
15.14
13.48
11.10
7.90
4.20
0.55
-2.49
-4.67
-6.11
-7.37
-9.23
-12.51
-17.79
-25.16
-34.08
-43.29
-51.15
-55.95
-56.61
-52.96
-45.88
-36.82
-27.38
-18.69
-11.19
-4.74
1.14
6.84
12.46
17.82
22.55
26.31
28.95
30.56
31.37
31.69
31.73
31.57
31.20
30.63
30.03
29.64
29.64
29.98
30.37
30.28
29.27
27.18
24.23
20.92
17.83
15.38
13.59
12.01
9.81
5.99
-0.18
-8.68
-18.40
-27.24
-32.71
-32.80
-27.01
-16.63
-4.43
6.27
12.65
13.22
8.05
-1.52
-13.37
-25.22
-35.06
-41.48
-43.92
-42.69
-38.83
-33.65
-28.41
-23.94
-20.50
-17.90
-15.72
-13.52
-11.01
-8.14
-5.06
-2.02
0.73
3.07
4.99
6.53
7.62
8.18
8.08
7.36
6.35
5.53
5.41
6.23
7.86
9.83
11.51
12.30
11.85
10.16
7.65
5.09
3.44
3.63
6.25
11.15
17.45
23.63
28.11
29.75
28.32
24.44
19.31
14.09
9.51
5.69
2.21
-1.54
-6.20
-12.04
-18.97
-26.34
-33.09
-37.96
-39.87
-38.29
-33.44
-26.21
-17.80
-9.36
-1.61
5.15
11.02
16.25
21.02
25.38
29.23
32.42
34.78
36.35
37.29
37.82
38.15
38.35
38.47
38.48
38.55
38.97
40.03
41.83
44.10
46.19
47.31
46.87
44.74
41.27
37.21
33.39
30.32
28.12
26.46
24.71
22.35
19.03
14.80
9.96
4.98
0.27
-3.88
-7.38
-10.40
-13.24
-16.43
-20.55
-25.99
-32.69
-40.02
-46.73
-51.42
-53.01
-51.08
-46.10
-39.09
-31.21
-23.39
-16.07
-9.34
-3.01
3.13
9.14
14.95
20.23
24.68
28.01
30.18
31.42
32.12
32.65
33.19
33.67
33.87
33.63
33.02
32.26
31.63
31.19
30.71
29.87
28.32
25.98
23.08
20.03
17.26
15.02
13.31
11.90
10.38
8.36
5.51
1.83
-2.44
-6.81
-10.73
-13.82
-16.01
-17.68
-19.46
-22.10
-26.15
-31.76
-38.60
-45.77
-51.98
-55.86
-56.39
-53.21
-46.82
-38.36
-29.21
-20.52
-12.90
-6.39
-0.67
4.59
9.55
14.06
17.88
20.79
22.76
24.01
24.90
25.77
26.86
28.15
29.49
30.69
31.65
32.42
33.10
33.73
34.18
34.19
33.45
31.81
29.36
26.42
23.45
20.76
18.51
16.58
14.65
12.33
9.42
5.91
2.06
-1.76
-5.23
-8.18
-10.62
-12.73
-14.75
-17.01
-19.89
-23.77
-28.92
-35.16
-41.78
-47.50
-50.89
-50.90
-47.26
-40.63
-32.31
-23.74
-15.93
-9.25
-3.49
1.76
6.83
11.69
16.04
19.49
21.79
22.92
23.19
22.98
22.66
22.42
22.31
22.30
22.38
22.64
23.13
23.81
24.46
24.76
24.35
23.05
20.96
18.36
15.65
13.12
10.81
8.56
6.07
3.20
-0.04
-3.41
-6.56
-9.24
-11.38
-13.15
-14.95
-17.25
-20.55
-25.15
-31.03
-37.61
-43.86
-48.41
-50.06
-48.15
-42.93
-35.38
-26.89
-18.72
-11.61
-5.70
-0.69
3.89
8.31
12.60
16.51
19.75
22.04
23.30
23.66
23.41
22.94
22.56
22.49
22.75
23.28
23.90
24.43
24.67
24.42
23.49
21.80
19.44
16.68
13.88
11.30
9.05
7.01
4.90
2.51
-0.22
-3.14
-6.00
-8.60
-10.84
-12.80
-14.68
-16.89
-19.92
-24.25
-30.11
-37.11
-44.21
-49.87
-52.55
-51.38
-46.47
-38.93
-30.25
-21.86
-14.50
-8.22
-2.64
2.72
8.02
13.06
17.44
20.79
22.93
23.98
24.31
24.35
24.36
24.43
24.50
24.51
24.47
24.50
24.71
25.10
25.51
25.64
25.22
24.11
22.36
20.18
17.83
15.57
13.51
11.64
9.77
7.63
4.98
1.70
-2.11
-6.18
-10.21
-13.91
-17.17
-20.11
-23.17
-26.90
-31.74
-37.73
-44.22
-49.96
-53.46
-53.57
-50.01
-43.49
-35.44
-27.33
-20.14
-14.14
-8.95
-3.95
1.28
6.76
12.06
16.55
19.63
20.99
20.69
19.24
17.35
15.80
15.12
15.43
16.43
17.47
17.95
17.49
16.12
14.33
12.68
11.53
10.78
9.88
8.08
4.87
0.20
-5.36
-10.95
-15.69
-19.15
-21.40
-23.00
-24.84
-27.92
-33.37
-42.14
-54.52
-69.45
-84.09
-94.16
-95.01
-83.52
-59.52
-26.37
10.03
43.24
68.37
83.47
89.35
88.50
83.71
77.05
69.79
62.74
56.61
51.93
48.88
46.98
45.23
42.46
37.94
31.71
24.58
17.76
12.33
8.81
7.09
6.54
6.26
5.45
3.69
1.04
-2.07
-5.06
-7.51
-9.44
-11.21
-13.30
-16.03
-19.28
-22.58
-25.35
-27.19
-28.07
-28.31
-28.49
-29.19
-30.99
-34.16
-38.66
-43.84
-48.62
-51.57
-51.50
-47.82
-40.94
-31.99
-22.48
-13.74
-6.46
-0.66
4.06
8.20
12.07
15.63
18.67
20.95
22.39
23.12
23.46
23.76
24.32
25.22
26.33
27.29
27.76
27.47
26.38
24.64
22.58
20.46
18.46
16.53
14.48
12.05
9.07
5.53
1.66
-2.19
-5.62
-8.44
-10.65
-12.52
-14.44
-16.86
-20.14
-24.56
-30.16
-36.67
-43.39
-49.27
-53.06
-53.80
-51.09
-45.31
-37.48
-28.86
-20.53
-13.12
-6.69
-0.98
4.38
9.61
14.65
19.21
22.90
25.47
26.95
27.65
28.07
28.63
29.52
30.66
31.75
32.50
32.78
32.60
32.09
31.36
30.42
29.23
27.70
25.80
23.58
21.06
18.25
15.08
11.46
7.32
2.79
-1.78
-5.94
-9.29
-11.67
-13.29
-14.79
-17.06
-20.98
-27.15
-35.45
-44.96
-54.04
-60.85
-63.85
-62.43
-57.01
-48.88
-39.67
-30.69
-22.66
-15.66
-9.33
-3.22
2.94
9.16
15.19
20.61
25.08
28.36
30.48
31.66
32.22
32.41
32.34
32.07
31.65
31.29
31.16
31.35
31.75
32.01
31.66
30.39
28.14
25.16
21.87
18.75
16.08
13.80
11.58
8.95
5.58
1.42
-3.16
-7.60
-11.39
-14.28
-16.36
-18.05
-19.99
-22.88
-27.37
-33.76
-41.79
-50.49
-58.28
-63.44
-64.66
-61.59
-54.94
-46.22
-37.05
-28.65
-21.46
-15.25
-9.47
-3.66
2.36
8.31
13.75
18.20
21.48
23.71
25.28
26.56
27.75
28.77
29.38
29.41
28.91
28.12
27.40
27.03
27.03
27.22
27.29
26.92
25.90
24.16
21.83
19.22
16.70
14.58
12.93
11.59
10.16
8.21
5.49
2.04
-1.81
-5.60
-8.93
-11.66
-13.94
-16.19
-18.95
-22.77
-28.02
-34.73
-42.43
-50.16
-56.59
-60.40
-60.73
-57.41
-51.09
-42.91
-34.12
-25.65
-18.01
-11.29
-5.34
0.04
5.03
9.71
13.99
17.77
20.85
23.12
24.67
25.73
26.59
27.42
28.20
28.81
29.16
29.33
29.45
29.68
29.91
29.89
29.27
27.84
25.63
22.92
20.06
17.34
14.87
12.55
10.13
7.40
4.29
0.98
-2.17
-4.75
-6.52
-7.58
-8.46
-9.93
-12.84
-17.74
-24.69
-33.05
-41.54
-48.50
-52.37
-52.18
-47.91
-40.49
-31.42
-22.25
-14.07
-7.30
-1.80
2.84
7.03
10.93
14.47
17.42
19.53
20.71
21.06
20.92
20.72
20.83
21.39
22.35
23.51
24.69
25.85
26.98
27.98
28.60
28.44
27.16
24.69
21.36
17.74
14.44
11.81
9.80
8.02
5.95
3.27
-0.01
-3.53
-6.84
-9.58
-11.72
-13.58
-15.74
-18.89
-23.59
-30.02
-37.73
-45.63
-52.16
-55.77
-55.49
-51.34
-44.32
-35.98
-27.79
-20.60
-14.47
-8.94
-3.47
2.18
7.88
13.23
17.85
21.51
24.26
26.25
27.70
28.77
29.53
30.04
30.35
30.57
30.87
31.40
32.19
33.10
33.77
33.77
32.76
30.67
27.75
24.54
21.56
19.15
17.24
15.45
13.20
10.04
5.85
0.95
-4.06
-8.57
-12.17
-14.76
-16.59
-18.23
-20.42
-23.87
-29.05
-35.90
-43.64
-50.89
-56.03
-57.70
-55.39
-49.56
-41.43
-32.50
-23.99
-16.47
-9.97
-4.18
1.27
6.55
11.66
16.49
20.82
24.46
27.20
28.94
29.73
29.80
29.53
29.35
29.59
30.41
31.73
33.29
34.71
35.63
35.76
34.92
33.12
30.52
27.46
24.32
21.40
18.81
16.41
13.87
10.80
7.00
2.57
-2.14
-6.60
-10.39
-13.36
-15.77
-18.24
-21.54
-26.39
-33.14
-41.50
-50.48
-58.54
-64.01
-65.63
-63.03
-56.81
-48.33
-39.14
-30.43
-22.75
-15.98
-9.74
-3.69
2.23
7.72
12.41
15.96
18.35
19.78
20.67
21.37
22.09
22.78
23.23
23.23
22.76
22.04
21.44
21.25
21.50
21.86
21.80
20.87
18.97
16.40
13.73
11.51
9.94
8.74
7.32
5.12
1.88
-2.14
-6.32
-10.00
-12.81
-14.80
-16.34
-18.05
-20.54
-24.29
-29.60
-36.34
-43.93
-51.21
-56.70
-59.00
-57.35
-51.96
-43.94
-34.87
-26.16
-18.59
-12.14
-6.31
-0.44
5.81
12.35
18.73
24.40
28.96
32.34
34.72
36.46
37.88
39.15
40.25
41.06
41.38
41.02
39.89
38.00
35.64
33.35
31.87
31.78
33.22
35.70
38.20
39.58
39.03
36.22
31.29
24.56
16.25
6.56
-4.28
-15.68
-26.87
-37.10
-46.01
-53.73
-60.67
-67.05
-72.53
-76.24
-77.08
-74.27
-67.82
-58.48
-47.49
-36.14
-25.27
-15.26
-6.12
2.22
9.62
15.67
19.84
21.77
21.56
19.87
17.75
16.26
16.07
17.21
19.11
20.92
21.89
21.74
20.67
19.24
17.98
17.04
16.20
14.88
12.64
9.36
5.39
1.34
-2.24
-5.11
-7.47
-9.74
-12.35
-15.59
-19.62
-24.58
-30.56
-37.45
-44.73
-51.44
-56.28
-58.08
-56.25
-50.96
-43.07
-33.79
-24.20
-14.98
-6.22
2.38
11.18
20.16
28.80
36.15
41.25
43.66
43.72
42.49
41.35
41.37
42.88
45.47
48.22
50.22
50.91
50.20
48.43
46.09
43.59
41.04
38.25
34.78
30.24
24.50
17.77
10.60
3.65
-2.55
-7.85
-12.38
-16.60
-21.15
-26.77
-34.17
-43.78
-55.44
-68.14
-79.99
-88.60
-91.65
-87.72
-76.72
-60.19
-40.88
-21.99
-6.23
5.00
11.85
15.72
18.45
21.46
25.26
29.38
32.97
35.32
36.34
36.49
36.46
36.76
37.51
38.46
39.26
39.68
39.66
39.28
38.61
37.62
36.18
34.20
31.65
28.64
25.38
22.04
18.71
15.30
11.64
7.61
3.16
-1.54
-6.26
-10.82
-15.16
-19.53
-24.45
-30.59
-38.37
-47.57
-57.14
-65.29
-70.11
-70.24
-65.48
-56.80
-45.98
-34.84
-24.64
-15.84
-8.21
-1.24
5.53
12.30
19.01
25.43
31.25
36.18
40.01
42.64
44.05
44.32
43.59
42.18
40.49
39.08
38.40
38.63
39.53
40.44
40.55
39.26
36.47
32.62
28.42
24.52
21.19
18.28
15.31
11.78
7.50
2.64
-2.39
-7.14
-11.40
-15.19
-18.77
-22.49
-26.75
-31.95
-38.36
-45.99
-54.29
-62.15
-68.00
-70.38
-68.46
-62.40
-53.31
-42.79
-32.35
-22.91
-14.69
-7.33
-0.36
6.54
13.34
19.73
25.29
29.73
33.02
35.40
37.21
38.72
39.99
40.89
41.21
40.89
40.14
39.37
38.92
38.89
39.00
38.74
37.58
35.31
32.11
28.46
24.97
22.00
19.56
17.35
14.87
11.67
7.57
2.73
-2.40
-7.24
-11.30
-14.38
-16.60
-18.46
-20.63
-23.84
-28.67
-35.34
-43.59
-52.51
-60.73
-66.66
-69.02
-67.21
-61.53
-53.01
-43.03
-32.82
-23.17
-14.32
-6.21
1.37
8.52
15.20
21.18
26.18
29.93
32.41
33.74
34.32
34.59
34.90
35.44
36.19
37.05
37.91
38.72
39.42
39.85
39.77
38.93
37.15
34.44
30.98
27.06
22.98
18.94
15.01
11.14
7.29
3.46
-0.24
-3.63
-6.56
-9.04
-11.30
-13.74
-16.94
-21.44
-27.57
-35.22
-43.77
-52.04
-58.53
-61.90
-61.33
-56.87
-49.34
-40.04
-30.28
-21.00
-12.63
-5.13
1.67
7.89
13.45
18.09
21.56
23.81
25.05
25.73
26.37
27.24
28.31
29.31
29.94
30.13
30.02
29.87
29.82
29.69
29.07
27.56
25.08
21.90
18.56
15.59
13.24
11.39
9.66
7.59
4.80
1.20
-3.03
-7.49
-11.76
-15.52
-18.73
-21.62
-24.70
-28.60
-33.82
-40.56
-48.44
-56.48
-63.23
-67.17
-67.19
-63.00
-55.26
-45.31
-34.67
-24.51
-15.37
-7.19
0.39
7.65
14.61
20.96
26.34
30.48
33.40
35.35
36.67
37.63
38.33
38.69
38.62
38.15
37.47
36.93
36.79
37.08
37.48
37.45
36.42
34.08
30.52
26.24
21.91
18.13
15.18
12.88
10.71
8.07
4.56
0.20
-4.60
-9.20
-13.05
-15.92
-17.99
-19.78
-22.00
-25.39
-30.52
-37.53
-45.99
-54.81
-62.41
-67.15
-67.89
-64.40
-57.43
-48.37
-38.66
-29.25
-20.54
-12.39
-4.59
2.91
9.93
16.10
21.14
25.03
27.94
30.18
32.02
33.54
34.71
35.40
35.56
35.32
34.95
34.71
34.74
34.86
34.65
33.65
31.58
28.55
24.98
21.45
18.41
15.99
13.95
11.83
9.10
5.48
0.94
-4.17
-9.41
-14.32
-18.64
-22.29
-25.47
-28.58
-32.19
-36.94
-43.30
-51.22
-59.93
-67.97
-73.51
-74.99
-71.69
-63.97
-53.18
-41.12
-29.42
-19.08
-10.34
-2.93
3.65
9.77
15.53
20.74
25.10
28.35
30.49
31.69
32.34
32.76
33.12
33.42
33.56
33.52
33.36
33.25
33.27
33.33
33.19
32.49
30.97
28.57
25.46
21.95
18.34
14.77
11.24
7.58
3.67
-0.48
-4.72
-8.73
-12.31
-15.41
-18.33
-21.54
-25.63
-31.04
-37.80
-45.35
-52.58
-58.08
-60.59
-59.39
-54.57
-46.91
-37.64
-27.98
-18.83
-10.64
-3.45
2.97
8.78
14.03
18.54
21.96
24.08
24.86
24.61
23.83
23.10
22.77
22.91
23.34
23.75
23.85
23.45
22.48
20.99
19.14
17.15
15.28
13.68
12.35
11.07
9.56
7.57
4.97
1.82
-1.75
-5.49
-9.23
-12.81
-16.12
-19.20
-22.22
-25.57
-29.68
-34.86
-40.95
-47.23
-52.50
-55.44
-55.04
-51.05
-43.96
-34.92
-25.14
-15.62
-6.89
0.96
8.08
14.61
20.54
25.73
29.94
32.92
34.61
35.11
34.71
33.75
32.54
31.27
30.05
28.94
28.09
27.64
27.56
27.65
27.54
26.85
25.36
23.18
20.62
18.09
15.82
13.77
11.66
9.11
5.88
1.93
-2.45
-6.84
-10.79
-14.10
-16.90
-19.60
-22.83
-27.22
-33.20
-40.78
-49.44
-58.10
-65.34
-69.71
-70.23
-66.78
-60.07
-51.41
-42.15
-33.26
-25.04
-17.29
-9.69
-2.09
5.34
12.16
17.93
22.51
25.97
28.64
30.86
32.85
34.64
36.14
37.23
37.82
37.99
37.86
37.52
36.98
36.08
34.66
32.60
29.93
26.87
23.75
20.81
18.12
15.52
12.69
9.31
5.27
0.72
-3.94
-8.25
-11.91
-14.87
-17.39
-20.00
-23.33
-27.98
-34.27
-42.11
-50.82
-59.15
-65.53
-68.50
-67.21
-61.70
-52.93
-42.33
-31.40
-21.21
-12.22
-4.41
2.55
8.96
14.91
20.24
24.70
28.10
30.41
31.83
32.62
33.00
33.08
32.85
32.31
31.58
30.94
30.72
31.10
31.95
32.81
33.00
31.92
29.38
25.65
21.42
17.46
14.26
11.82
9.68
7.19
3.87
-0.27
-4.83
-9.18
-12.82
-15.57
-17.69
-19.61
-21.90
-25.08
-29.52
-35.38
-42.46
-50.04
-56.88
-61.54
-62.78
-60.04
-53.64
-44.73
-34.80
-25.20
-16.71
-9.50
-3.24
2.48
7.92
12.99
17.39
20.77
22.95
24.05
24.39
24.39
24.38
24.56
24.95
25.52
26.23
27.07
27.94
28.68
29.03
28.72
27.58
25.62
23.06
20.18
17.22
14.34
11.50
8.54
5.23
1.43
-2.83
-7.32
-11.68
-15.56
-18.73
-21.24
-23.47
-26.03
-29.63
-34.81
-41.67
-49.67
-57.60
-63.87
-66.92
-65.81
-60.52
-51.92
-41.52
-30.80
-20.81
-11.91
-3.93
3.56
10.83
17.85
24.27
29.62
33.61
36.21
37.68
38.44
38.85
39.10
39.16
38.95
38.44
37.80
37.22
36.84
36.69
36.51
36.00
34.88
33.05
30.60
27.69
24.53
21.25
17.94
14.66
11.42
8.11
4.60
0.69
-3.66
-8.31
-12.96
-17.29
-21.16
-24.61
-27.96
-31.69
-36.27
-42.08
-49.16
-57.15
-65.09
-71.61
-75.14
-74.57
-69.57
-60.82
-49.76
-37.98
-26.79
-16.84
-8.23
-0.78
5.81
11.69
16.94
21.61
25.72
29.27
32.22
34.49
36.03
36.91
37.25
37.24
37.04
36.70
36.28
35.82
35.33
34.85
34.35
33.66
32.53
30.71
28.11
24.85
21.34
18.09
15.50
13.64
12.20
10.62
8.37
5.17
1.14
-3.28
-7.54
-11.29
-14.44
-17.22
-20.11
-23.67
-28.43
-34.71
-42.41
-50.82
-58.68
-64.38
-66.57
-64.56
-58.68
-50.13
-40.48
-31.03
-22.53
-15.02
-8.21
-1.85
4.10
9.45
14.02
17.73
20.71
23.19
25.39
27.45
29.33
30.89
32.07
32.84
33.31
33.68
34.14
34.78
35.51
36.01
35.83
34.63
32.26
28.93
25.12
21.45
18.42
16.19
14.57
13.04
11.00
8.11
4.33
-0.04
-4.49
-8.61
-12.11
-15.03
-17.63
-20.40
-23.97
-28.87
-35.39
-43.21
-51.40
-58.46
-62.84
-63.39
-59.84
-52.89
-43.87
-34.30
-25.27
-17.28
-10.22
-3.70
2.58
8.64
14.17
18.70
21.92
23.87
24.93
25.65
26.51
27.65
28.94
30.15
31.09
31.83
32.50
33.18
33.74
33.79
32.95
30.99
28.01
24.36
20.58
17.04
13.93
11.15
8.39
5.31
1.70
-2.45
-6.83
-11.04
-14.65
-17.54
-19.92
-22.34
-25.58
-30.28
-36.74
-44.62
-52.95
-60.27
-65.03
-66.02
-62.87
-56.06
-46.85
-36.68
-26.78
-17.81
-9.91
-2.76
3.95
10.44
16.68
22.44
27.43
31.36
34.09
35.65
36.27
36.29
36.04
35.74
35.46
35.23
35.02
34.83
34.72
34.64
34.43
33.81
32.51
30.39
27.56
24.33
21.06
17.99
15.06
11.98
8.36
3.99
-1.06
-6.35
-11.37
-15.73
-19.35
-22.49
-25.67
-29.53
-34.66
-41.33
-49.39
-58.09
-66.09
-71.77
-73.78
-71.45
-65.08
-55.80
-45.17
-34.53
-24.72
-15.95
-8.00
-0.64
6.22
12.45
17.79
22.05
25.24
27.54
29.20
30.46
31.35
31.83
31.86
31.44
30.72
29.98
29.43
29.16
29.06
28.81
28.05
26.47
24.01
20.89
17.51
14.30
11.52
9.10
6.73
4.03
0.84
-2.67
-6.06
-8.90
-10.97
-12.49
-14.03
-16.31
-20.03
-25.58
-33.00
-41.79
-50.98
-59.25
-65.19
-67.72
-66.43
-61.66
-54.38
-45.82
-37.06
-28.78
-21.17
-14.10
-7.29
-0.50
6.29
12.86
18.84
23.86
27.78
30.73
33.07
35.18
37.33
39.51
41.64
43.61
45.40
47.02
48.39
49.27
49.29
48.09
45.57
41.91
37.52
32.85
28.25
23.86
19.65
15.54
11.41
7.21
2.90
-1.51
-6.01
-10.53
-15.06
-19.76
-25.03
-31.57
-40.04
-50.63
-62.70
-74.59
-83.95
-88.51
-86.86
-78.77
-65.31
-48.32
-29.90
-12.03
3.75
16.35
25.36
30.98
34.04
35.58
36.60
37.65
38.88
40.19
41.44
42.63
43.77
44.83
45.59
45.85
45.42
44.38
42.91
41.14
39.09
36.73
33.99
30.94
27.70
24.42
21.11
17.65
13.85
9.54
4.70
-0.53
-5.83
-10.89
-15.44
-19.40
-22.90
-26.37
-30.42
-35.78
-42.90
-51.69
-61.23
-69.87
-75.65
-76.97
-73.15
-64.71
-53.12
-40.23
-27.56
-15.99
-5.73
3.46
11.83
19.48
26.32
32.17
36.89
40.44
42.95
44.64
45.80
46.62
47.25
47.66
47.75
47.44
46.75
45.79
44.73
43.63
42.33
40.57
38.09
34.79
30.90
26.82
23.02
19.77
17.00
14.26
10.89
6.44
0.81
-5.58
-11.98
-17.64
-22.18
-25.68
-28.67
-31.88
-36.00
-41.63
-49.04
-58.07
-67.95
-77.23
-84.10
-86.82
-84.49
-77.27
-66.43
-53.77
-40.96
-28.98
-18.06
-7.91
1.85
11.33
20.31
28.34
34.97
39.93
43.24
45.19
46.16
46.57
46.67
46.62
46.43
46.13
45.78
45.53
45.46
45.58
45.74
45.66
45.02
43.58
41.20
37.98
34.18
30.16
26.19
22.39
18.60
14.52
9.90
4.67
-0.87
-6.19
-10.69
-14.02
-16.24
-17.86
-19.79
-23.05
-28.43
-36.24
-45.96
-56.27
-65.36
-71.34
-72.99
-70.07
-63.38
-54.34
-44.34
-34.22
-24.12
-13.76
-2.83
8.58
19.96
30.72
40.55
49.60
58.42
67.68
77.82
88.67
99.53
109.32
116.83
120.98
121.10
117.11
109.65
99.99
90.00
81.39
75.15
70.84
66.31
58.08
42.56
17.62
-16.25
-55.47
-94.18
-125.79
-145.02
-149.44
-139.95
-120.39
-96.01
-71.90
-51.66
-37.05
-28.41
-25.45
-27.94
-35.88
-49.16
-66.91
-87.28
-107.73
-125.85
-140.15
-150.49
-157.79
-163.11
-166.93
-168.98
-168.81
-166.70
-164.41
-165.10
-172.43
-188.99
-214.83
-246.77
-278.95
-304.47
-317.44
-314.79
-296.87
-267.05
-230.14
-190.78
-152.15
-115.58
-80.93
-47.38
-14.09
19.67
54.58
91.31
130.13
170.16
208.87
242.30
266.11
277.16
274.87
261.45
241.04
217.97
195.28
173.98
153.55
133.07
112.39
92.42
74.78
60.85
51.05
44.60
40.05
35.97
31.58
26.91
22.52
18.94
16.28
14.22
12.13
9.53
6.40
3.34
1.41
1.65
4.64
10.30
17.83
26.19
34.61
42.94
51.60
61.16
71.76
82.73
92.68
100.08
103.84
103.84
100.89
96.31
91.38
86.83
82.76
78.89
74.89
70.62
66.30
62.21
58.53
55.23
51.97
48.27
43.60
37.40
29.27
19.02
6.94
-6.08
-18.60
-28.88
-35.43
-37.46
-35.17
-29.64
-22.33
-14.67
-7.56
-1.30
4.25
9.48
14.62
19.64
24.28
28.15
30.92
32.57
33.37
33.74
34.14
34.80
35.68
36.62
37.39
37.93
38.22
38.29
37.99
37.07
35.23
32.35
28.62
24.50
20.56
17.22
14.55
12.21
9.63
6.23
1.75
-3.65
-9.42
-14.81
-19.23
-22.50
-25.01
-27.64
-31.46
-37.38
-45.79
-56.27
-67.54
-77.69
-84.65
-86.81
-83.50
-75.29
-63.71
-50.71
-38.01
-26.58
-16.63
-7.85
0.19
7.67
14.54
20.55
25.51
29.37
32.23
34.21
35.41
35.87
35.65
34.90
33.89
32.94
32.31
32.08
32.05
31.82
30.88
28.92
25.90
22.11
18.08
14.24
10.88
7.95
5.32
2.80
0.31
-2.12
-4.47
-6.73
-8.95
-11.13
-13.25
-15.27
-17.30
-19.66
-22.97
-27.84
-34.56
-42.71
-51.12
-58.12
-62.02
-61.72
-57.09
-49.00
-38.90
-28.35
-18.49
-9.82
-2.27
4.45
10.58
16.09
20.72
24.17
26.32
27.31
27.59
27.65
27.86
28.29
28.75
28.89
28.42
27.30
25.72
24.00
22.38
20.85
19.19
16.97
13.78
9.34
3.64
-2.97
-9.81
-15.94
-20.35
-22.29
-21.42
-18.10
-13.24
-8.12
-4.05
-2.02
-2.63
-5.94
-11.57
-18.64
-25.83
-31.56
-34.28
-33.00
-27.65
-19.17
-9.19
0.59
8.98
15.65
20.96
25.55
29.89
33.98
37.43
39.76
40.76
40.63
39.95
39.43
39.61
40.63
42.31
44.16
45.61
46.15
45.46
43.36
39.91
35.29
29.79
23.79
17.60
11.42
5.33
-0.65
-6.46
-11.96
-16.92
-21.14
-24.58
-27.37
-29.87
-32.58
-36.07
-40.85
-47.29
-55.28
-64.15
-72.52
-78.67
-80.94
-78.34
-71.00
-60.10
-47.51
-35.04
-23.92
-14.50
-6.46
0.84
7.82
14.57
20.82
26.18
30.38
33.37
35.28
36.38
36.93
37.18
37.39
37.76
38.47
39.55
40.90
42.28
43.39
43.89
43.58
42.38
40.39
37.90
35.18
32.37
29.42
26.07
22.02
17.13
11.48
5.36
-0.97
-7.36
-13.94
-21.08
-29.23
-38.76
-49.79
-61.92
-74.20
-85.15
-93.11
-96.65
-95.13
-88.91
-79.25
-67.85
-56.21
-45.30
-35.36
-26.16
-17.32
-8.64
-0.23
7.58
14.37
19.86
24.01
26.98
29.06
30.47
31.35
31.71
31.56
31.02
30.35
29.80
29.52
29.46
29.31
28.68
27.26
24.99
22.09
18.92
15.84
12.99
10.29
7.43
4.12
0.21
-4.18
-8.72
-13.01
-16.77
-20.04
-23.20
-26.87
-31.70
-38.16
-46.23
-55.23
-63.89
-70.65
-74.06
-73.31
-68.45
-60.31
-50.25
-39.65
-29.56
-20.54
-12.68
-5.84
0.23
5.68
10.60
15.00
18.90
22.30
25.24
27.74
29.86
31.66
33.23
34.64
35.93
37.08
38.00
38.64
38.91
38.73
38.00
36.61
34.47
31.68
28.51
25.35
22.50
19.95
17.27
13.86
9.24
3.38
-3.21
-9.68
-15.21
-19.42
-22.47
-25.02
-27.95
-32.04
-37.61
-44.38
-51.40
-57.38
-60.98
-61.35
-58.28
-52.29
-44.34
-35.46
-26.50
-17.97
-10.09
-2.90
3.57
9.32
14.21
18.11
20.86
22.45
23.07
23.14
23.15
23.48
24.25
25.30
26.30
26.99
27.27
27.22
26.94
26.47
25.70
24.51
22.78
20.54
17.91
15.01
11.92
8.64
5.18
1.61
-1.91
-5.26
-8.42
-11.55
-15.01
-19.25
-24.64
-31.30
-39.04
-47.27
-55.06
-61.24
-64.72
-64.73
-61.13
-54.47
-45.80
-36.37
-27.23
-18.93
-11.54
-4.88
1.28
6.99
12.10
16.34
19.51
21.65
23.02
24.05
25.11
26.41
27.84
29.10
29.86
29.94
29.41
28.53
27.57
26.65
25.64
24.30
22.44
20.06
17.38
14.71
12.25
9.95
7.52
4.63
1.04
-3.15
-7.61
-11.93
-15.81
-19.20
-22.27
-25.34
-28.77
-32.88
-37.90
-43.86
-50.40
-56.69
-61.49
-63.49
-61.79
-56.33
-47.91
-37.96
-27.92
-18.84
-11.08
-4.42
1.57
7.31
12.92
18.33
23.30
27.52
30.77
32.93
34.09
34.49
34.50
34.53
34.88
35.60
36.36
36.50
35.13
31.46
25.18
16.72
7.20
-1.84
-9.06
-13.81
-16.30
-17.43
-18.25
-19.44
-21.08
-22.89
-24.64
-26.46
-28.88
-32.42
-37.34
-43.51
-50.83
-59.46
-69.80
-81.73
-93.77
-102.66
-104.21
-94.87
-73.63
-42.74
-6.85
29.00
61.26
88.64
111.34
129.46
141.88
146.56
141.95
128.45
108.87
87.49
67.95
51.56
36.95
20.65
-1.34
-31.92
-71.86
-119.37
-170.30
-218.90
-259.09
-286.04
-297.42
-294.02
-279.18
-257.50
-233.32
-209.66
-188.12
-169.36
-153.84
-141.97
-134.07
-129.91
-128.69
-129.28
-130.75
-132.78
-135.82
-140.73
-148.30
-158.72
-171.29
-184.60
-196.92
-206.64
-212.74
-214.94
-213.55
-209.19
-202.47
-193.79
-183.33
-171.17
-157.44
-142.41
-126.55
-110.38
-94.28
-78.47
-62.89
-47.33
-31.59
-15.61
0.49
16.40
31.73
46.16
59.37
71.16
81.24
89.26
94.85
97.71
97.81
95.47
91.46
86.74
82.24
78.57
75.88
73.90
72.25
70.70
69.49
69.33
71.15
75.75
83.44
93.83
106.12
119.35
132.80
146.26
160.07
174.93
191.89
212.32
237.60
268.46
303.95
340.68
373.06
394.88
401.63
392.67
371.67
345.09
319.37
298.37
282.24
268.46
253.85
236.46
216.22
194.11
171.17
148.00
125.11
103.62
85.49
72.81
66.69
66.26
68.56
69.69
66.38
57.29
43.24
26.51
9.55
-6.08
-20.21
-33.71
-47.50
-61.66
-75.01
-85.37
-90.65
-90.03
-84.77
-77.84
-72.71
-71.60
-74.48
-79.16
-82.52
-82.17
-77.60
-70.05
-61.52
-53.57
-46.70
-40.56
-34.68
-28.95
-23.86
-19.96
-17.43
-15.71
-13.74
-10.52
-5.67
0.25
5.85
9.50
10.06
7.51
3.05
-1.33
-3.87
-3.83
-1.85
0.63
2.24
2.43
1.63
0.60
-0.20
-0.94
-2.17
-4.31
-7.31
-10.76
-14.25
-17.77
-21.68
-26.51
-32.67
-40.29
-49.31
-59.48
-70.25
-80.53
-88.70
-93.01
-92.32
-86.74
-77.80
-67.81
-58.71
-51.23
-44.53
-36.85
-26.58
-13.24
2.07
17.15
29.71
38.49
43.79
47.29
51.19
57.16
65.65
75.74
85.60
93.22
96.99
96.06
90.29
80.17
66.76
51.60
36.71
24.17
15.60
11.73
12.06
15.09
18.89
21.75
22.71
21.69
19.36
16.75
14.66
13.36
12.33
10.33
5.85
-2.27
-14.18
-28.69
-43.41
-55.56
-62.85
-64.35
-60.63
-53.42
-44.69
-35.89
-27.63
-19.80
-12.26
-5.20
0.74
4.83
6.88
7.53
8.03
9.73
13.38
18.92
25.62
32.51
38.81
44.03
47.88
50.12
50.63
49.50
47.03
43.71
39.97
35.98
31.69
27.06
22.21
17.62
13.88
11.38
10.04
9.20
7.82
4.89
-0.19
-7.28
-15.64
-24.16
-31.93
-38.54
-44.12
-49.01
-53.25
-56.26
-56.85
-53.86
-46.73
-35.94
-22.88
-9.25
3.59
14.94
24.76
33.17
40.05
44.90
47.08
46.22
42.68
37.59
32.47
28.72
26.95
26.80
27.16
26.72
24.64
20.87
16.17
11.65
8.30
6.70
6.89
8.50
10.92
13.36
14.93
14.78
12.38
7.73
1.35
-5.83
-12.87
-19.06
-24.04
-27.73
-30.28
-32.06
-33.65
-35.61
-38.24
-41.22
-43.61
-44.11
-41.79
-36.52
-29.21
-21.33
-14.26
-8.68
-4.34
-0.41
3.98
9.20
15.02
20.82
25.99
30.27
33.83
37.10
40.54
44.38
48.58
52.90
56.98
60.27
61.94
60.84
55.70
45.66
30.80
12.45
-6.99
-24.66
-38.16
-46.18
-48.82
-47.32
-43.47
-38.99
-35.01
-31.96
-29.80
-28.36
-27.62
-27.86
-29.41
-32.45
-36.67
-41.33
-45.40
-47.98
-48.48
-46.74
-42.97
-37.58
-31.10
-24.21
-17.61
-11.91
-7.47
-4.31
-2.10
-0.30
1.71
4.50
8.40
13.44
19.22
25.03
30.00
33.52
35.45
36.22
36.50
36.85
37.37
37.69
37.25
35.68
32.93
29.32
25.30
21.21
17.22
13.35
9.50
5.69
2.02
-1.21
-3.52
-4.49
-4.00
-2.57
-1.38
-1.94
-5.54
-12.52
-22.00
-32.07
-40.40
-45.06
-45.14
-40.91
-33.61
-24.80
-15.91
-7.85
-0.98
4.69
9.34
13.19
16.50
19.44
22.18
24.73
26.96
28.68
29.78
30.31
30.61
31.09
32.01
33.32
34.68
35.62
35.80
35.19
34.05
32.70
31.44
30.24
28.91
27.09
24.49
21.00
16.74
12.06
7.34
2.97
-0.75
-3.63
-5.57
-6.64
-7.17
-7.85
-9.61
-13.33
-19.42
-27.52
-36.41
-44.36
-49.69
-51.38
-49.32
-44.25
-37.32
-29.58
-21.75
-14.19
-7.01
-0.27
5.98
11.70
16.92
21.58
25.47
28.16
29.17
28.28
25.80
22.60
19.81
18.43
18.82
20.64
23.01
24.94
25.75
25.26
23.80
21.85
19.76
17.52
14.77
11.15
6.61
1.70
-2.60
-5.32
-6.02
-5.17
-3.87
-3.44
-4.65
-7.56
-11.64
-16.31
-21.28
-26.55
-32.12
-37.49
-41.71
-43.62
-42.47
-38.25
-31.72
-24.04
-16.32
-9.24
-3.03
2.26
6.56
9.71
11.53
12.11
11.86
11.45
11.52
12.36
13.82
15.41
16.56
16.91
16.45
15.37
13.92
12.18
10.10
7.63
4.91
2.32
0.36
-0.64
-0.68
-0.15
0.38
0.38
-0.45
-2.08
-4.34
-7.07
-10.21
-13.86
-18.17
-23.16
-28.62
-34.06
-38.76
-41.90
-42.73
-40.83
-36.29
-29.76
-22.30
-15.10
-8.96
-4.18
-0.51
2.45
5.06
7.39
9.40
11.07
12.54
13.99
15.51
17.00
18.22
18.93
19.09
18.84
18.42
17.97
17.47
16.68
15.36
13.40
10.92
8.27
5.85
3.93
2.46
1.12
-0.52
-2.70
-5.22
-7.42
-8.54
-8.08
-6.21
-3.75
-1.87
-1.67
-3.81
-8.40
-14.98
-22.76
-30.67
-37.47
-41.89
-42.90
-40.07
-33.70
-24.87
-15.19
-6.31
0.58
5.05
7.47
8.80
10.10
12.12
15.01
18.37
21.50
23.77
24.91
25.00
24.42
23.59
22.78
22.12
21.57
21.06
20.51
19.89
19.16
18.33
17.44
16.56
15.68
14.71
13.45
11.69
9.34
6.47
3.34
0.32
-2.34
-4.54
-6.37
-7.96
-9.34
-10.39
-11.01
-11.30
-11.75
-13.11
-15.91
-20.17
-25.06
-29.16
-31.03
-29.87
-25.90
-20.23
-14.28
-9.19
-5.35
-2.40
0.28
3.21
6.40
9.40
11.56
12.38
11.74
10.04
7.92
6.11
5.03
4.65
4.56
4.12
2.82
0.52
-2.48
-5.60
-8.17
-9.75
-10.21
-9.79
-9.04
-8.66
-9.31
-11.38
-14.66
-18.30
-21.02
-21.58
-19.34
-14.56
-8.30
-1.94
3.26
6.51
7.47
6.11
2.52
-3.07
-10.26
-18.30
-26.03
-32.07
-35.03
-34.01
-29.06
-21.41
-13.33
-7.24
-4.66
-5.14
-6.17
-4.24
3.60
18.04
36.99
56.14
70.24
74.21
63.86
36.45
-8.52
-68.23
-135.99
-202.01
-255.74
-289.09
-299.03
-288.11
-262.76
-230.35
-196.59
-164.29
-134.04
-105.34
-77.60
-50.22
-22.12
8.88
45.85
91.72
147.51
210.89
275.72
333.09
374.08
392.83
388.69
366.35
333.71
298.75
266.77
239.50
216.11
195.22
176.56
161.31
151.18
147.12
148.58
153.75
160.48
167.20
173.29
178.93
184.21
188.62
190.81
189.02
181.63
167.81
147.65
122.11
92.49
59.94
25.11
-12.05
-52.08
-95.55
-142.16
-190.02
-235.52
-274.08
-301.66
-316.54
-320.18
-316.69
-311.03
-306.67
-304.08
-300.86
-293.34
-278.67
-256.35
-228.21
-197.31
-166.67
-138.31
-113.28
-92.08
-74.92
-61.78
-52.18
-45.13
-39.39
-33.88
-27.99
-21.50
-14.24
-5.92
3.76
14.85
26.82
38.61
48.98
57.01
62.36
65.16
65.70
64.18
60.69
55.22
47.82
38.75
28.61
18.46
9.87
4.62
4.10
8.55
16.55
25.14
30.75
30.53
23.65
11.89
-0.93
-10.32
-12.94
-7.93
2.63
14.32
21.76
20.42
8.07
-14.22
-42.16
-69.16
-88.07
-93.16
-81.73
-54.85
-16.90
25.78
66.51
99.83
122.32
132.83
132.34
123.40
109.53
94.51
81.52
72.55
68.04
67.20
68.42
69.98
70.46
68.92
64.97
58.63
50.40
41.12
31.69
22.74
14.26
5.72
-3.66
-14.31
-25.89
-37.24
-46.80
-53.21
-55.96
-55.55
-53.37
-51.11
-50.16
-51.13
-53.80
-57.37
-60.91
-63.76
-65.74
-67.15
-68.45
-70.00
-71.89
-73.85
-75.50
-76.54
-76.98
-77.09
-77.28
-77.86
-78.77
-79.51
-79.28
-77.29
-73.05
-66.60
-58.47
-49.45
-40.29
-31.52
-23.44
-16.20
-9.88
-4.65
-0.67
1.96
3.28
3.51
3.05
2.40
2.00
2.14
2.82
3.85
4.96
5.90
6.61
7.18
7.73
8.31
8.86
9.18
9.09
8.47
7.35
5.83
4.06
2.16
0.21
-1.85
-4.09
-6.63
-9.61
-13.07
-16.95
-21.06
-25.01
-28.32
-30.45
-30.97
-29.65
-26.58
-22.13
-16.83
-11.27
-5.96
-1.25
2.65
5.61
7.62
8.69
8.94
8.53
7.73
6.80
5.98
5.40
5.13
5.13
5.34
5.68
6.07
6.44
6.71
6.78
6.57
5.99
4.97
3.46
1.47
-0.88
-3.39
-5.82
-8.01
-9.96
-11.87
-14.12
-17.10
-20.97
-25.57
-30.40
-34.66
-37.46
-38.08
-36.20
-31.95
-25.92
-18.98
-12.01
-5.67
-0.31
3.99
7.30
9.70
11.25
12.01
12.09
11.68
11.06
10.48
10.14
10.06
10.20
10.39
10.51
10.50
10.38
10.22
10.03
9.74
9.16
8.09
6.42
4.18
1.60
-1.07
-3.64
-6.05
-8.43
-11.02
-14.05
-17.69
-21.93
-26.47
-30.72
-33.83
-34.99
-33.61
-29.63
-23.55
-16.29
-8.88
-2.10
3.64
8.25
11.84
14.48
16.18
16.92
16.80
16.10
15.24
14.64
14.55
14.91
15.47
15.88
15.94
15.62
15.13
14.66
14.27
13.80
12.95
11.39
8.97
5.80
2.26
-1.21
-4.28
-6.88
-9.16
-11.54
-14.43
-18.09
-22.53
-27.39
-32.01
-35.57
-37.26
-36.56
-33.33
-27.87
-20.86
-13.17
-5.63
1.14
6.78
11.18
14.39
16.49
17.63
18.02
17.93
17.68
17.55
17.69
18.08
18.55
18.88
18.90
18.64
18.19
17.73
17.32
16.92
16.32
15.29
13.67
11.43
8.75
5.86
2.98
0.27
-2.32
-4.93
-7.76
-10.99
-14.75
-19.01
-23.54
-27.85
-31.22
-32.87
-32.16
-28.87
-23.27
-16.05
-8.11
-0.31
6.75
12.69
17.34
20.63
22.53
23.13
22.66
21.52
20.19
19.10
18.49
18.39
18.64
18.98
19.24
19.34
19.28
19.12
18.82
18.26
17.26
15.65
13.37
10.52
7.34
4.08
0.99
-1.79
-4.28
-6.66
-9.22
-12.29
-16.15
-20.85
-26.14
-31.34
-35.52
-37.72
-37.24
-33.86
-27.95
-20.30
-11.85
-3.46
4.25
10.94
16.39
20.48
23.16
24.49
24.69
24.16
23.33
22.56
22.07
21.95
22.08
22.34
22.53
22.55
22.31
21.82
21.16
20.36
19.39
18.08
16.25
13.79
10.76
7.40
4.01
0.85
-2.00
-4.67
-7.36
-10.37
-13.95
-18.19
-23.04
-28.13
-32.75
-36.00
-36.96
-34.99
-30.00
-22.54
-13.61
-4.36
4.22
11.52
17.35
21.77
24.86
26.67
27.20
26.55
25.03
23.18
21.60
20.74
20.72
21.30
22.03
22.46
22.30
21.55
20.43
19.19
18.07
17.12
16.25
15.25
13.84
11.84
9.21
6.15
2.99
0.08
-2.35
-4.36
-6.20
-8.27
-10.95
-14.49
-18.98
-24.27
-29.95
-35.31
-39.43
-41.34
-40.30
-36.15
-29.37
-21.00
-12.26
-4.19
2.67
8.24
12.74
16.39
19.22
21.08
21.79
21.40
20.24
18.86
17.80
17.38
17.55
18.00
18.35
18.35
18.01
17.49
17.02
16.69
16.44
16.04
15.19
13.67
11.41
8.54
5.30
2.05
-0.93
-3.44
-5.54
-7.44
-9.49
-12.07
-15.46
-19.74
-24.69
-29.80
-34.23
-37.03
-37.40
-34.89
-29.62
-22.26
-13.84
-5.40
2.23
8.60
13.63
17.41
20.05
21.60
22.07
21.56
20.35
18.87
17.67
17.18
17.59
18.78
20.36
21.83
22.76
22.93
22.40
21.40
20.14
18.74
17.11
15.07
12.44
9.24
5.68
2.16
-0.95
-3.47
-5.49
-7.29
-9.26
-11.72
-14.83
-18.62
-22.99
-27.69
-32.28
-36.08
-38.23
-37.91
-34.68
-28.67
-20.65
-11.82
-3.37
3.89
9.62
13.96
17.18
19.52
21.05
21.71
21.54
20.75
19.71
18.86
18.50
18.70
19.29
20.00
20.57
20.83
20.77
20.38
19.68
18.65
17.27
15.57
13.62
11.56
9.52
7.56
5.66
3.73
1.65
-0.62
-3.07
-5.62
-8.13
-10.49
-12.69
-14.88
-17.34
-20.43
-24.36
-29.04
-33.94
-38.12
-40.46
-40.05
-36.48
-30.10
-21.84
-12.94
-4.56
2.59
8.29
12.70
16.11
18.75
20.69
21.93
22.48
22.50
22.23
21.94
21.81
21.87
22.04
22.20
22.25
22.16
21.93
21.56
20.97
20.07
18.76
17.02
14.91
12.57
10.23
8.07
6.17
4.46
2.77
0.87
-1.36
-3.89
-6.49
-8.87
-10.82
-12.32
-13.55
-14.83
-16.51
-18.85
-21.92
-25.63
-29.60
-33.22
-35.71
-36.29
-34.39
-29.93
-23.34
-15.48
-7.43
-0.12
5.83
10.27
13.37
15.48
16.90
17.84
18.40
18.64
18.66
18.60
18.61
18.79
19.07
19.29
19.29
18.97
18.41
17.80
17.29
16.91
16.55
15.94
14.83
13.16
11.03
8.76
6.70
5.08
3.92
3.01
2.00
0.58
-1.39
-3.81
-6.40
-8.85
-10.96
-12.72
-14.27
-15.89
-17.88
-20.46
-23.73
-27.54
-31.42
-34.63
-36.31
-35.76
-32.74
-27.53
-20.91
-13.80
-7.00
-1.02
3.95
7.92
10.93
12.98
14.10
14.38
14.07
13.44
12.79
12.33
12.15
12.21
12.47
12.84
13.27
13.70
14.03
14.20
14.10
13.66
12.82
11.61
10.07
8.30
6.42
4.56
2.82
1.25
-0.14
-1.43
-2.71
-4.05
-5.44
-6.86
-8.26
-9.62
-10.99
-12.46
-14.18
-16.30
-18.93
-22.09
-25.58
-28.90
-31.34
-32.09
-30.52
-26.51
-20.51
-13.46
-6.47
-0.41
4.23
7.48
9.63
11.03
11.99
12.72
13.39
14.17
15.20
16.53
18.06
19.58
20.82
21.61
21.87
21.66
21.06
20.13
18.88
17.28
15.31
12.94
10.18
7.05
3.60
-0.11
-3.94
-7.79
-11.52
-15.06
-18.33
-21.25
-23.76
-25.75
-27.12
-27.71
-27.39
-25.95
-23.25
-19.20
-13.89
-7.62
-0.86
5.87
12.16
17.90
23.28
28.62
34.19
39.89
45.20
49.20
50.93
49.72
45.43
38.59
30.29
21.84
14.62
9.68
7.61
8.35
11.22
15.05
18.50
20.48
20.36
18.14
14.24
9.37
4.25
-0.43
-4.07
-6.24
-6.79
-5.94
-4.33
-2.88
-2.42
-3.44
-5.94
-9.48
-13.47
-17.31
-20.50
-22.63
-23.31
-22.30
-19.59
-15.54
-10.79
-6.10
-2.04
1.12
3.47
5.31
6.91
8.39
9.64
10.45
10.58
9.88
8.39
6.29
3.90
1.59
-0.40
-1.98
-3.23
-4.26
-5.09
-5.65
-5.82
-5.60
-5.15
-4.81
-4.91
-5.65
-7.03
-8.81
-10.72
-12.62
-14.54
-16.70
-19.32
-22.57
-26.40
-30.62
-35.01
-39.32
-43.35
-46.98
-50.15
-52.88
-55.34
-57.80
-60.62
-64.08
-68.24
-72.85
-77.29
-80.68
-82.07
-80.64
-75.93
-67.94
-57.19
-44.64
-31.47
-18.86
-7.73
1.36
8.24
13.03
16.03
17.62
18.18
18.09
17.71
17.33
17.10
17.04
17.02
16.89
16.51
15.86
15.02
14.09
13.17
12.25
11.24
9.98
8.32
6.19
3.65
0.94
-1.68
-4.00
-6.05
-8.07
-10.46
-13.55
-17.42
-21.79
-26.03
-29.36
-31.08
-30.78
-28.43
-24.35
-19.11
-13.35
-7.73
-2.73
1.37
4.51
6.81
8.43
9.50
10.10
10.22
9.91
9.29
8.56
7.98
7.75
7.87
8.21
8.49
8.48
8.08
7.30
6.33
5.36
4.52
3.85
3.35
3.00
2.82
2.85
3.15
3.65
4.15
4.39
4.09
3.07
1.23
-1.42
-4.74
-8.50
-12.22
-15.24
-16.88
-16.57
-14.18
-10.06
-4.93
0.39
5.28
9.47
13.02
16.08
18.77
21.00
22.61
23.45
23.53
23.04
22.26
21.44
20.68
19.97
19.20
18.30
17.23
16.08
14.90
13.76
12.69
11.67
10.61
9.40
7.90
6.04
3.82
1.37
-1.12
-3.46
-5.59
-7.59
-9.66
-12.00
-14.80
-18.10
-21.82
-25.74
-29.47
-32.43
-33.99
-33.62
-31.06
-26.48
-20.45
-13.79
-7.26
-1.41
3.53
7.59
10.95
13.78
16.16
18.07
19.47
20.35
20.75
20.81
20.71
20.57
20.46
20.32
20.08
19.66
19.02
18.23
17.39
16.59
15.80
14.94
13.79
12.21
10.15
7.72
5.16
2.68
0.43
-1.59
-3.51
-5.46
-7.52
-9.76
-12.21
-14.98
-18.17
-21.77
-25.49
-28.79
-30.92
-31.20
-29.28
-25.24
-19.66
-13.36
-7.19
-1.71
2.85
6.62
9.86
12.76
15.38
17.55
19.10
19.94
20.15
19.98
19.67
19.42
19.25
19.09
18.87
18.52
18.07
17.54
16.94
16.24
15.39
14.37
13.17
11.80
10.26
8.53
6.54
4.27
1.76
-0.86
-3.46
-5.92
-8.20
-10.33
-12.35
-14.31
-16.28
-18.40
-20.79
-23.50
-26.36
-28.86
-30.30
-29.96
-27.42
-22.82
-16.78
-10.20
-3.95
1.45
5.83
9.34
12.15
14.41
16.10
17.14
17.51
17.33
16.85
16.38
16.13
16.16
16.38
16.57
16.53
16.18
15.55
14.73
13.83
12.85
11.77
10.51
9.06
7.48
5.82
4.15
2.45
0.66
-1.23
-3.22
-5.17
-6.97
-8.56
-9.97
-11.39
-13.06
-15.19
-17.82
-20.81
-23.79
-26.22
-27.50
-27.12
-24.82
-20.73
-15.31
-9.31
-3.46
1.70
5.95
9.36
12.10
14.31
15.98
17.02
17.38
17.13
16.51
15.80
15.26
14.97
14.91
14.92
14.86
14.66
14.29
13.79
13.17
12.40
11.41
10.17
8.67
6.98
5.20
3.35
1.44
-0.56
-2.68
-4.92
-7.20
-9.42
-11.53
-13.53
-15.51
-17.61
-19.97
-22.64
-25.50
-28.18
-30.13
-30.75
-29.55
-26.40
-21.57
-15.69
-9.48
-3.57
1.65
6.05
9.63
12.44
14.53
15.93
16.74
17.13
17.30
17.43
17.62
17.85
18.06
18.13
17.97
17.53
16.85
15.98
15.03
14.05
13.07
12.08
11.06
10.00
8.88
7.68
6.33
4.78
2.99
0.98
-1.14
-3.22
-5.16
-6.94
-8.67
-10.55
-12.78
-15.50
-18.69
-22.13
-25.36
-27.83
-28.93
-28.22
-25.56
-21.18
-15.61
-9.54
-3.62
1.67
6.11
9.62
12.23
13.97
14.92
15.17
14.92
14.38
13.80
13.36
13.15
13.18
13.38
13.69
14.09
14.52
14.92
15.17
15.13
14.72
13.95
12.89
11.70
10.43
9.07
7.58
5.95
4.24
2.59
1.14
-0.03
-0.97
-1.86
-2.83
-4.03
-5.55
-7.40
-9.62
-12.12
-14.69
-16.90
-18.22
-18.17
-16.50
-13.31
-9.05
-4.34
0.24
4.27
7.54
10.02
11.72
12.70
13.03
12.83
12.29
11.62
11.03
10.65
10.52
10.62
10.87
11.17
11.42
11.54
11.48
11.25
10.87
10.38
9.79
9.03
7.99
6.60
4.83
2.74
0.47
-1.82
-4.01
-6.04
-7.94
-9.77
-11.64
-13.68
-15.99
-18.64
-21.64
-24.77
-27.63
-29.65
-30.29
-29.17
-26.32
-22.14
-17.27
-12.41
-8.07
-4.52
-1.77
0.26
1.68
2.54
2.89
2.77
2.33
1.75
1.28
1.10
1.32
1.94
2.83
3.76
4.48
4.82
4.73
4.30
3.69
3.08
2.50
1.88
1.06
-0.12
-1.69
-3.53
-5.44
-7.19
-8.68
-9.94
-11.13
-12.52
-14.37
-16.89
-20.08
-23.73
-27.37
-30.34
-31.98
-31.76
-29.51
-25.46
-20.15
-14.27
-8.45
-3.12
1.54
5.54
8.95
11.81
14.10
15.76
16.80
17.30
17.40
17.33
17.24
17.22
17.28
17.37
17.39
17.25
16.86
16.15
15.09
13.70
12.07
10.30
8.50
6.72
4.96
3.14
1.23
-0.78
-2.83
-4.86
-6.80
-8.68
-10.55
-12.57
-14.85
-17.50
-20.58
-24.03
-27.63
-30.95
-33.45
-34.52
-33.72
-30.91
-26.28
-20.35
-13.82
-7.39
-1.60
3.26
7.12
10.10
12.38
14.16
15.52
16.53
17.25
17.73
18.08
18.35
18.58
18.73
18.73
18.56
18.23
17.77
17.21
16.52
15.70
14.70
13.50
12.14
10.62
8.98
7.25
5.41
3.46
1.35
-0.95
-3.41
-5.92
-8.33
-10.48
-12.34
-14.05
-15.88
-18.16
-21.06
-24.53
-28.13
-31.21
-32.99
-32.85
-30.51
-26.14
-20.26
-13.63
-6.97
-0.86
4.39
8.66
11.96
14.37
16.03
17.10
17.77
18.22
18.56
18.83
18.98
18.95
18.76
18.54
18.45
18.63
19.10
19.71
20.18
20.17
19.50
18.11
16.18
13.97
11.81
9.94
8.45
7.26
6.18
4.97
3.46
1.65
-0.32
-2.23
-3.92
-5.36
-6.65
-8.01
-9.67
-11.83
-14.58
-17.88
-21.42
-24.71
-27.03
-27.71
-26.34
-22.94
-18.01
-12.32
-6.68
-1.70
2.36
5.50
7.85
9.55
10.71
11.38
11.62
11.55
11.35
11.22
11.34
11.80
12.53
13.39
14.19
14.80
15.19
15.39
15.48
15.44
15.20
14.60
13.59
12.19
10.51
8.68
6.77
4.82
2.80
0.73
-1.35
-3.40
-5.42
-7.49
-9.73
-12.29
-15.24
-18.60
-22.25
-25.97
-29.34
-31.85
-32.92
-32.11
-29.30
-24.75
-19.10
-13.11
-7.45
-2.55
1.45
4.59
6.97
8.64
9.63
9.98
9.84
9.43
9.02
8.85
9.03
9.55
10.29
11.08
11.75
12.19
12.35
12.24
11.90
11.37
10.66
9.77
8.66
7.30
5.72
3.96
2.09
0.19
-1.71
-3.62
-5.57
-7.54
-9.52
-11.45
-13.38
-15.45
-17.88
-20.85
-24.35
-28.02
-31.26
-33.30
-33.53
-31.62
-27.73
-22.31
-16.03
-9.51
-3.21
2.56
7.61
11.83
15.11
17.38
18.65
19.06
18.81
18.20
17.49
16.91
16.57
16.50
16.65
16.91
17.17
17.30
17.23
16.86
16.13
15.00
13.50
11.70
9.73
7.72
5.75
3.84
1.95
0.01
-1.98
-3.98
-5.92
-7.70
-9.29
-10.74
-12.18
-13.87
-16.05
-18.89
-22.35
-26.05
-29.35
-31.43
-31.62
-29.59
-25.51
-19.97
-13.77
-7.64
-2.06
2.78
6.82
10.09
12.60
14.39
15.55
16.25
16.71
17.12
17.60
18.15
18.71
19.20
19.53
19.67
19.60
19.35
18.96
18.44
17.81
17.08
16.22
15.23
14.13
12.94
11.67
10.32
8.84
7.18
5.31
3.25
1.06
-1.18
-3.33
-5.35
-7.17
-8.81
-10.36
-11.98
-13.92
-16.38
-19.50
-23.15
-26.91
-30.09
-31.92
-31.80
-29.46
-25.12
-19.35
-12.89
-6.42
-0.44
4.76
9.06
12.39
14.75
16.20
16.93
17.15
17.15
17.13
17.20
17.38
17.61
17.82
17.94
17.92
17.79
17.59
17.37
17.15
16.88
16.46
15.80
14.83
13.62
12.24
10.80
9.33
7.85
6.31
4.75
3.22
1.78
0.47
-0.73
-1.92
-3.18
-4.55
-6.09
-7.90
-10.13
-12.92
-16.31
-20.07
-23.69
-26.42
-27.55
-26.63
-23.65
-19.10
-13.73
-8.31
-3.40
0.78
4.22
7.07
9.44
11.35
12.72
13.50
13.73
13.55
13.21
12.96
13.03
13.50
14.33
15.36
16.38
17.20
17.70
17.85
17.69
17.29
16.69
15.91
14.94
13.80
12.51
11.13
9.71
8.26
6.68
4.87
2.76
0.36
-2.19
-4.70
-7.06
-9.32
-11.70
-14.49
-17.80
-21.43
-24.83
-27.33
-28.32
-27.52
-25.03
-21.28
-16.86
-12.30
-7.98
-4.13
-0.90
1.59
3.27
4.14
4.34
4.09
3.72
3.48
3.49
3.73
4.06
4.38
4.66
4.95
5.36
5.88
6.42
6.80
6.86
6.52
5.79
4.77
3.61
2.44
1.31
0.25
-0.79
-1.87
-3.09
-4.46
-5.95
-7.49
-8.98
-10.39
-11.74
-13.16
-14.80
-16.85
-19.42
-22.45
-25.67
-28.52
-30.27
-30.22
-27.96
-23.53
-17.47
-10.67
-4.09
1.50
5.76
8.73
10.69
12.03
13.01
13.74
14.25
14.50
14.55
14.49
14.46
14.54
14.71
14.87
14.89
14.68
14.22
13.56
12.75
11.84
10.82
9.69
8.45
7.10
5.64
4.08
2.43
0.70
-1.07
-2.84
-4.57
-6.30
-8.09
-10.04
-12.26
-14.76
-17.53
-20.52
-23.62
-26.65
-29.20
-30.75
-30.69
-28.57
-24.33
-18.40
-11.57
-4.80
1.14
5.85
9.32
11.80
13.56
14.81
15.62
15.97
15.92
15.57
15.10
14.71
14.51
14.49
14.56
14.55
14.37
13.97
13.37
12.59
11.63
10.49
9.14
7.66
6.13
4.68
3.34
2.09
0.85
-0.46
-1.84
-3.25
-4.60
-5.86
-7.07
-8.35
-9.82
-11.56
-13.61
-15.99
-18.67
-21.52
-24.25
-26.38
-27.32
-26.53
-23.75
-19.14
-13.25
-6.86
-0.73
4.61
8.90
12.14
14.42
15.85
16.56
16.66
16.32
15.74
15.16
14.73
14.57
14.64
14.85
15.05
15.15
15.14
15.06
14.98
14.92
14.79
14.46
13.80
12.81
11.57
10.23
8.97
7.82
6.75
5.63
4.36
2.91
1.34
-0.25
-1.78
-3.22
-4.61
-6.08
-7.76
-9.77
-12.20
-15.00
-18.02
-20.94
-23.28
-24.56
-24.38
-22.60
-19.40
-15.26
-10.75
-6.43
-2.67
0.38
2.73
4.53
5.93
7.05
8.00
8.81
9.47
10.00
10.41
10.78
11.17
11.60
12.04
12.45
12.77
12.95
13.02
12.93
12.67
12.17
11.37
10.29
9.02
7.66
6.31
5.00
3.68
2.30
0.82
-0.75
-2.33
-3.83
-5.21
-6.51
-7.82
-9.38
-11.41
-14.06
-17.27
-20.74
-23.92
-26.15
-26.85
-25.70
-22.81
-18.65
-13.92
-9.34
-5.42
-2.36
-0.08
1.63
2.97
3.98
4.62
4.82
4.64
4.24
3.90
3.86
4.20
4.83
5.60
6.34
6.98
7.52
7.97
8.28
8.36
8.11
7.49
6.55
5.39
4.14
2.86
1.52
0.09
-1.48
-3.16
-4.84
-6.38
-7.70
-8.77
-9.79
-10.96
-12.56
-14.74
-17.53
-20.72
-23.95
-26.74
-28.59
-29.10
-28.03
-25.37
-21.38
-16.48
-11.21
-6.10
-1.53
2.29
5.30
7.56
9.17
10.23
10.79
10.94
10.79
10.51
10.31
10.33
10.64
11.16
11.73
12.20
12.42
12.38
12.10
11.65
11.07
10.38
9.51
8.40
7.02
5.39
3.59
1.73
-0.11
-1.86
-3.51
-5.07
-6.53
-7.93
-9.27
-10.62
-12.12
-13.95
-16.26
-19.08
-22.19
-25.15
-27.33
-28.13
-27.12
-24.29
-19.95
-14.68
-9.13
-3.78
1.04
5.19
8.57
11.15
12.90
13.86
14.21
14.14
13.85
13.50
13.15
12.85
12.71
12.83
13.30
14.10
15.02
15.78
16.08
15.76
14.85
13.55
12.09
10.66
9.35
8.19
7.16
6.20
5.23
4.17
2.95
1.52
-0.06
-1.69
-3.31
-4.90
-6.57
-8.50
-10.86
-13.72
-16.99
-20.33
-23.27
-25.20
-25.62
-24.26
-21.19
-16.86
-11.91
-7.03
-2.71
0.83
3.61
5.76
7.45
8.72
9.59
10.06
10.23
10.29
10.45
10.86
11.52
12.31
13.04
13.58
13.91
14.08
14.12
14.02
13.69
13.04
12.02
10.69
9.15
7.52
5.84
4.08
2.18
0.08
-2.22
-4.66
-7.11
-9.47
-11.65
-13.71
-15.78
-18.07
-20.77
-23.89
-27.19
-30.14
-32.10
-32.46
-30.91
-27.49
-22.65
-17.01
-11.26
-5.92
-1.33
2.38
5.19
7.19
8.49
9.23
9.59
9.70
9.69
9.68
9.75
9.99
10.42
11.00
11.61
12.04
12.12
11.76
10.99
9.98
8.88
7.78
6.68
5.50
4.17
2.70
1.12
-0.51
-2.17
-3.91
-5.77
-7.77
-9.88
-12.06
-14.37
-16.94
-19.89
-23.25
-26.77
-29.94
-32.07
-32.56
-31.07
-27.65
-22.70
-16.83
-10.68
-4.81
0.41
4.72
8.06
10.45
11.99
12.84
13.17
13.08
12.70
12.17
11.65
11.39
11.54
12.15
13.03
13.90
14.44
14.50
14.07
13.29
12.31
11.22
10.02
8.72
7.34
5.94
4.58
3.27
1.93
0.49
-1.14
-3.00
-5.07
-7.33
-9.75
-12.34
-15.13
-18.15
-21.40
-24.75
-27.89
-30.27
-31.26
-30.33
-27.24
-22.24
-15.98
-9.36
-3.21
1.95
5.93
8.84
10.90
12.29
13.12
13.47
13.46
13.32
13.31
13.65
14.41
15.50
16.69
17.76
18.58
19.12
19.42
19.52
19.42
19.08
18.45
17.55
16.43
15.18
13.87
12.51
11.08
9.46
7.58
5.40
3.04
0.62
-1.71
-3.92
-6.15
-8.56
-11.36
-14.63
-18.28
-22.00
-25.30
-27.59
-28.25
-26.84
-23.19
-17.60
-10.80
-3.74
2.63
7.66
11.15
13.31
14.58
15.37
15.90
16.17
16.04
15.40
14.31
13.01
11.92
11.42
11.75
12.83
14.18
15.13
14.96
13.21
9.97
5.88
2.01
-0.69
-1.56
-0.73
1.01
2.54
2.77
0.95
-3.15
-9.11
-15.86
-21.62
-24.33
-22.17
-14.45
-2.33
11.26
22.36
27.55
25.40
17.07
5.86
-4.27
-10.37
-11.51
-8.75
-4.21
0.19
3.50
5.82
7.80
9.88
12.00
13.54
13.98
13.25
11.91
10.88
10.96
12.32
14.43
16.36
17.17
16.51
14.57
12.05
9.73
8.09
7.19
6.64
5.92
4.58
2.50
-0.13
-2.90
-5.38
-7.34
-8.79
-9.99
-11.35
-13.26
-15.99
-19.57
-23.82
-28.38
-32.72
-36.19
-38.15
-38.15
-36.04
-32.12
-27.07
-21.70
-16.72
-12.56
-9.25
-6.62
-4.48
-2.75
-1.48
-0.71
-0.37
-0.18
0.23
1.18
2.71
4.65
6.59
8.11
8.96
9.11
8.79
8.34
8.01
7.80
7.54
6.92
5.68
3.81
1.50
-0.88
-3.04
-4.79
-6.23
-7.59
-9.18
-11.22
-13.84
-17.01
-20.58
-24.24
-27.53
-29.90
-30.76
-29.72
-26.72
-22.05
-16.38
-10.43
-4.84
0.06
4.14
7.50
10.18
12.17
13.36
13.73
13.37
12.59
11.79
11.36
11.46
12.02
12.80
13.45
13.76
13.69
13.32
12.76
12.08
11.20
10.01
8.44
6.56
4.52
2.53
0.74
-0.83
-2.31
-3.86
-5.66
-7.86
-10.55
-13.82
-17.63
-21.82
-25.97
-29.44
-31.49
-31.51
-29.24
-24.86
-18.94
-12.30
-5.74
0.20
5.25
9.37
12.62
15.03
16.61
17.41
17.60
17.51
17.43
17.60
18.05
18.62
19.06
19.19
18.97
18.50
17.90
17.33
16.82
16.33
15.74
14.86
13.52
11.59
9.11
6.29
3.43
0.83
-1.37
-3.23
-4.94
-6.80
-9.09
-12.01
-15.65
-19.91
-24.41
-28.54
-31.46
-32.45
-31.07
-27.41
-22.00
-15.65
-9.14
-3.10
2.09
6.28
9.43
11.60
12.93
13.61
13.87
13.94
14.03
14.33
14.97
15.98
17.27
18.58
19.62
20.12
20.01
19.39
18.51
17.53
16.45
15.11
13.29
10.91
8.12
5.22
2.53
0.20
-1.80
-3.67
-5.63
-7.84
-10.49
-13.70
-17.61
-22.16
-26.97
-31.29
-34.13
-34.63
-32.39
-27.67
-21.31
-14.40
-7.88
-2.34
2.04
5.34
7.72
9.26
10.03
10.08
9.56
8.78
8.07
7.73
7.95
8.72
9.83
10.97
11.88
12.40
12.54
12.42
12.15
11.78
11.20
10.23
8.71
6.60
3.99
1.11
-1.76
-4.44
-6.81
-8.93
-10.96
-13.14
-15.74
-18.99
-23.02
-27.70
-32.64
-37.11
-40.25
-41.25
-39.61
-35.32
-28.88
-21.17
-13.13
-5.59
1.00
6.43
10.72
13.94
16.19
17.53
18.09
18.10
17.82
17.57
17.55
17.82
18.33
18.93
19.39
19.59
19.45
18.96
18.24
17.37
16.42
15.38
14.20
12.75
10.96
8.81
6.38
3.81
1.23
-1.28
-3.71
-6.11
-8.57
-11.23
-14.21
-17.69
-21.77
-26.41
-31.29
-35.76
-38.95
-40.00
-38.33
-33.89
-27.19
-19.14
-10.81
-3.12
3.39
8.53
12.43
15.34
17.52
19.09
20.12
20.61
20.69
20.54
20.43
20.59
21.11
21.91
22.79
23.54
24.00
24.10
23.84
23.19
22.11
20.56
18.56
16.20
13.65
11.10
8.65
6.32
4.06
1.82
-0.45
-2.71
-4.96
-7.17
-9.43
-11.87
