1529086005.00
64.000000
-0.00
-0.00
-0.00
-0.00
-0.00
-0.00
-0.00
-0.00
-0.00
-0.00
0.00
0.01
0.01
-0.00
-0.03
-0.05
-0.05
0.00
0.13
0.36
0.66
1.01
1.37
1.72
2.06
2.40
2.79
3.24
3.80
4.42
5.06
5.66
6.19
6.67
7.15
7.71
8.37
9.20
10.11
10.94
11.60
12.04
12.36
12.77
13.50
14.71
16.59
18.90
21.36
23.64
25.62
27.40
29.34
31.92
35.42
40.15
45.67
51.39
56.71
61.32
65.41
69.59
74.61
80.95
88.96
97.90
106.80
114.73
121.26
126.74
132.10
138.84
145.57
154.20
164.85
177.22
190.02
200.63
205.27
199.93
181.59
149.24
104.71
51.04
-8.09
-69.62
-131.59
-192.93
-252.89
-310.63
-365.29
-415.88
-462.24
-504.54
-543.07
-577.58
-606.69
-627.42
-635.26
-625.17
-593.04
-537.81
-462.26
-372.65
-277.05
-183.04
-95.89
-18.04
50.07
108.85
158.34
198.17
228.05
248.47
260.85
267.22
269.46
268.79
265.62
259.67
250.65
238.68
224.47
209.17
194.00
179.85
167.02
155.24
143.90
132.38
120.34
107.84
95.34
83.42
72.60
63.07
54.70
47.10
39.89
32.84
25.94
19.32
13.19
7.72
3.03
-0.67
-3.32
-4.85
-5.29
-4.83
-3.75
-2.29
-0.58
1.37
3.60
6.11
8.86
11.67
14.31
16.22
16.73
15.30
11.74
6.41
0.19
-5.79
-10.50
-13.33
-14.43
-14.37
-13.95
-13.85
-14.28
-15.08
-15.84
-16.17
-15.95
-15.50
-15.39
-16.06
-17.39
-18.49
-18.03
-14.85
-8.77
-0.70
7.46
13.58
16.17
14.75
9.71
1.89
-7.51
-16.73
-23.30
-24.62
-19.02
-6.92
8.70
23.19
32.03
32.85
25.98
14.95
4.49
-1.82
-2.95
-0.53
2.02
1.22
-5.12
-16.91
-31.34
-43.77
-49.41
-45.38
-32.33
-14.34
2.89
14.55
18.87
17.52
14.00
11.35
10.59
10.51
9.01
4.85
-1.36
-7.30
-10.09
-7.77
-0.43
9.86
19.83
26.19
26.95
22.30
14.77
8.48
7.23
12.63
23.18
34.75
42.64
43.85
38.05
26.00
8.59
-14.33
-42.38
-71.88
-94.82
-101.79
-87.47
-55.07
-16.12
15.17
29.42
26.97
16.71
9.51
11.24
19.68
27.40
27.55
18.87
6.02
-4.07
-6.91
-2.81
3.91
8.49
8.44
4.41
-0.90
-4.62
-5.23
-3.02
0.38
3.23
4.41
3.88
2.57
1.93
3.13
6.30
10.23
12.21
10.06
3.25
-6.60
-16.17
-22.00
-22.00
-16.43
-7.59
1.39
8.06
11.47
12.11
11.18
9.79
8.45
7.11
5.49
3.56
1.49
-0.42
-1.88
-2.81
-3.44
-4.11
-5.08
-6.38
-7.73
-8.78
-9.21
-8.87
-7.79
-6.19
-4.36
-2.67
-1.26
-0.19
0.57
1.13
1.65
2.23
2.90
3.61
4.23
4.68
4.87
4.79
4.51
4.14
3.75
3.31
2.77
2.01
0.95
-0.44
-2.06
-3.73
-5.27
-6.57
-7.61
-8.46
-9.24
-10.03
-10.88
-11.75
-12.54
-13.12
-13.37
-13.24
-12.74
-11.88
-10.67
-9.19
-7.54
-5.78
-3.94
-1.96
0.29
2.98
6.22
9.93
13.59
16.37
17.48
16.64
14.24
10.97
7.48
4.20
1.40
-0.72
-1.98
-2.14
-1.21
0.59
2.74
4.63
5.86
6.34
6.26
6.00
5.95
6.16
6.51
6.78
6.76
6.39
5.72
4.84
3.69
2.31
0.67
-1.27
-3.48
-5.81
-8.01
-9.80
-10.98
-11.47
-11.30
-10.77
-9.99
-9.04
-8.02
-6.97
-5.93
-5.00
-4.23
-3.66
-3.32
-3.11
-2.97
-2.82
-2.59
-2.31
-2.04
-1.86
-1.83
-1.94
-2.11
-2.23
-2.18
-1.89
-1.34
-0.61
0.23
1.08
1.88
2.61
3.24
3.70
3.98
4.11
4.18
4.38
4.82
5.56
6.51
7.49
8.34
8.98
9.43
9.75
9.99
10.13
10.12
9.90
9.46
8.80
7.95
6.91
5.68
4.31
2.91
1.62
0.55
-0.26
-0.84
-1.29
-1.63
-1.88
-1.99
-1.95
-1.75
-1.48
-1.18
-0.88
-0.56
-0.17
0.30
0.82
1.32
1.67
1.76
1.53
1.03
0.35
-0.33
-0.91
-1.34
-1.68
-2.01
-2.38
-2.82
-3.30
-3.81
-4.33
-4.89
-5.48
-6.06
-6.57
-6.95
-7.20
-7.35
-7.44
-7.43
-7.25
-6.79
-6.00
-4.96
-3.83
-2.85
-2.16
-1.81
-1.67
-1.52
-1.15
-0.50
0.35
1.17
1.71
1.84
1.59
1.14
0.73
0.53
0.55
0.69
0.80
0.79
0.63
0.39
0.13
-0.13
-0.44
-0.86
-1.40
-2.02
-2.59
-2.96
-3.07
-2.91
-2.61
-2.29
-2.06
-1.96
-1.93
-1.89
-1.74
-1.45
-1.06
-0.63
-0.25
0.03
0.23
0.37
0.46
0.49
0.41
0.20
-0.10
-0.40
-0.56
-0.53
-0.31
0.01
0.31
0.53
0.68
0.81
0.96
1.11
1.18
1.08
0.80
0.39
-0.00
-0.23
-0.21
0.09
0.56
1.06
1.41
1.49
1.32
0.97
0.60
0.30
0.11
-0.01
-0.15
-0.32
-0.47
-0.50
-0.33
0.09
0.75
1.58
2.50
3.40
4.19
4.76
5.02
4.96
4.61
4.07
3.48
2.98
2.67
2.59
2.73
2.99
3.28
3.50
3.60
3.55
3.35
3.01
2.53
1.92
1.26
0.63
0.13
-0.19
-0.36
-0.43
-0.51
-0.62
-0.77
-0.90
-0.95
-0.92
-0.87
-0.88
-1.04
-1.34
-1.69
-1.97
-2.08
-2.00
-1.80
-1.58
-1.41
-1.29
-1.14
-0.91
-0.59
-0.24
-0.01
0.02
-0.13
-0.35
-0.48
-0.38
0.01
0.65
1.45
2.25
2.92
3.35
3.44
3.23
2.80
2.30
1.87
1.57
1.35
1.13
0.82
0.43
0.02
-0.35
-0.63
-0.85
-1.06
-1.30
-1.55
-1.76
-1.92
-2.02
-2.13
-2.31
-2.57
-2.88
-3.15
-3.31
-3.32
-3.21
-3.02
-2.81
-2.61
-2.39
-2.11
-1.69
-1.10
-0.37
0.42
1.12
1.61
1.82
1.75
1.51
1.23
0.99
0.85
0.76
0.66
0.53
0.41
0.37
0.46
0.66
0.89
1.02
0.96
0.74
0.48
0.32
0.35
0.56
0.81
0.92
0.75
0.28
-0.36
-0.96
-1.32
-1.34
-1.03
-0.51
0.06
0.52
0.80
0.90
0.87
0.80
0.75
0.80
0.96
1.24
1.58
1.88
2.04
2.02
1.83
1.55
1.26
1.03
0.85
0.66
0.41
0.09
-0.25
-0.53
-0.72
-0.82
-0.91
-1.03
-1.20
-1.33
-1.32
-1.14
-0.84
-0.56
-0.45
-0.58
-0.88
-1.21
-1.41
-1.40
-1.22
-0.95
-0.70
-0.49
-0.28
-0.02
0.32
0.68
0.95
1.03
0.92
0.67
0.46
0.41
0.56
0.87
1.17
1.33
1.31
1.14
0.95
0.83
0.81
0.80
0.69
0.40
-0.06
-0.60
-1.11
-1.48
-1.67
-1.70
-1.58
-1.36
-1.06
-0.73
-0.43
-0.23
-0.18
-0.28
-0.48
-0.69
-0.84
-0.90
-0.83
-0.64
-0.31
0.12
0.58
0.99
1.25
1.34
1.29
1.14
0.98
0.82
0.66
0.49
0.32
0.19
0.13
0.15
0.22
0.33
0.45
0.57
0.70
0.82
0.86
0.78
0.53
0.14
-0.32
-0.72
-0.96
-1.01
-0.89
-0.70
-0.58
-0.60
-0.78
-1.01
-1.19
-1.21
-1.05
-0.75
-0.43
-0.16
0.01
0.12
0.23
0.39
0.60
0.81
0.94
0.94
0.80
0.59
0.40
0.34
0.42
0.59
0.75
0.83
0.82
0.76
0.73
0.75
0.81
0.85
0.82
0.69
0.48
0.25
0.03
-0.17
-0.34
-0.51
-0.71
-0.98
-1.31
-1.70
-2.06
-2.31
-2.36
-2.21
-1.90
-1.58
-1.36
-1.34
-1.45
-1.56
-1.53
-1.28
-0.86
-0.40
-0.06
0.11
0.16
0.19
0.28
0.40
0.47
0.37
0.09
-0.28
-0.58
-0.66
-0.48
-0.10
0.32
0.61
0.68
0.50
0.12
-0.38
-0.88
-1.30
-1.56
-1.63
-1.52
-1.32
-1.11
-1.02
-1.08
-1.32
-1.64
-1.93
-2.09
-2.08
-1.92
-1.68
-1.44
-1.21
-0.93
-0.55
-0.00
0.66
1.31
1.82
2.05
1.99
1.68
1.24
0.83
0.54
0.44
0.54
0.78
1.07
1.32
1.44
1.40
1.23
1.00
0.81
0.74
0.80
0.94
1.08
1.16
1.14
1.03
0.88
0.74
0.65
0.60
0.58
0.56
0.53
0.49
0.46
0.43
0.36
0.22
0.01
-0.21
-0.34
-0.27
0.03
0.47
0.86
1.02
0.86
0.47
0.03
-0.22
-0.17
0.13
0.53
0.84
0.95
0.91
0.80
0.71
0.66
0.58
0.36
0.00
-0.44
-0.83
-1.04
-1.06
-0.96
-0.92
-1.09
-1.50
-2.08
-2.66
-3.05
-3.14
-2.94
-2.58
-2.20
-1.88
-1.64
-1.41
-1.12
-0.72
-0.26
0.17
0.48
0.64
0.69
0.72
0.82
1.03
1.30
1.53
1.61
1.50
1.22
0.91
0.67
0.56
0.52
0.43
0.18
-0.26
-0.78
-1.23
-1.48
-1.49
-1.34
-1.17
-1.10
-1.17
-1.34
-1.54
-1.72
-1.81
-1.81
-1.68
-1.42
-1.07
-0.68
-0.35
-0.12
0.01
0.14
0.34
0.66
1.07
1.46
1.73
1.84
1.81
1.73
1.67
1.61
1.48
1.23
0.88
0.53
0.33
0.36
0.62
0.98
1.26
1.36
1.22
0.94
0.63
0.39
0.25
0.20
0.16
0.05
-0.16
-0.46
-0.82
-1.15
-1.36
-1.40
-1.26
-1.00
-0.69
-0.39
-0.14
0.09
0.34
0.59
0.82
0.95
0.97
0.88
0.74
0.61
0.56
0.62
0.77
1.00
1.23
1.41
1.46
1.33
1.05
0.71
0.37
0.08
-0.26
-0.76
-1.57
-2.74
-4.25
-6.02
-7.96
-10.02
-12.14
-14.20
-16.03
-17.42
-18.20
-18.31
-17.84
-16.97
-15.93
-14.88
-13.93
-13.17
-12.64
-12.35
-12.31
-12.46
-12.73
-13.01
-13.24
-13.34
-13.25
-12.89
-12.17
-10.98
-9.23
-6.87
-3.93
-0.47
3.37
7.42
11.49
15.43
19.10
22.40
25.25
27.58
29.34
30.50
31.13
31.36
31.35
31.21
30.94
30.49
29.75
28.69
27.38
26.00
24.70
23.52
22.37
21.06
19.44
17.50
15.36
13.26
11.36
9.71
8.20
6.68
5.05
3.31
1.59
0.04
-1.23
-2.20
-2.98
-3.70
-4.44
-5.22
-5.97
-6.59
-7.07
-7.43
-7.77
-8.13
-8.50
-8.78
-8.86
-8.72
-8.40
-8.06
-7.83
-7.77
-7.83
-7.90
-7.89
-7.79
-7.67
-7.62
-7.71
-7.92
-8.16
-8.34
-8.42
-8.41
-8.39
-8.41
-8.51
-8.64
-8.74
-8.80
-8.83
-8.92
-9.15
-9.54
-10.03
-10.52
-10.91
-11.17
-11.39
-11.69
-12.16
-12.79
-13.43
-13.88
-13.98
-13.70
-13.15
-12.50
-11.84
-11.18
-10.38
-9.28
-7.76
-5.78
-3.38
-0.59
2.57
6.08
9.84
13.63
17.19
20.24
22.70
24.59
26.06
27.13
27.70
27.50
26.30
24.00
20.80
17.11
13.39
10.01
7.13
4.71
2.60
0.70
-1.04
-2.51
-3.60
-4.28
-4.64
-4.84
-5.10
-5.51
-6.03
-6.50
-6.72
-6.59
-6.14
-5.52
-4.88
-4.37
-4.08
-4.01
-4.11
-4.28
-4.45
-4.55
-4.58
-4.60
-4.68
-4.86
-5.09
-5.28
-5.33
-5.23
-5.03
-4.88
-4.89
-5.11
-5.49
-5.92
-6.29
-6.54
-6.65
-6.65
-6.57
-6.44
-6.29
-6.14
-6.00
-5.89
-5.77
-5.56
-5.15
-4.47
-3.52
-2.34
-1.03
0.32
1.63
2.90
4.10
5.21
6.18
6.94
7.42
7.59
7.45
7.05
6.48
5.81
5.13
4.51
3.96
3.48
3.01
2.50
1.90
1.19
0.36
-0.56
-1.52
-2.41
-3.18
-3.76
-4.18
-4.46
-4.63
-4.71
-4.66
-4.45
-4.08
-3.58
-3.04
-2.52
-2.01
-1.50
-0.94
-0.34
0.23
0.68
0.98
1.17
1.37
1.67
2.10
2.57
2.96
3.15
3.14
3.00
2.85
2.77
2.76
2.80
2.83
2.87
2.92
3.01
3.13
3.21
3.16
2.95
2.60
2.22
1.90
1.72
1.66
1.64
1.58
1.43
1.16
0.83
0.51
0.26
0.14
0.16
0.33
0.59
0.89
1.16
1.37
1.50
1.57
1.60
1.60
1.56
1.47
1.35
1.20
1.04
0.88
0.73
0.60
0.50
0.45
0.45
0.50
0.60
0.71
0.82
0.88
0.86
0.76
0.57
0.33
0.12
-0.02
-0.07
-0.07
-0.08
-0.15
-0.27
-0.36
-0.37
-0.25
-0.07
0.08
0.09
-0.05
-0.26
-0.42
-0.42
-0.22
0.08
0.37
0.52
0.54
0.48
0.47
0.59
0.85
1.15
1.37
1.41
1.30
1.11
0.98
0.97
1.05
1.13
1.11
0.96
0.74
0.56
0.52
0.62
0.79
0.90
0.87
0.71
0.50
0.34
0.31
0.39
0.55
0.74
0.96
1.21
1.50
1.82
2.13
2.38
2.55
2.66
2.74
2.86
3.02
3.21
3.39
3.51
3.58
3.62
3.64
3.66
3.66
3.58
3.37
3.01
2.57
2.16
1.93
1.94
2.15
2.44
2.67
2.75
2.71
2.65
2.68
2.84
3.11
3.40
3.65
3.84
4.01
4.20
4.40
4.51
4.42
4.08
3.49
2.75
2.01
1.31
0.65
-0.04
-0.77
-1.52
-2.19
-2.66
-2.88
-2.90
-2.83
-2.79
-2.89
-3.14
-3.48
-3.83
-4.07
-4.14
-4.01
-3.68
-3.22
-2.69
-2.16
-1.67
-1.25
-0.87
-0.52
-0.22
0.00
0.14
0.20
0.19
0.20
0.27
0.40
0.53
0.58
0.49
0.23
-0.14
-0.54
-0.91
-1.23
-1.54
-1.89
-2.29
-2.74
-3.17
-3.53
-3.82
-4.09
-4.41
-4.81
-5.29
-5.76
-6.15
-6.40
-6.49
-6.50
-6.48
-6.49
-6.49
-6.43
-6.24
-5.85
-5.29
-4.64
-3.99
-3.41
-2.93
-2.56
-2.24
-1.92
-1.57
-1.14
-0.65
-0.11
0.45
0.95
1.32
1.51
1.47
1.25
0.94
0.65
0.45
0.38
0.37
0.32
0.13
-0.19
-0.58
-0.91
-1.09
-1.07
-0.88
-0.59
-0.28
-0.00
0.23
0.40
0.48
0.47
0.39
0.26
0.16
0.14
0.24
0.43
0.66
0.85
0.90
0.76
0.40
-0.15
-0.82
-1.49
-2.04
-2.39
-2.49
-2.39
-2.13
-1.82
-1.53
-1.34
-1.28
-1.36
-1.55
-1.78
-1.96
-2.00
-1.88
-1.60
-1.23
-0.85
-0.50
-0.20
0.08
0.35
0.66
0.98
1.31
1.62
1.86
2.00
2.00
1.87
1.71
1.62
1.68
1.88
2.08
2.12
1.84
1.21
0.26
-0.75
-1.61
-2.18
-2.50
-2.74
-3.03
-3.53
-4.12
-4.70
-4.96
-4.71
-3.98
-2.93
-1.84
-0.85
-0.04
0.81
1.93
3.72
6.44
10.16
14.80
20.08
25.74
31.39
36.92
40.48
40.54
36.46
29.14
20.40
11.87
5.46
0.73
-2.91
-5.85
-7.96
-8.95
-8.96
-8.14
-6.85
-5.47
-4.45
-3.88
-3.69
-3.58
-3.23
-2.53
-1.48
-0.30
0.77
1.50
1.96
2.27
2.61
3.10
3.70
4.25
4.57
4.57
4.22
3.71
3.24
2.95
2.92
3.12
3.50
3.99
4.55
5.11
5.66
6.17
6.62
6.97
7.17
7.17
6.92
6.40
5.65
4.78
3.94
3.20
2.61
2.10
1.57
0.92
0.07
-0.96
-2.13
-3.40
-4.73
-6.09
-7.47
-8.81
-10.02
-11.02
-11.74
-12.18
-12.35
-12.33
-12.23
-12.13
-12.10
-12.16
-12.31
-12.47
-12.57
-12.53
-12.30
-11.88
-11.28
-10.58
-9.84
-9.11
-8.46
-7.92
-7.54
-7.28
-7.12
-6.99
-6.82
-6.61
-6.35
-6.08
-5.86
-5.75
-5.80
-5.99
-6.25
-6.44
-6.38
-5.96
-5.23
-4.36
-3.63
-3.23
-3.18
-3.34
-3.47
-3.39
-3.07
-2.65
-2.31
-2.13
-2.07
-1.96
-1.64
-1.09
-0.38
0.35
0.96
1.45
1.86
2.28
2.73
3.17
3.53
3.70
3.67
3.43
3.06
2.67
2.39
2.30
2.40
2.61
2.77
2.73
2.44
1.98
1.52
1.17
1.01
1.00
1.04
1.07
1.09
1.14
1.26
1.41
1.53
1.59
1.57
1.51
1.48
1.52
1.62
1.74
1.86
1.97
2.08
2.25
2.51
2.85
3.24
3.61
3.85
3.92
3.78
3.46
3.01
2.52
2.05
1.64
1.30
1.03
0.80
0.55
0.23
-0.23
-0.83
-1.53
-2.23
-2.85
-3.33
-3.68
-3.95
-4.19
-4.39
-4.53
-4.54
-4.42
-4.25
-4.12
-4.12
-4.23
-4.30
-4.17
-3.73
-3.00
-2.14
-1.32
-0.64
-0.09
0.45
1.09
1.85
2.65
3.33
3.76
3.89
3.83
3.71
3.71
3.88
4.20
4.52
4.73
4.75
4.60
4.40
4.24
4.19
4.26
4.41
4.60
4.80
5.01
5.23
5.47
5.72
5.94
6.12
6.27
6.39
6.53
6.71
7.00
7.41
7.97
8.60
9.24
9.77
10.15
10.36
10.46
10.49
10.52
10.53
10.44
10.15
9.53
8.53
7.18
5.61
4.01
2.55
1.36
0.48
-0.11
-0.45
-0.64
-0.73
-0.78
-0.78
-0.70
-0.51
-0.18
0.27
0.72
1.02
1.04
0.71
0.09
-0.64
-1.33
-1.85
-2.15
-2.28
-2.30
-2.28
-2.25
-2.23
-2.17
-2.03
-1.80
-1.48
-1.16
-0.93
-0.92
-1.17
-1.63
-2.13
-2.48
-2.52
-2.27
-1.89
-1.60
-1.62
-2.01
-2.70
-3.58
-4.52
-5.49
-6.53
-7.65
-8.84
-10.01
-11.04
-11.85
-12.44
-12.91
-13.36
-13.88
-14.46
-15.08
-15.65
-16.12
-16.47
-16.69
-16.77
-16.67
-16.38
-15.89
-15.25
-14.54
-13.86
-13.28
-12.82
-12.42
-11.99
-11.42
-10.67
-9.75
-8.75
-7.75
-6.78
-5.84
-4.89
-3.91
-2.96
-2.09
-1.40
-0.89
-0.52
-0.21
0.12
0.45
0.75
0.94
1.00
0.92
0.75
0.55
0.40
0.36
0.49
0.82
1.33
1.97
2.63
3.21
3.61
3.78
3.74
3.55
3.32
3.21
3.30
3.61
4.04
4.45
4.68
4.68
4.50
4.22
3.94
3.71
3.52
3.36
3.20
3.07
2.96
2.88
2.83
2.82
2.86
2.96
3.12
3.25
3.27
3.11
2.77
2.33
1.92
1.64
1.54
1.56
1.63
1.62
1.50
1.28
1.06
0.98
1.08
1.35
1.67
1.88
1.90
1.75
1.55
1.42
1.44
1.58
1.75
1.87
1.89
1.87
1.86
1.90
1.99
2.07
2.08
2.00
1.83
1.58
1.29
0.98
0.67
0.41
0.23
0.15
0.19
0.32
0.48
0.60
0.58
0.38
0.02
-0.39
-0.69
-0.75
-0.49
0.01
0.62
1.17
1.52
1.65
1.62
1.51
1.41
1.37
1.37
1.38
1.35
1.26
1.10
0.93
0.76
0.64
0.54
0.43
0.25
-0.02
-0.32
-0.56
-0.68
-0.67
-0.60
-0.59
-0.75
-1.08
-1.46
-1.72
-1.72
-1.47
-1.10
-0.78
-0.61
-0.58
-0.58
-0.49
-0.28
0.01
0.28
0.45
0.53
0.56
0.61
0.73
0.88
1.04
1.13
1.12
0.98
0.73
0.40
0.08
-0.14
-0.20
-0.07
0.18
0.43
0.58
0.54
0.31
-0.04
-0.41
-0.71
-0.90
-1.02
-1.09
-1.15
-1.17
-1.10
-0.91
-0.64
-0.37
-0.18
-0.09
-0.07
-0.03
0.09
0.32
0.58
0.76
0.80
0.69
0.53
0.45
0.53
0.76
1.07
1.34
1.50
1.51
1.43
1.30
1.14
0.93
0.62
0.21
-0.22
-0.51
-0.55
-0.30
0.12
0.49
0.65
0.50
0.13
-0.30
-0.62
-0.74
-0.69
-0.52
-0.28
0.02
0.41
0.92
1.48
1.98
2.26
2.23
1.86
1.28
0.65
0.18
-0.03
0.04
0.32
0.67
0.97
1.18
1.28
1.33
1.36
1.37
1.32
1.15
0.84
0.42
0.02
-0.27
-0.40
-0.40
-0.40
-0.51
-0.76
-1.09
-1.35
-1.40
-1.18
-0.76
-0.26
0.15
0.37
0.41
0.34
0.28
0.31
0.44
0.61
0.73
0.71
0.53
0.26
-0.01
-0.16
-0.17
-0.10
-0.05
-0.13
-0.34
-0.59
-0.77
-0.79
-0.64
-0.44
-0.33
-0.39
-0.64
-1.01
-1.37
-1.66
-1.86
-2.01
-2.15
-2.24
-2.25
-2.09
-1.74
-1.21
-0.61
-0.03
0.43
0.69
0.78
0.72
0.60
0.53
0.58
0.80
1.15
1.53
1.81
1.89
1.73
1.36
0.88
0.44
0.11
-0.04
-0.03
0.08
0.21
0.24
0.13
-0.14
-0.51
-0.89
-1.17
-1.27
-1.20
-1.06
-0.94
-0.93
-1.04
-1.24
-1.42
-1.51
-1.44
-1.23
-0.90
-0.52
-0.15
0.18
0.46
0.71
0.95
1.18
1.40
1.55
1.60
1.56
1.46
1.37
1.35
1.40
1.46
1.44
1.31
1.09
0.86
0.75
0.82
1.00
1.20
1.26
1.07
0.67
0.17
-0.27
-0.50
-0.51
-0.39
-0.29
-0.32
-0.53
-0.83
-1.09
-1.19
-1.08
-0.78
-0.35
0.10
0.50
0.80
0.97
1.00
0.92
0.81
0.74
0.76
0.87
1.04
1.20
1.32
1.38
1.40
1.34
1.20
0.94
0.62
0.34
0.21
0.30
0.55
0.82
0.96
0.88
0.57
0.13
-0.33
-0.71
-0.97
-1.11
-1.16
-1.15
-1.12
-1.11
-1.12
-1.14
-1.15
-1.11
-1.02
-0.88
-0.67
-0.40
-0.05
0.38
0.83
1.19
1.38
1.38
1.25
1.10
1.03
1.06
1.13
1.14
1.00
0.72
0.40
0.16
0.07
0.14
0.30
0.44
0.48
0.40
0.21
-0.05
-0.31
-0.57
-0.80
-1.02
-1.22
-1.38
-1.51
-1.62
-1.73
-1.86
-2.02
-2.20
-2.36
-2.46
-2.44
-2.28
-1.96
-1.48
-0.91
-0.31
0.24
0.68
0.97
1.15
1.28
1.40
1.50
1.56
1.53
1.40
1.24
1.10
1.02
0.99
0.93
0.81
0.63
0.47
0.39
0.43
0.51
0.53
0.40
0.10
-0.28
-0.63
-0.85
-0.90
-0.84
-0.75
-0.72
-0.82
-1.06
-1.40
-1.73
-1.92
-1.86
-1.49
-0.88
-0.17
0.45
0.84
0.91
0.72
0.38
0.07
-0.08
-0.01
0.27
0.66
1.04
1.30
1.39
1.33
1.18
1.05
1.00
1.04
1.14
1.23
1.24
1.16
1.04
0.90
0.78
0.67
0.54
0.36
0.13
-0.14
-0.44
-0.74
-1.06
-1.38
-1.65
-1.82
-1.89
-1.87
-1.85
-1.89
-1.99
-2.05
-1.93
-1.52
-0.84
-0.04
0.69
1.17
1.34
1.25
1.06
0.88
0.78
0.77
0.80
0.84
0.86
0.87
0.88
0.89
0.89
0.86
0.76
0.58
0.35
0.14
0.03
0.07
0.25
0.47
0.61
0.60
0.41
0.09
-0.24
-0.51
-0.69
-0.77
-0.77
-0.66
-0.44
-0.13
0.22
0.49
0.59
0.52
0.39
0.34
0.47
0.77
1.16
1.46
1.59
1.54
1.36
1.19
1.11
1.12
1.21
1.32
1.39
1.39
1.29
1.08
0.77
0.43
0.12
-0.08
-0.17
-0.15
-0.11
-0.09
-0.13
-0.23
-0.33
-0.41
-0.45
-0.50
-0.56
-0.66
-0.79
-0.88
-0.90
-0.83
-0.65
-0.41
-0.14
0.14
0.41
0.66
0.87
1.00
1.05
1.06
1.05
1.04
1.03
0.97
0.85
0.70
0.59
0.59
0.68
0.78
0.77
0.57
0.19
-0.25
-0.63
-0.83
-0.86
-0.77
-0.67
-0.61
-0.66
-0.82
-1.12
-1.54
-2.03
-2.49
-2.80
-2.88
-2.70
-2.31
-1.77
-1.17
-0.60
-0.09
0.31
0.58
0.73
0.80
0.86
0.95
1.09
1.24
1.33
1.35
1.32
1.28
1.28
1.28
1.19
0.96
0.59
0.19
-0.10
-0.18
-0.10
-0.02
-0.13
-0.53
-1.19
-1.98
-2.68
-3.15
-3.31
-3.19
-2.87
-2.44
-2.00
-1.62
-1.32
-1.05
-0.79
-0.49
-0.18
0.09
0.26
0.32
0.33
0.39
0.55
0.82
1.11
1.32
1.39
1.34
1.23
1.18
1.23
1.35
1.41
1.33
1.04
0.58
0.09
-0.29
-0.48
-0.48
-0.36
-0.25
-0.27
-0.46
-0.79
-1.20
-1.62
-1.98
-2.26
-2.43
-2.44
-2.27
-1.93
-1.48
-0.99
-0.52
-0.10
0.26
0.60
0.94
1.28
1.60
1.88
2.06
2.11
2.03
1.84
1.63
1.44
1.33
1.27
1.22
1.09
0.85
0.54
0.24
0.06
0.05
0.20
0.42
0.57
0.52
0.20
-0.35
-1.03
-1.67
-2.10
-2.26
-2.17
-1.95
-1.75
-1.67
-1.72
-1.84
-1.91
-1.84
-1.58
-1.16
-0.63
-0.06
0.47
0.94
1.31
1.59
1.79
1.89
1.88
1.74
1.52
1.29
1.16
1.23
1.50
1.89
2.23
2.35
2.13
1.60
0.84
0.06
-0.59
-0.97
-1.09
-1.03
-0.89
-0.77
-0.73
-0.79
-0.91
-1.06
-1.23
-1.37
-1.48
-1.52
-1.44
-1.23
-0.87
-0.40
0.12
0.60
0.98
1.20
1.26
1.23
1.21
1.30
1.56
1.91
2.22
2.34
2.18
1.77
1.21
0.65
0.21
-0.04
-0.07
0.08
0.37
0.71
1.00
1.15
1.10
0.84
0.43
-0.06
-0.56
-1.05
-1.52
-1.96
-2.30
-2.49
-2.45
-2.19
-1.74
-1.21
-0.72
-0.33
-0.06
0.17
0.42
0.74
1.08
1.36
1.49
1.47
1.38
1.33
1.39
1.55
1.69
1.66
1.41
1.00
0.59
0.36
0.39
0.64
0.94
1.11
1.06
0.78
0.35
-0.08
-0.39
-0.52
-0.51
-0.45
-0.45
-0.59
-0.89
-1.27
-1.64
-1.87
-1.93
-1.80
-1.54
-1.20
-0.81
-0.38
0.08
0.54
1.00
1.45
1.87
2.26
2.58
2.78
2.77
2.54
2.13
1.65
1.24
0.97
0.84
0.78
0.72
0.59
0.38
0.16
-0.02
-0.13
-0.17
-0.18
-0.19
-0.21
-0.19
-0.11
0.03
0.17
0.23
0.11
-0.19
-0.61
-1.05
-1.39
-1.53
-1.45
-1.16
-0.73
-0.25
0.20
0.54
0.73
0.79
0.79
0.81
0.89
1.04
1.23
1.38
1.43
1.34
1.12
0.80
0.47
0.20
0.05
0.01
0.02
-0.02
-0.16
-0.39
-0.65
-0.86
-1.00
-1.08
-1.20
-1.43
-1.77
-2.15
-2.48
-2.65
-2.66
-2.57
-2.45
-2.36
-2.31
-2.20
-1.93
-1.45
-0.75
0.08
0.89
1.54
1.91
1.99
1.80
1.45
1.04
0.69
0.51
0.54
0.79
1.18
1.56
1.81
1.81
1.56
1.09
0.53
0.01
-0.36
-0.57
-0.64
-0.65
-0.67
-0.77
-0.99
-1.34
-1.80
-2.29
-2.75
-3.07
-3.17
-3.02
-2.60
-2.01
-1.35
-0.75
-0.28
0.05
0.28
0.49
0.72
0.97
1.19
1.32
1.35
1.30
1.23
1.20
1.21
1.24
1.24
1.21
1.14
1.03
0.88
0.68
0.44
0.18
-0.05
-0.23
-0.34
-0.42
-0.52
-0.69
-0.95
-1.26
-1.59
-1.90
-2.19
-2.44
-2.63
-2.72
-2.64
-2.35
-1.85
-1.23
-0.61
-0.10
0.26
0.47
0.58
0.65
0.67
0.66
0.61
0.60
0.71
1.01
1.46
1.97
2.37
2.55
2.49
2.27
2.01
1.77
1.54
1.26
0.88
0.44
0.02
-0.27
-0.37
-0.36
-0.35
-0.44
-0.65
-0.91
-1.09
-1.10
-1.00
-0.91
-0.98
-1.28
-1.72
-2.09
-2.16
-1.80
-1.06
-0.12
0.73
1.31
1.54
1.53
1.45
1.46
1.64
1.95
2.26
2.48
2.52
2.39
2.14
1.86
1.61
1.39
1.17
0.89
0.51
0.07
-0.35
-0.64
-0.72
-0.58
-0.35
-0.17
-0.17
-0.42
-0.84
-1.34
-1.79
-2.09
-2.21
-2.17
-2.00
-1.75
-1.44
-1.09
-0.68
-0.24
0.20
0.59
0.87
1.02
1.04
1.02
1.06
1.23
1.50
1.79
1.98
1.98
1.78
1.46
1.15
0.95
0.88
0.88
0.89
0.82
0.70
0.56
0.42
0.27
0.08
-0.20
-0.53
-0.88
-1.14
-1.28
-1.33
-1.35
-1.42
-1.60
-1.88
-2.21
-2.54
-2.78
-2.89
-2.81
-2.52
-2.03
-1.37
-0.64
0.06
0.61
0.98
1.18
1.30
1.43
1.65
1.94
2.24
2.41
2.37
2.09
1.63
1.15
0.79
0.62
0.60
0.59
0.46
0.13
-0.28
-0.62
-0.72
-0.54
-0.20
0.08
0.10
-0.23
-0.81
-1.47
-2.04
-2.43
-2.64
-2.71
-2.68
-2.58
-2.41
-2.20
-1.97
-1.74
-1.48
-1.14
-0.69
-0.13
0.48
1.03
1.42
1.62
1.65
1.62
1.63
1.75
1.96
2.19
2.36
2.41
2.34
2.19
2.00
1.81
1.62
1.41
1.17
0.90
0.64
0.41
0.27
0.25
0.33
0.45
0.49
0.33
-0.10
-0.77
-1.53
-2.17
-2.53
-2.55
-2.32
-1.96
-1.60
-1.29
-1.02
-0.73
-0.41
-0.07
0.24
0.50
0.71
0.93
1.22
1.58
1.98
2.31
2.48
2.44
2.22
1.91
1.59
1.32
1.09
0.89
0.72
0.62
0.62
0.70
0.76
0.70
0.45
0.05
-0.40
-0.78
-1.01
-1.13
-1.21
-1.35
-1.58
-1.91
-2.23
-2.45
-2.48
-2.30
-1.92
-1.42
-0.90
-0.41
-0.02
0.30
0.58
0.85
1.16
1.48
1.80
2.03
2.14
2.08
1.91
1.68
1.51
1.44
1.45
1.46
1.38
1.14
0.76
0.30
-0.18
-0.63
-1.03
-1.38
-1.61
-1.72
-1.71
-1.65
-1.65
-1.79
-2.12
-2.54
-2.93
-3.16
-3.18
-2.98
-2.66
-2.29
-1.95
-1.63
-1.30
-0.92
-0.42
0.21
0.93
1.64
2.21
2.53
2.54
2.26
1.81
1.29
0.84
0.53
0.38
0.37
0.47
0.62
0.76
0.85
0.85
0.74
0.55
0.29
-0.03
-0.40
-0.80
-1.24
-1.69
-2.11
-2.47
-2.70
-2.77
-2.65
-2.35
-1.96
-1.55
-1.22
-0.99
-0.85
-0.71
-0.46
-0.02
0.61
1.31
1.94
2.36
2.50
2.41
2.17
1.88
1.63
1.45
1.34
1.31
1.34
1.42
1.47
1.41
1.18
0.76
0.26
-0.21
-0.51
-0.62
-0.60
-0.57
-0.66
-0.94
-1.37
-1.86
-2.33
-2.70
-2.97
-3.14
-3.25
-3.27
-3.15
-2.86
-2.36
-1.70
-1.00
-0.37
0.13
0.53
0.90
1.31
1.75
2.12
2.30
2.21
1.88
1.47
1.15
1.06
1.20
1.46
1.72
1.86
1.84
1.72
1.53
1.34
1.16
0.98
0.78
0.55
0.29
0.01
-0.30
-0.65
-1.03
-1.43
-1.78
-2.00
-2.03
-1.84
-1.48
-1.02
-0.54
-0.12
0.25
0.57
0.87
1.12
1.31
1.40
1.41
1.42
1.47
1.58
1.71
1.76
1.67
1.41
1.02
0.60
0.25
0.02
-0.09
-0.15
-0.20
-0.30
-0.48
-0.71
-0.98
-1.21
-1.35
-1.35
-1.20
-0.98
-0.81
-0.83
-1.08
-1.53
-2.03
-2.40
-2.47
-2.18
-1.60
-0.90
-0.21
0.35
0.76
1.07
1.30
1.44
1.48
1.38
1.14
0.83
0.52
0.29
0.18
0.18
0.28
0.47
0.72
0.95
1.11
1.12
0.96
0.65
0.31
-0.01
-0.27
-0.49
-0.73
-1.00
-1.30
-1.58
-1.83
-2.05
-2.27
-2.51
-2.78
-3.00
-3.10
-3.00
-2.67
-2.14
-1.50
-0.85
-0.27
0.23
0.65
1.04
1.42
1.78
2.07
2.25
2.29
2.21
2.10
2.02
2.01
2.04
2.05
1.94
1.67
1.28
0.87
0.59
0.46
0.46
0.44
0.32
0.06
-0.26
-0.55
-0.74
-0.86
-1.01
-1.28
-1.66
-2.04
-2.28
-2.29
-2.09
-1.75
-1.38
-1.02
-0.64
-0.24
0.19
0.61
0.97
1.24
1.46
1.68
1.93
2.23
2.50
2.67
2.67
2.48
2.12
1.68
1.26
0.93
0.75
0.69
0.71
0.75
0.76
0.73
0.65
0.51
0.28
-0.07
-0.51
-0.94
-1.25
-1.34
-1.25
-1.08
-0.97
-1.02
-1.19
-1.36
-1.36
-1.12
-0.65
-0.09
0.43
0.82
1.07
1.22
1.34
1.45
1.55
1.60
1.60
1.55
1.46
1.36
1.27
1.17
1.06
0.93
0.77
0.62
0.50
0.41
0.31
0.21
0.12
0.06
0.08
0.16
0.24
0.24
0.07
-0.29
-0.80
-1.38
-1.94
-2.39
-2.68
-2.74
-2.52
-2.01
-1.29
-0.53
0.07
0.35
0.32
0.12
-0.00
0.10
0.46
0.92
1.29
1.42
1.30
1.06
0.88
0.88
1.04
1.25
1.36
1.28
1.00
0.60
0.16
-0.23
-0.50
-0.63
-0.63
-0.55
-0.48
-0.51
-0.72
-1.09
-1.57
-2.05
-2.43
-2.64
-2.67
-2.53
-2.23
-1.79
-1.25
-0.68
-0.13
0.35
0.75
1.10
1.43
1.73
1.99
2.15
2.18
2.09
1.94
1.78
1.64
1.51
1.35
1.15
0.90
0.67
0.53
0.50
0.53
0.50
0.29
-0.14
-0.77
-1.48
-2.12
-2.59
-2.86
-2.99
-3.03
-3.05
-3.09
-3.16
-3.23
-3.27
-3.21
-3.00
-2.61
-2.05
-1.35
-0.58
0.20
0.94
1.59
2.08
2.37
2.45
2.34
2.12
1.90
1.77
1.76
1.82
1.87
1.81
1.62
1.34
1.05
0.82
0.68
0.56
0.38
0.08
-0.32
-0.77
-1.18
-1.50
-1.73
-1.90
-2.05
-2.17
-2.24
-2.24
-2.22
-2.21
-2.21
-2.20
-2.06
-1.71
-1.15
-0.45
0.22
0.72
1.02
1.19
1.34
1.51
1.67
1.72
1.62
1.37
1.10
0.88
0.79
0.80
0.83
0.85
0.84
0.85
0.89
0.97
1.02
0.94
0.68
0.24
-0.29
-0.84
-1.33
-1.73
-2.04
-2.29
-2.50
-2.67
-2.76
-2.74
-2.60
-2.37
-2.12
-1.87
-1.61
-1.34
-1.01
-0.62
-0.19
0.26
0.73
1.21
1.65
2.00
2.20
2.24
2.19
2.12
2.12
2.17
2.19
2.07
1.79
1.40
1.02
0.77
0.70
0.73
0.75
0.65
0.40
0.04
-0.35
-0.69
-0.96
-1.15
-1.28
-1.35
-1.39
-1.40
-1.41
-1.40
-1.35
-1.21
-0.93
-0.48
0.13
0.84
1.53
2.11
2.52
2.76
2.85
2.81
2.66
2.43
2.15
1.86
1.62
1.45
1.34
1.22
1.01
0.67
0.22
-0.25
-0.64
-0.88
-0.98
-0.97
-0.94
-0.94
-1.00
-1.11
-1.26
-1.46
-1.70
-1.95
-2.18
-2.33
-2.34
-2.19
-1.87
-1.41
-0.87
-0.34
0.12
0.44
0.63
0.74
0.83
0.97
1.18
1.44
1.74
2.01
2.23
2.36
2.37
2.23
1.94
1.56
1.12
0.68
0.23
-0.23
-0.69
-1.11
-1.40
-1.48
-1.36
-1.13
-0.98
-1.04
-1.36
-1.87
-2.39
-2.74
-2.81
-2.62
-2.28
-1.94
-1.69
-1.52
-1.34
-1.06
-0.66
-0.18
0.26
0.56
0.70
0.76
0.84
1.02
1.31
1.63
1.88
1.98
1.88
1.62
1.24
0.85
0.53
0.36
0.37
0.52
0.70
0.76
0.60
0.21
-0.31
-0.83
-1.20
-1.39
-1.46
-1.49
-1.56
-1.66
-1.76
-1.83
-1.86
-1.87
-1.88
-1.84
-1.68
-1.32
-0.78
-0.14
0.46
0.95
1.30
1.54
1.70
1.79
1.78
1.66
1.48
1.34
1.33
1.47
1.68
1.82
1.74
1.43
0.94
0.45
0.09
-0.06
-0.06
-0.02
-0.04
-0.16
-0.35
-0.58
-0.80
-1.04
-1.35
-1.78
-2.28
-2.71
-2.92
-2.76
-2.21
-1.39
-0.50
0.22
0.66
0.82
0.80
0.77
0.86
1.09
1.37
1.55
1.53
1.31
0.97
0.67
0.48
0.45
0.52
0.60
0.64
0.62
0.56
0.47
0.36
0.20
0.01
-0.18
-0.32
-0.39
-0.42
-0.49
-0.63
-0.87
-1.14
-1.36
-1.48
-1.47
-1.38
-1.25
-1.12
-0.98
-0.78
-0.49
-0.12
0.27
0.59
0.80
0.90
0.98
1.15
1.46
1.90
2.35
2.66
2.73
2.53
2.17
1.78
1.47
1.28
1.19
1.13
1.08
1.02
0.98
0.91
0.77
0.52
0.14
-0.25
-0.56
-0.68
-0.66
-0.59
-0.60
-0.75
-0.96
-1.12
-1.11
-0.94
-0.69
-0.50
-0.41
-0.39
-0.34
-0.16
0.15
0.54
0.93
1.23
1.45
1.57
1.59
1.48
1.20
0.76
0.24
-0.23
-0.53
-0.61
-0.47
-0.25
-0.05
0.02
-0.08
-0.31
-0.63
-1.00
-1.38
-1.76
-2.08
-2.31
-2.44
-2.47
-2.44
-2.40
-2.36
-2.31
-2.20
-1.96
-1.57
-1.04
-0.41
0.23
0.81
1.26
1.54
1.63
1.57
1.39
1.14
0.90
0.70
0.59
0.60
0.71
0.89
1.07
1.19
1.21
1.11
0.94
0.73
0.50
0.22
-0.15
-0.65
-1.24
-1.81
-2.23
-2.42
-2.38
-2.23
-2.10
-2.10
-2.22
-2.34
-2.32
-2.06
-1.58
-1.00
-0.46
-0.06
0.18
0.29
0.33
0.36
0.39
0.47
0.62
0.86
1.18
1.47
1.64
1.59
1.31
0.87
0.40
0.02
-0.19
-0.20
-0.08
0.09
0.22
0.25
0.16
-0.02
-0.24
-0.44
-0.62
-0.79
-0.98
-1.21
-1.47
-1.73
-1.93
-2.05
-2.08
-2.01
-1.81
-1.47
-0.99
-0.39
0.27
0.90
1.41
1.73
1.82
1.70
1.45
1.20
1.07
1.10
1.22
1.31
1.24
0.92
0.41
-0.16
-0.61
-0.84
-0.83
-0.67
-0.47
-0.35
-0.36
-0.47
-0.65
-0.80
-0.88
-0.87
-0.79
-0.67
-0.58
-0.56
-0.64
-0.83
-1.07
-1.24
-1.22
-0.90
-0.27
0.57
1.41
2.05
2.38
2.40
2.25
2.07
2.00
2.03
2.14
2.25
2.27
2.19
1.98
1.66
1.29
0.95
0.74
0.68
0.72
0.77
0.71
0.51
0.21
-0.11
-0.41
-0.71
-1.05
-1.43
-1.78
-1.99
-1.95
-1.63
-1.14
-0.64
-0.28
-0.09
0.00
0.09
0.25
0.49
0.74
0.93
1.03
1.09
1.13
1.19
1.25
1.24
1.10
0.82
0.46
0.08
-0.20
-0.34
-0.33
-0.23
-0.13
-0.10
-0.17
-0.34
-0.54
-0.73
-0.88
-1.01
-1.15
-1.32
-1.49
-1.61
-1.66
-1.64
-1.59
-1.52
-1.41
-1.20
-0.83
-0.26
0.47
1.22
1.86
2.28
2.40
2.27
1.97
1.64
1.40
1.30
1.37
1.54
1.72
1.81
1.75
1.53
1.17
0.75
0.31
-0.09
-0.40
-0.66
-0.92
-1.21
-1.59
-2.02
-2.43
-2.71
-2.81
-2.69
-2.41
-2.08
-1.79
-1.59
-1.45
-1.28
-0.98
-0.49
0.13
0.79
1.35
1.74
1.94
2.05
2.14
2.27
2.41
2.49
2.43
2.25
1.99
1.73
1.52
1.33
1.07
0.70
0.27
-0.14
-0.40
-0.48
-0.43
-0.38
-0.45
-0.69
-1.04
-1.42
-1.71
-1.89
-2.01
-2.12
-2.25
-2.40
-2.48
-2.41
-2.16
-1.73
-1.21
-0.67
-0.15
0.32
0.75
1.16
1.48
1.69
1.76
1.74
1.71
1.72
1.80
1.89
1.93
1.88
1.76
1.63
1.50
1.34
1.12
0.78
0.37
-0.03
-0.38
-0.67
-0.94
-1.24
-1.54
-1.77
-1.87
-1.84
-1.83
-1.97
-2.37
-2.97
-3.60
-4.07
-4.20
-3.94
-3.37
-2.62
-1.82
-1.09
-0.46
0.07
0.50
0.86
1.14
1.36
1.54
1.71
1.91
2.18
2.48
2.75
2.89
2.84
2.63
2.32
2.02
1.80
1.65
1.54
1.41
1.24
1.01
0.72
0.41
0.05
-0.34
-0.78
-1.26
-1.74
-2.19
-2.56
-2.83
-2.99
-3.08
-3.13
-3.17
-3.18
-3.11
-2.91
-2.54
-2.04
-1.46
-0.91
-0.42
0.03
0.49
1.06
1.75
2.54
3.36
4.09
4.62
4.86
4.77
4.34
3.62
2.69
1.70
0.83
0.19
-0.13
-0.19
-0.08
0.06
0.09
-0.04
-0.32
-0.71
-1.09
-1.37
-1.51
-1.51
-1.44
-1.35
-1.31
-1.29
-1.26
-1.17
-0.99
-0.78
-0.59
-0.46
-0.33
-0.09
0.34
0.94
1.57
2.03
2.17
1.96
1.55
1.15
0.91
0.84
0.85
0.82
0.70
0.54
0.45
0.50
0.65
0.80
0.87
0.80
0.65
0.50
0.40
0.32
0.22
0.02
-0.26
-0.54
-0.72
-0.77
-0.74
-0.74
-0.88
-1.16
-1.47
-1.65
-1.61
-1.34
-0.96
-0.60
-0.36
-0.21
-0.09
0.10
0.37
0.69
0.97
1.15
1.20
1.14
1.02
0.90
0.77
0.66
0.55
0.45
0.37
0.33
0.32
0.32
0.30
0.22
0.07
-0.14
-0.37
-0.60
-0.84
-1.10
-1.42
-1.79
-2.19
-2.57
-2.86
-3.06
-3.17
-3.20
-3.16
-3.01
-2.71
-2.23
-1.58
-0.84
-0.09
0.60
1.15
1.51
1.65
1.58
1.34
1.05
0.83
0.81
1.02
1.40
1.79
2.03
2.01
1.73
1.30
0.88
0.57
0.38
0.24
0.05
-0.23
-0.59
-0.94
-1.19
-1.34
-1.42
-1.49
-1.61
-1.78
-1.96
-2.11
-2.21
-2.23
-2.18
-2.04
-1.82
-1.49
-1.05
-0.52
0.08
0.66
1.18
1.57
1.83
1.99
2.07
2.10
2.06
1.90
1.63
1.27
0.92
0.68
0.59
0.61
0.65
0.67
0.65
0.61
0.56
0.47
0.26
-0.11
-0.60
-1.09
-1.43
-1.53
-1.41
-1.23
-1.18
-1.38
-1.81
-2.32
-2.73
-2.88
-2.75
-2.42
-1.99
-1.51
-0.98
-0.35
0.37
1.13
1.82
2.33
2.60
2.64
2.51
2.29
2.08
1.93
1.87
1.88
1.90
1.87
1.73
1.49
1.24
1.04
0.95
0.91
0.84
0.66
0.33
-0.06
-0.42
-0.65
-0.76
-0.81
-0.86
-0.98
-1.15
-1.27
-1.24
-1.00
-0.59
-0.13
0.19
0.24
0.05
-0.23
-0.34
-0.11
0.49
1.24
1.87
2.13
1.95
1.48
0.94
0.57
0.42
0.41
0.42
0.37
0.27
0.19
0.18
0.23
0.27
0.19
-0.04
-0.39
-0.77
-1.08
-1.30
-1.43
-1.51
-1.57
-1.63
-1.69
-1.75
-1.78
-1.74
-1.60
-1.34
-0.99
-0.59
-0.22
0.09
0.37
0.65
0.97
1.31
1.59
1.70
1.59
1.32
1.01
0.81
0.81
0.98
1.21
1.35
1.30
1.04
0.64
0.18
-0.24
-0.56
-0.76
-0.84
-0.87
-0.90
-1.03
-1.31
-1.75
-2.27
-2.73
-3.01
-3.07
-2.92
-2.63
-2.24
-1.74
-1.12
-0.37
0.42
1.12
1.60
1.81
1.79
1.67
1.57
1.54
1.53
1.43
1.18
0.78
0.35
0.02
-0.13
-0.09
0.07
0.26
0.42
0.52
0.52
0.39
0.11
-0.26
-0.62
-0.86
-0.92
-0.87
-0.87
-1.07
-1.49
-2.01
-2.45
-2.61
-2.43
-1.94
-1.25
-0.49
0.22
0.78
1.11
1.20
1.10
0.93
0.82
0.85
0.99
1.19
1.36
1.50
1.60
1.69
1.76
1.76
1.64
1.40
1.12
0.89
0.77
0.76
0.78
0.73
0.53
0.18
-0.26
-0.68
-0.99
-1.18
-1.29
-1.40
-1.57
-1.75
-1.84
-1.75
-1.43
-0.96
-0.43
0.05
0.43
0.76
1.05
1.30
1.45
1.43
1.24
0.96
0.73
0.64
0.71
0.86
1.00
1.07
1.09
1.11
1.19
1.27
1.26
1.07
0.70
0.23
-0.19
-0.47
-0.56
-0.56
-0.56
-0.64
-0.82
-1.03
-1.16
-1.16
-1.02
-0.79
-0.54
-0.34
-0.23
-0.19
-0.15
-0.05
0.17
0.48
0.82
1.10
1.22
1.17
0.98
0.76
0.60
0.54
0.60
0.69
0.78
0.80
0.76
0.67
0.54
0.41
0.27
0.17
0.11
0.06
-0.01
-0.18
-0.48
-0.90
-1.37
-1.76
-1.99
-2.05
-2.00
-1.91
-1.86
-1.83
-1.74
-1.50
-1.02
-0.32
0.49
1.26
1.81
2.03
1.95
1.65
1.27
0.96
0.77
0.71
0.73
0.78
0.82
0.81
0.74
0.61
0.43
0.22
0.04
-0.09
-0.16
-0.21
-0.31
-0.52
-0.86
-1.26
-1.61
-1.84
-1.91
-1.89
-1.89
-1.94
-2.06
-2.15
-2.12
-1.90
-1.52
-1.04
-0.54
-0.11
0.23
0.50
0.71
0.89
1.02
1.07
1.00
0.82
0.58
0.35
0.24
0.29
0.50
0.79
1.05
1.18
1.19
1.13
1.07
1.08
1.16
1.27
1.31
1.20
0.91
0.43
-0.15
-0.75
-1.27
-1.68
-1.97
-2.21
-2.40
-2.55
-2.56
-2.35
-1.91
-1.27
-0.59
0.03
0.50
0.81
1.03
1.22
1.40
1.56
1.66
1.65
1.53
1.34
1.13
0.96
0.86
0.80
0.76
0.70
0.61
0.50
0.39
0.32
0.31
0.35
0.43
0.48
0.49
0.42
0.25
-0.02
-0.39
-0.83
-1.29
-1.68
-1.93
-1.99
-1.87
-1.61
-1.32
-1.07
-0.91
-0.79
-0.64
-0.39
-0.04
0.38
0.78
1.09
1.28
1.37
1.38
1.34
1.23
1.05
0.84
0.65
0.58
0.66
0.86
1.08
1.17
1.04
0.72
0.32
0.03
-0.01
0.24
0.65
1.01
1.14
0.98
0.59
0.13
-0.29
-0.61
-0.88
-1.13
-1.38
-1.54
-1.50
-1.23
-0.77
-0.24
0.20
0.46
0.55
0.53
0.50
0.55
0.71
0.99
1.34
1.69
1.94
2.03
1.92
1.65
1.31
0.96
0.65
0.38
0.14
-0.05
-0.15
-0.09
0.15
0.50
0.86
1.09
1.10
0.90
0.55
0.17
-0.15
-0.40
-0.59
-0.79
-1.05
-1.37
-1.66
-1.81
-1.75
-1.46
-1.02
-0.55
-0.15
0.16
0.40
0.63
0.85
1.01
1.05
0.91
0.63
0.32
0.10
0.06
0.16
0.33
0.42
0.35
0.13
-0.19
-0.49
-0.67
-0.70
-0.62
-0.50
-0.44
-0.50
-0.68
-0.90
-1.12
-1.26
-1.33
-1.34
-1.34
-1.37
-1.43
-1.49
-1.53
-1.50
-1.41
-1.26
-1.09
-0.91
-0.72
-0.50
-0.23
0.11
0.50
0.91
1.26
1.47
1.50
1.34
1.04
0.73
0.49
0.36
0.32
0.31
0.29
0.27
0.28
0.31
0.34
0.25
-0.02
-0.45
-0.94
-1.32
-1.46
-1.37
-1.15
-0.96
-0.94
-1.14
-1.48
-1.82
-2.05
-2.11
-1.99
-1.73
-1.35
-0.91
-0.42
0.04
0.40
0.59
0.59
0.45
0.29
0.24
0.37
0.64
0.93
1.11
1.09
0.89
0.60
0.32
0.14
0.07
0.10
0.19
0.31
0.45
0.55
0.56
0.44
0.15
-0.26
-0.75
-1.24
-1.67
-2.02
-2.28
-2.45
-2.51
-2.43
-2.19
-1.78
-1.25
-0.66
-0.10
0.35
0.67
0.87
1.01
1.12
1.25
1.37
1.44
1.44
1.37
1.28
1.21
1.17
1.15
1.11
0.99
0.80
0.60
0.44
0.37
0.38
0.46
0.54
0.58
0.53
0.35
0.05
-0.31
-0.64
-0.87
-0.95
-0.93
-0.92
-1.04
-1.33
-1.73
-2.10
-2.25
-2.07
-1.58
-0.90
-0.21
0.34
0.68
0.85
0.95
1.07
1.27
1.49
1.68
1.75
1.68
1.51
1.30
1.11
0.95
0.82
0.74
0.70
0.72
0.77
0.81
0.77
0.63
0.39
0.10
-0.19
-0.44
-0.64
-0.80
-0.95
-1.08
-1.18
-1.28
-1.39
-1.50
-1.59
-1.58
-1.41
-1.03
-0.48
0.14
0.74
1.22
1.54
1.69
1.70
1.62
1.50
1.38
1.32
1.32
1.38
1.42
1.37
1.17
0.81
0.38
-0.01
-0.28
-0.40
-0.41
-0.43
-0.53
-0.75
-1.06
-1.39
-1.69
-1.93
-2.12
-2.27
-2.37
-2.38
-2.25
-1.99
-1.63
-1.23
-0.86
-0.51
-0.16
0.22
0.66
1.12
1.56
1.93
2.21
2.42
2.56
2.62
2.57
2.39
2.08
1.72
1.38
1.10
0.88
0.67
0.42
0.13
-0.16
-0.37
-0.45
-0.43
-0.42
-0.52
-0.82
-1.27
-1.74
-2.11
-2.30
-2.36
-2.40
-2.52
-2.75
-2.99
-3.11
-2.96
-2.50
-1.81
-1.04
-0.33
0.21
0.57
0.79
0.95
1.06
1.13
1.16
1.13
1.09
1.09
1.18
1.35
1.55
1.68
1.70
1.62
1.49
1.38
1.33
1.32
1.27
1.12
0.83
0.38
-0.16
-0.72
-1.20
-1.53
-1.70
-1.76
-1.82
-1.94
-2.16
-2.43
-2.66
-2.72
-2.53
-2.09
-1.47
-0.76
-0.09
0.48
0.93
1.25
1.45
1.54
1.53
1.48
1.45
1.49
1.59
1.67
1.66
1.51
1.24
0.95
0.75
0.70
0.73
0.76
0.69
0.53
0.33
0.17
0.12
0.12
0.14
0.08
-0.07
-0.29
-0.53
-0.73
-0.87
-0.93
-0.91
-0.81
-0.64
-0.42
-0.18
0.04
0.24
0.45
0.71
1.05
1.50
1.97
2.38
2.62
2.63
2.40
2.02
1.61
1.26
1.05
0.96
0.93
0.90
0.80
0.63
0.42
0.22
0.05
-0.08
-0.20
-0.34
-0.52
-0.72
-0.90
-1.03
-1.09
-1.14
-1.22
-1.36
-1.55
-1.74
-1.83
-1.75
-1.48
-1.07
-0.61
-0.16
0.24
0.58
0.89
1.14
1.31
1.39
1.39
1.33
1.28
1.28
1.31
1.32
1.26
1.10
0.82
0.49
0.16
-0.10
-0.25
-0.29
-0.28
-0.29
-0.37
-0.54
-0.80
-1.10
-1.40
-1.68
-1.92
-2.13
-2.30
-2.46
-2.61
-2.77
-2.92
-3.03
-3.03
-2.86
-2.47
-1.89
-1.18
-0.44
0.29
0.96
1.54
1.97
2.19
2.16
1.92
1.60
1.35
1.29
1.41
1.60
1.72
1.68
1.47
1.15
0.83
0.55
0.33
0.14
0.00
-0.09
-0.09
-0.03
0.04
0.02
-0.16
-0.52
-0.98
-1.42
-1.73
-1.85
-1.85
-1.82
-1.84
-1.89
-1.85
-1.61
-1.08
-0.31
0.56
1.31
1.79
1.93
1.80
1.52
1.21
0.99
0.92
1.02
1.29
1.65
2.00
2.25
2.30
2.12
1.75
1.24
0.71
0.26
-0.04
-0.14
-0.04
0.22
0.54
0.84
1.03
1.04
0.85
0.50
0.04
-0.43
-0.86
-1.21
-1.48
-1.70
-1.86
-1.92
-1.83
-1.54
-1.08
-0.51
0.06
0.55
0.97
1.33
1.68
2.01
2.25
2.35
2.29
2.12
1.92
1.74
1.56
1.35
1.09
0.84
0.68
0.68
0.82
0.96
0.94
0.66
0.11
-0.58
-1.24
-1.73
-1.98
-2.03
-1.95
-1.87
-1.87
-1.97
-2.16
-2.35
-2.46
-2.42
-2.23
-1.92
-1.54
-1.13
-0.70
-0.23
0.22
0.63
0.94
1.14
1.27
1.38
1.50
1.62
1.66
1.58
1.36
1.08
0.84
0.73
0.79
0.94
1.05
1.02
0.79
0.41
-0.04
-0.45
-0.79
-1.05
-1.27
-1.47
-1.68
-1.87
-2.04
-2.22
-2.44
-2.70
-2.99
-3.22
-3.32
-3.20
-2.84
-2.26
-1.52
-0.71
0.06
0.69
1.12
1.33
1.40
1.44
1.55
1.78
2.10
2.41
2.57
2.52
2.24
1.80
1.30
0.84
0.48
0.25
0.12
0.06
0.02
-0.06
-0.21
-0.44
-0.72
-1.00
-1.26
-1.48
-1.68
-1.88
-2.08
-2.23
-2.26
-2.11
-1.76
-1.27
-0.70
-0.15
0.31
0.65
0.85
0.94
0.97
0.98
1.02
1.08
1.17
1.25
1.28
1.23
1.09
0.89
0.66
0.44
0.29
0.20
0.17
0.15
0.11
0.03
-0.07
-0.19
-0.31
-0.44
-0.58
-0.76
-0.97
-1.21
-1.44
-1.64
-1.80
-1.89
-1.92
-1.85
-1.69
-1.42
-1.03
-0.55
-0.00
0.55
1.02
1.33
1.44
1.36
1.20
1.06
1.05
1.17
1.38
1.56
1.60
1.49
1.26
0.98
0.73
0.52
0.34
0.16
-0.02
-0.16
-0.24
-0.23
-0.16
-0.09
-0.09
-0.19
-0.39
-0.65
-0.91
-1.13
-1.28
-1.36
-1.42
-1.49
-1.58
-1.68
-1.72
-1.66
-1.46
-1.13
-0.72
-0.31
0.04
0.31
0.51
0.70
0.88
1.05
1.15
1.14
1.02
0.82
0.63
0.54
0.60
0.82
1.12
1.41
1.60
1.64
1.51
1.22
0.82
0.35
-0.10
-0.49
-0.80
-1.06
-1.30
-1.54
-1.77
-1.94
-1.98
-1.86
-1.61
-1.33
-1.06
-0.84
-0.66
-0.50
-0.32
-0.13
0.09
0.35
0.68
1.03
1.36
1.56
1.60
1.49
1.31
1.20
1.22
1.37
1.56
1.66
1.58
1.32
0.93
0.52
0.20
0.01
-0.03
-0.01
-0.02
-0.16
-0.46
-0.88
-1.34
-1.76
-2.08
-2.29
-2.36
-2.24
-1.92
-1.39
-0.74
-0.09
0.44
0.78
0.97
1.13
1.37
1.70
2.05
2.30
2.34
2.15
1.82
1.46
1.19
1.05
1.03
1.09
1.17
1.23
1.27
1.27
1.22
1.08
0.83
0.47
0.03
-0.45
-0.89
-1.24
-1.45
-1.52
-1.49
-1.42
-1.37
-1.40
-1.50
-1.62
-1.65
-1.54
-1.24
-0.80
-0.28
0.21
0.60
0.83
0.91
0.88
0.76
0.57
0.30
-0.02
-0.35
-0.60
-0.69
-0.57
-0.28
0.06
0.35
0.49
0.48
0.40
0.29
0.19
0.07
-0.11
-0.40
-0.80
-1.31
-1.90
-2.50
-3.03
-3.38
-3.48
-3.32
-2.97
-2.56
-2.16
-1.80
-1.39
-0.89
-0.28
0.37
0.96
1.39
1.61
1.66
1.61
1.54
1.49
1.48
1.49
1.49
1.44
1.30
1.05
0.72
0.37
0.08
-0.12
-0.24
-0.36
-0.53
-0.78
-1.08
-1.34
-1.50
-1.53
-1.46
-1.37
-1.35
-1.42
-1.55
-1.64
-1.61
-1.38
-0.98
-0.51
-0.05
0.31
0.53
0.64
0.68
0.69
0.70
0.72
0.78
0.88
1.06
1.31
1.61
1.87
2.01
1.99
1.79
1.47
1.08
0.71
0.44
0.29
0.28
0.35
0.43
0.44
0.31
0.02
-0.38
-0.82
-1.20
-1.47
-1.62
-1.63
-1.50
-1.20
-0.74
-0.19
0.33
0.69
0.84
0.83
0.83
0.99
1.37
1.87
2.32
2.53
2.43
2.09
1.64
1.23
0.96
0.80
0.74
0.72
0.75
0.84
0.98
1.10
1.10
0.93
0.59
0.14
-0.32
-0.71
-0.99
-1.17
-1.27
-1.29
-1.23
-1.14
-1.05
-1.01
-1.04
-1.09
-1.10
-0.99
-0.71
-0.30
0.17
0.63
1.02
1.32
1.56
1.72
1.80
1.78
1.63
1.39
1.10
0.87
0.73
0.70
0.71
0.69
0.56
0.32
0.05
-0.18
-0.30
-0.29
-0.21
-0.14
-0.18
-0.36
-0.68
-1.12
-1.60
-2.11
-2.60
-3.05
-3.40
-3.59
-3.51
-3.11
-2.39
-1.47
-0.50
0.35
0.97
1.33
1.50
1.54
1.53
1.48
1.39
1.28
1.17
1.12
1.16
1.30
1.47
1.62
1.67
1.59
1.44
1.25
1.09
0.98
0.89
0.75
0.52
0.19
-0.21
-0.61
-0.95
-1.21
-1.37
-1.49
-1.60
-1.73
-1.91
-2.15
-2.40
-2.60
-2.63
-2.40
-1.88
-1.12
-0.30
0.44
0.96
1.25
1.37
1.43
1.50
1.60
1.73
1.86
1.95
1.98
1.95
1.86
1.73
1.59
1.47
1.39
1.34
1.29
1.23
1.12
0.98
0.81
0.59
0.32
-0.01
-0.38
-0.75
-1.09
-1.39
-1.63
-1.83
-1.98
-2.08
-2.11
-2.10
-2.04
-1.94
-1.75
-1.46
-1.05
-0.56
-0.08
0.34
0.64
0.80
0.86
0.86
0.82
0.78
0.77
0.80
0.90
1.07
1.29
1.51
1.64
1.62
1.41
1.06
0.67
0.37
0.26
0.36
0.59
0.83
0.98
1.02
0.94
0.78
0.53
0.17
-0.26
-0.70
-1.06
-1.25
-1.28
-1.24
-1.28
-1.49
-1.87
-2.32
-2.65
-2.71
-2.42
-1.82
-1.05
-0.26
0.37
0.78
0.95
0.96
0.89
0.84
0.88
1.03
1.26
1.53
1.74
1.82
1.71
1.44
1.05
0.66
0.35
0.20
0.22
0.36
0.57
0.74
0.84
0.83
0.72
0.54
0.32
0.09
-0.12
-0.27
-0.38
-0.46
-0.55
-0.70
-0.90
-1.10
-1.21
-1.17
-0.95
-0.56
-0.06
0.47
0.98
1.43
1.80
2.03
2.09
1.98
1.75
1.50
1.30
1.17
1.09
0.98
0.78
0.49
0.17
-0.08
-0.18
-0.09
0.13
0.39
0.59
0.67
0.59
0.38
0.06
-0.36
-0.81
-1.25
-1.61
-1.83
-1.93
-1.97
-2.06
-2.24
-2.51
-2.74
-2.79
-2.56
-2.06
-1.39
-0.71
-0.19
0.10
0.16
0.09
-0.02
-0.08
-0.04
0.11
0.33
0.58
0.82
1.03
1.15
1.15
0.97
0.62
0.12
-0.41
-0.89
-1.21
-1.35
-1.30
-1.11
-0.84
-0.55
-0.33
-0.26
-0.40
-0.75
-1.25
-1.75
-2.11
-2.26
-2.25
-2.19
-2.18
-2.25
-2.31
-2.21
-1.85
-1.26
-0.58
0.00
0.36
0.51
0.59
0.74
1.04
1.41
1.68
1.71
1.41
0.88
0.27
-0.21
-0.43
-0.36
-0.10
0.22
0.43
0.46
0.29
-0.02
-0.38
-0.71
-0.97
-1.14
-1.23
-1.23
-1.19
-1.14
-1.13
-1.19
-1.33
-1.49
-1.60
-1.57
-1.37
-0.97
-0.39
0.28
0.95
1.51
1.88
2.06
2.10
2.07
2.05
2.05
2.01
1.88
1.63
1.31
1.01
0.82
0.77
0.80
0.79
0.65
0.37
0.03
-0.25
-0.36
-0.28
-0.08
0.11
0.16
0.03
-0.19
-0.39
-0.50
-0.52
-0.55
-0.70
-0.96
-1.21
-1.26
-0.99
-0.39
0.39
1.11
1.60
1.76
1.63
1.31
0.93
0.57
0.33
0.25
0.36
0.63
0.97
1.26
1.43
1.44
1.31
1.11
0.86
0.60
0.32
0.06
-0.16
-0.31
-0.42
-0.56
-0.77
-1.09
-1.46
-1.78
-1.97
-1.99
-1.87
-1.69
-1.51
-1.37
-1.24
-1.07
-0.82
-0.47
-0.03
0.46
0.95
1.40
1.73
1.88
1.81
1.57
1.23
0.93
0.76
0.77
0.90
1.07
1.22
1.30
1.30
1.21
1.02
0.70
0.29
-0.16
-0.54
-0.80
-0.91
-0.94
-0.98
-1.08
-1.25
-1.48
-1.72
-1.97
-2.21
-2.39
-2.46
-2.40
-2.22
-1.98
-1.73
-1.51
-1.28
-0.95
-0.50
0.08
0.67
1.15
1.41
1.46
1.40
1.34
1.36
1.46
1.56
1.58
1.48
1.30
1.12
1.01
1.00
1.05
1.06
0.98
0.78
0.48
0.14
-0.22
-0.61
-1.02
-1.44
-1.82
-2.09
-2.19
-2.09
-1.84
-1.52
-1.22
-0.99
-0.83
-0.69
-0.53
-0.32
-0.04
0.30
0.66
0.97
1.21
1.32
1.33
1.26
1.18
1.12
1.10
1.09
1.01
0.81
0.47
0.07
-0.29
-0.48
-0.47
-0.28
-0.03
0.13
0.10
-0.14
-0.51
-0.90
-1.20
-1.36
-1.38
-1.31
-1.19
-1.09
-1.02
-0.97
-0.92
-0.82
-0.70
-0.54
-0.38
-0.23
-0.09
0.10
0.39
0.79
1.28
1.78
2.18
2.36
2.28
1.97
1.54
1.14
0.88
0.81
0.85
0.93
0.96
0.90
0.75
0.54
0.30
0.04
-0.23
-0.43
-0.50
-0.39
-0.12
0.23
0.50
0.59
0.48
0.21
-0.11
-0.40
-0.62
-0.78
-0.93
-1.11
-1.30
-1.40
-1.30
-0.93
-0.29
0.45
1.10
1.50
1.59
1.49
1.35
1.31
1.37
1.45
1.41
1.22
0.92
0.62
0.42
0.33
0.32
0.30
0.26
0.18
0.08
-0.06
-0.25
-0.50
-0.76
-0.96
-1.05
-1.01
-0.90
-0.80
-0.81
-0.97
-1.26
-1.62
-1.93
-2.06
-1.89
-1.41
-0.73
-0.00
0.58
0.91
1.00
0.95
0.90
0.92
1.00
1.09
1.12
1.08
1.01
0.95
0.93
0.95
0.98
0.95
0.86
0.68
0.44
0.18
-0.08
-0.33
-0.61
-0.94
-1.38
-1.89
-2.41
-2.83
-3.07
-3.09
-2.93
-2.68
-2.44
-2.26
-2.14
-2.04
-1.90
-1.69
-1.39
-1.03
-0.63
-0.24
0.11
0.44
0.73
0.97
1.16
1.25
1.25
1.20
1.16
1.20
1.34
1.55
1.74
1.79
1.64
1.32
0.90
0.47
0.14
-0.05
-0.11
-0.08
-0.03
-0.02
-0.09
-0.23
-0.44
-0.74
-1.13
-1.59
-2.05
-2.40
-2.54
-2.46
-2.20
-1.89
-1.60
-1.38
-1.18
-0.93
-0.57
-0.12
0.32
0.69
0.94
1.12
1.26
1.39
1.44
1.32
1.00
0.53
0.04
-0.27
-0.28
0.03
0.55
1.08
1.43
1.48
1.23
0.75
0.21
-0.26
-0.56
-0.67
-0.64
-0.54
-0.44
-0.40
-0.43
-0.54
-0.73
-0.97
-1.24
-1.44
-1.49
-1.30
-0.90
-0.36
0.16
0.53
0.72
0.75
0.74
0.77
0.90
1.09
1.27
1.41
1.47
1.48
1.46
1.43
1.37
1.26
1.08
0.85
0.61
0.41
0.30
0.32
0.46
0.67
0.90
1.03
1.00
0.76
0.35
-0.14
-0.56
-0.83
-0.93
-0.91
-0.87
-0.90
-0.98
-1.04
-0.99
-0.73
-0.29
0.25
0.77
1.14
1.33
1.36
1.27
1.15
1.04
0.96
0.91
0.87
0.79
0.68
0.53
0.39
0.30
0.29
0.37
0.49
0.56
0.50
0.30
0.02
-0.27
-0.49
-0.64
-0.79
-1.03
-1.40
-1.83
-2.21
-2.43
-2.42
-2.22
-1.97
-1.76
-1.65
-1.59
-1.49
-1.26
-0.86
-0.34
0.22
0.69
1.02
1.19
1.23
1.21
1.18
1.18
1.21
1.22
1.18
1.07
0.87
0.61
0.34
0.12
-0.02
-0.04
0.04
0.17
0.27
0.30
0.19
-0.04
-0.40
-0.83
-1.30
-1.73
-2.07
-2.26
-2.29
-2.14
-1.85
-1.50
-1.15
-0.88
-0.72
-0.66
-0.65
-0.63
-0.52
-0.30
0.00
0.34
0.66
0.95
1.20
1.41
1.55
1.59
1.49
1.28
1.00
0.73
0.53
0.42
0.37
0.34
0.28
0.21
0.13
0.09
0.07
0.04
-0.03
-0.16
-0.32
-0.49
-0.61
-0.69
-0.73
-0.79
-0.89
-1.02
-1.15
-1.22
-1.19
-1.03
-0.75
-0.38
0.03
0.43
0.79
1.06
1.22
1.27
1.24
1.16
1.05
0.94
0.85
0.79
0.78
0.82
0.87
0.88
0.80
0.63
0.40
0.21
0.11
0.14
0.25
0.36
0.39
0.29
0.06
-0.29
-0.71
-1.13
-1.47
-1.64
-1.63
-1.44
-1.16
-0.87
-0.58
-0.26
0.17
0.74
1.38
1.97
2.35
2.45
2.35
2.15
1.97
1.87
1.82
1.71
1.48
1.13
0.76
0.52
0.51
0.74
1.07
1.34
1.39
1.15
0.69
0.13
-0.35
-0.68
-0.85
-0.93
-1.01
-1.13
-1.27
-1.37
-1.41
-1.36
-1.26
-1.14
-0.99
-0.81
-0.54
-0.18
0.26
0.72
1.14
1.46
1.64
1.65
1.49
1.19
0.81
0.44
0.17
0.04
0.04
0.09
0.12
0.07
-0.04
-0.14
-0.18
-0.11
0.00
0.09
0.06
-0.13
-0.45
-0.83
-1.20
-1.53
-1.86
-2.24
-2.68
-3.11
-3.42
-3.48
-3.25
-2.77
-2.11
-1.40
-0.69
-0.05
0.53
1.03
1.46
1.80
2.04
2.20
2.27
2.27
2.20
2.09
1.95
1.76
1.53
1.23
0.90
0.58
0.34
0.21
0.14
0.06
-0.13
-0.46
-0.87
-1.30
-1.66
-1.95
-2.21
-2.49
-2.79
-3.06
-3.19
-3.11
-2.80
-2.36
-1.89
-1.50
-1.20
-0.90
-0.49
0.07
0.71
1.29
1.66
1.75
1.62
1.41
1.27
1.24
1.26
1.21
1.02
0.74
0.48
0.41
0.57
0.92
1.31
1.57
1.62
1.44
1.12
0.72
0.33
-0.03
-0.37
-0.69
-1.00
-1.33
-1.64
-1.92
-2.10
-2.12
-1.96
-1.67
-1.34
-1.05
-0.87
-0.76
-0.63
-0.38
0.03
0.55
1.08
1.51
1.79
1.93
1.95
1.89
1.75
1.51
1.19
0.85
0.58
0.48
0.55
0.75
0.98
1.13
1.12
0.93
0.59
0.18
-0.16
-0.34
-0.35
-0.24
-0.13
-0.14
-0.29
-0.56
-0.86
-1.08
-1.20
-1.20
-1.11
-0.94
-0.69
-0.34
0.10
0.58
1.06
1.47
1.77
1.92
1.92
1.80
1.60
1.38
1.20
1.09
1.03
0.99
0.94
0.87
0.80
0.75
0.74
0.72
0.65
0.50
0.26
-0.04
-0.35
-0.65
-0.89
-1.05
-1.17
-1.26
-1.37
-1.55
-1.80
-2.06
-2.22
-2.15
-1.77
-1.12
-0.34
0.36
0.85
1.08
1.14
1.19
1.33
1.56
1.81
1.96
1.97
1.86
1.70
1.54
1.37
1.14
0.83
0.47
0.21
0.14
0.31
0.60
0.85
0.86
0.57
0.02
-0.62
-1.18
-1.56
-1.78
-1.94
-2.12
-2.36
-2.60
-2.76
-2.74
-2.54
-2.19
-1.79
-1.39
-1.01
-0.63
-0.21
0.26
0.73
1.14
1.42
1.54
1.49
1.32
1.08
0.87
0.74
0.71
0.75
0.78
0.75
0.60
0.34
0.03
-0.24
-0.43
-0.50
-0.45
-0.32
-0.17
-0.05
-0.03
-0.15
-0.40
-0.74
-1.09
-1.40
-1.68
-1.94
-2.21
-2.44
-2.52
-2.37
-1.94
-1.33
-0.68
-0.13
0.22
0.43
0.56
0.69
0.82
0.94
1.00
1.01
1.03
1.09
1.22
1.35
1.42
1.35
1.13
0.78
0.41
0.09
-0.11
-0.18
-0.18
-0.17
-0.24
-0.36
-0.48
-0.52
-0.45
-0.31
-0.21
-0.24
-0.45
-0.77
-1.10
-1.33
-1.45
-1.48
-1.47
-1.41
-1.25
-0.92
-0.42
0.19
0.80
1.32
1.69
1.88
1.91
1.78
1.52
1.20
0.93
0.78
0.81
0.95
1.09
1.14
1.07
0.90
0.73
0.59
0.46
0.29
0.00
-0.39
-0.80
-1.14
-1.30
-1.28
-1.15
-1.01
-0.94
-0.96
-1.03
-1.10
-1.13
-1.14
-1.16
-1.17
-1.13
-0.94
-0.56
-0.02
0.58
1.10
1.42
1.53
1.49
1.40
1.32
1.27
1.22
1.14
1.03
0.92
0.84
0.79
0.77
0.73
0.67
0.60
0.57
0.60
0.69
0.78
0.79
0.69
0.47
0.18
-0.12
-0.38
-0.60
-0.82
-1.05
-1.27
-1.42
-1.46
-1.33
-1.04
-0.62
-0.12
0.40
0.92
1.38
1.73
1.92
1.93
1.77
1.56
1.39
1.36
1.45
1.57
1.59
1.44
1.12
0.74
0.41
0.23
0.18
0.22
0.25
0.24
0.19
0.08
-0.08
-0.34
-0.73
-1.21
-1.72
-2.16
-2.47
-2.65
-2.77
-2.85
-2.93
-2.93
-2.79
-2.47
-2.00
-1.47
-1.00
-0.64
-0.40
-0.25
-0.14
-0.04
0.10
0.31
0.60
0.97
1.33
1.58
1.64
1.48
1.17
0.82
0.54
0.35
0.23
0.13
-0.01
-0.20
-0.45
-0.74
-1.04
-1.29
-1.44
-1.44
-1.33
-1.20
-1.16
-1.28
-1.51
-1.73
-1.83
-1.74
-1.49
-1.16
-0.83
-0.57
-0.39
-0.26
-0.12
0.08
0.39
0.80
1.22
1.50
1.51
1.23
0.72
0.18
-0.17
-0.21
0.04
0.45
0.82
1.03
1.04
0.90
0.68
0.44
0.20
-0.07
-0.36
-0.69
-1.00
-1.23
-1.31
-1.25
-1.11
-0.95
-0.83
-0.78
-0.75
-0.73
-0.71
-0.68
-0.64
-0.58
-0.45
-0.21
0.12
0.51
0.86
1.12
1.27
1.33
1.35
1.36
1.35
1.32
1.23
1.07
0.86
0.62
0.39
0.20
0.08
0.02
-0.01
-0.03
-0.07
-0.15
-0.26
-0.35
-0.40
-0.36
-0.23
-0.05
0.12
0.19
0.13
-0.02
-0.17
-0.17
0.05
0.51
1.06
1.55
1.84
1.88
1.74
1.55
1.39
1.30
1.28
1.31
1.35
1.37
1.36
1.26
1.07
0.81
0.54
0.33
0.22
0.16
0.06
-0.17
-0.51
-0.86
-1.08
-1.10
-0.95
-0.77
-0.70
-0.83
-1.09
-1.38
-1.54
-1.50
-1.28
-0.96
-0.60
-0.24
0.13
0.52
0.91
1.25
1.45
1.51
1.45
1.35
1.29
1.27
1.23
1.09
0.80
0.39
-0.00
-0.27
-0.33
-0.22
-0.04
0.07
0.02
-0.18
-0.43
-0.65
-0.78
-0.83
-0.87
-1.00
-1.28
-1.70
-2.17
-2.55
-2.74
-2.68
-2.40
-2.02
-1.65
-1.34
-1.08
-0.81
-0.43
0.07
0.64
1.15
1.49
1.61
1.56
1.45
1.38
1.41
1.51
1.58
1.55
1.42
1.24
1.11
1.05
1.05
1.02
0.86
0.56
0.13
-0.34
-0.78
-1.17
-1.50
-1.81
-2.09
-2.34
-2.52
-2.60
-2.59
-2.50
-2.37
-2.20
-2.02
-1.79
-1.49
-1.09
-0.55
0.08
0.76
1.38
1.83
2.07
2.11
2.02
1.87
1.72
1.56
1.38
1.18
0.97
0.76
0.61
0.54
0.54
0.60
0.67
0.70
0.66
0.51
0.27
-0.07
-0.48
-0.94
-1.42
-1.85
-2.18
-2.37
-2.39
-2.29
-2.15
-2.02
-1.91
-1.79
-1.58
-1.22
-0.74
-0.22
0.22
0.51
0.62
0.63
0.62
0.68
0.88
1.17
1.48
1.74
1.87
1.85
1.73
1.57
1.42
1.31
1.23
1.14
0.99
0.78
0.48
0.16
-0.15
-0.38
-0.50
-0.57
-0.64
-0.79
-1.06
-1.41
-1.74
-1.98
-2.08
-2.09
-2.04
-2.01
-1.97
-1.88
-1.65
-1.25
-0.72
-0.14
0.39
0.80
1.06
1.19
1.24
1.26
1.27
1.29
1.32
1.33
1.33
1.31
1.29
1.27
1.26
1.24
1.17
1.04
0.86
0.67
0.54
0.50
0.56
0.63
0.62
0.46
0.15
-0.23
-0.56
-0.75
-0.79
-0.71
-0.60
-0.53
-0.49
-0.44
-0.32
-0.08
0.27
0.67
1.02
1.26
1.39
1.42
1.44
1.48
1.53
1.52
1.40
1.14
0.79
0.47
0.28
0.28
0.41
0.57
0.66
0.63
0.51
0.37
0.27
0.18
0.06
-0.15
-0.43
-0.70
-0.84
-0.79
-0.60
-0.39
-0.35
-0.57
-1.00
-1.52
-1.92
-2.08
-1.95
-1.60
-1.11
-0.57
-0.02
0.52
1.03
1.44
1.71
1.78
1.66
1.44
1.18
0.98
0.86
0.80
0.77
0.73
0.69
0.65
0.60
0.49
0.29
-0.03
-0.40
-0.73
-0.91
-0.91
-0.81
-0.74
-0.82
-1.13
-1.60
-2.11
-2.55
-2.83
-2.95
-2.92
-2.81
-2.64
-2.46
-2.28
-2.09
-1.85
-1.49
-0.96
-0.24
0.56
1.31
1.86
2.13
2.14
1.97
1.73
1.49
1.25
1.00
0.75
0.51
0.35
0.29
0.36
0.53
0.74
0.91
0.97
0.88
0.61
0.21
-0.27
-0.76
-1.15
-1.40
-1.49
-1.47
-1.41
-1.40
-1.48
-1.63
-1.78
-1.82
-1.68
-1.35
-0.90
-0.42
-0.03
0.24
0.41
0.54
0.67
0.83
0.99
1.09
1.12
1.10
1.07
1.07
1.13
1.24
1.35
1.45
1.50
1.50
1.41
1.23
0.93
0.52
0.02
-0.52
-1.04
-1.50
-1.86
-2.10
-2.24
-2.29
-2.32
-2.35
-2.42
-2.55
-2.70
-2.81
-2.85
-2.85
-2.87
-2.99
-3.21
-3.52
-3.83
-4.04
-4.05
-3.93
-3.85
-4.04
-4.59
-5.44
-6.37
-7.17
-7.63
-7.62
-7.19
-6.57
-6.03
-5.72
-5.63
-5.54
-5.18
-4.14
-1.95
1.71
6.85
13.19
20.30
27.78
35.27
41.46
44.98
45.15
42.40
37.94
33.02
28.32
24.04
20.05
16.68
13.65
10.95
8.61
6.62
4.90
3.34
1.95
0.79
-0.06
-0.61
-0.91
-1.26
-2.10
-3.73
-6.09
-8.78
-11.18
-12.82
-13.57
-13.50
-12.91
-12.12
-11.35
-10.74
-10.37
-10.34
-10.79
-11.82
-13.33
-15.03
-16.59
-17.73
-18.41
-18.72
-18.85
-18.98
-19.22
-19.58
-19.95
-20.22
-20.28
-20.14
-19.85
-19.43
-18.91
-18.32
-17.66
-16.92
-16.09
-15.11
-14.10
-13.13
-12.16
-11.07
-9.70
-7.93
-5.79
-3.45
-0.51
2.84
6.13
8.87
10.90
12.43
13.80
15.22
16.68
18.05
19.09
19.70
19.97
20.07
20.09
20.00
19.63
18.78
17.40
15.58
13.42
11.16
9.03
7.18
5.56
4.03
2.47
0.84
-0.82
-2.25
-3.29
-3.91
-4.25
-4.53
-4.90
-5.36
-5.82
-6.22
-6.61
-7.15
-7.91
-8.84
-9.71
-10.13
-9.82
-8.66
-6.82
-4.64
-2.50
-0.48
1.38
3.07
4.52
5.63
6.30
6.50
6.33
5.95
5.50
5.02
4.48
3.81
2.99
2.05
1.07
0.14
-0.71
-1.46
-2.12
-2.68
-3.12
-3.37
-3.37
-3.15
-2.79
-2.41
-2.04
-1.73
-1.48
-1.24
-0.98
-0.66
-0.38
-0.33
-0.66
-1.42
-2.45
-3.48
-4.22
-4.41
-3.99
-3.17
-2.38
-1.99
-2.21
-2.91
-3.78
-4.36
-4.14
-2.70
0.08
3.95
8.39
12.75
16.34
18.62
18.61
15.96
11.55
7.11
4.16
3.14
3.31
3.50
2.75
1.15
-0.79
-2.38
-3.19
-3.31
-3.18
-3.25
-3.67
-4.20
-4.54
-4.29
-3.28
-1.68
0.03
1.38
2.18
2.58
2.92
3.51
4.46
5.70
6.99
8.08
8.84
9.30
9.59
9.83
10.04
10.13
9.99
9.55
8.74
7.60
6.22
4.73
3.26
1.92
0.76
-0.17
-0.91
-1.52
-2.10
-2.71
-3.35
-3.96
-4.45
-4.75
-4.82
-4.72
-4.56
-4.43
-4.42
-4.56
-4.86
-5.28
-5.73
-6.15
-6.43
-6.55
-6.53
-6.49
-6.54
-6.76
-7.18
-7.74
-8.32
-8.84
-9.27
-9.65
-10.10
-10.68
-11.40
-12.17
-12.88
-13.39
-13.66
-13.72
-13.64
-13.45
-13.08
-12.43
-11.37
-9.87
-8.00
-5.88
-3.64
-1.38
0.86
2.98
4.92
6.59
7.97
9.12
10.16
11.15
12.10
12.88
13.36
13.42
13.04
12.22
10.99
9.43
7.62
5.75
4.02
2.61
1.59
0.87
0.26
-0.42
-1.23
-2.08
-2.79
-3.23
-3.34
-3.20
-2.90
-2.51
-2.07
-1.59
-1.13
-0.83
-0.83
-1.15
-1.64
-1.99
-1.87
-1.07
0.32
1.95
3.38
4.21
4.32
3.91
3.39
3.27
3.91
5.44
7.72
10.38
12.90
14.75
15.49
14.89
13.06
10.40
7.54
5.13
3.66
3.25
3.66
4.44
5.10
5.32
4.97
4.11
2.85
1.33
-0.34
-1.99
-3.41
-4.40
-4.84
-4.76
-4.34
-3.82
-3.40
-3.18
-3.10
-3.04
-2.89
-2.56
-2.08
-1.55
-1.16
-1.09
-1.42
-2.15
-3.14
-4.17
-4.99
-5.41
-5.36
-4.85
-4.00
-2.95
-1.88
-0.97
-0.29
0.19
0.62
1.22
2.12
3.33
4.62
5.69
6.29
6.37
6.11
5.82
5.76
6.01
6.43
6.71
6.54
5.77
4.44
2.79
1.18
-0.08
-0.85
-1.14
-1.11
-1.00
-0.97
-1.12
-1.44
-1.84
-2.26
-2.67
-3.05
-3.39
-3.68
-3.83
-3.79
-3.55
-3.14
-2.70
-2.36
-2.21
-2.24
-2.34
-2.34
-2.13
-1.68
-1.06
-0.41
0.12
0.42
0.45
0.20
-0.28
-0.93
-1.65
-2.29
-2.74
-2.93
-2.88
-2.69
-2.52
-2.50
-2.69
-3.04
-3.43
-3.71
-3.77
-3.58
-3.23
-2.82
-2.45
-2.15
-1.88
-1.60
-1.27
-0.92
-0.65
-0.53
-0.61
-0.87
-1.20
-1.53
-1.78
-1.97
-2.15
-2.34
-2.52
-2.62
-2.55
-2.30
-1.90
-1.47
-1.13
-0.91
-0.76
-0.60
-0.35
-0.02
0.29
0.47
0.46
0.26
-0.06
-0.43
-0.80
-1.15
-1.43
-1.57
-1.46
-1.05
-0.39
0.38
1.03
1.39
1.42
1.20
0.90
0.64
0.47
0.40
0.39
0.43
0.53
0.65
0.70
0.54
0.09
-0.59
-1.36
-1.97
-2.24
-2.11
-1.67
-1.12
-0.68
-0.48
-0.56
-0.87
-1.31
-1.75
-2.07
-2.16
-1.93
-1.38
-0.54
0.47
1.50
2.40
3.04
3.35
3.30
2.92
2.33
1.67
1.13
0.84
0.83
1.08
1.50
2.01
2.51
2.89
3.06
2.89
2.33
1.43
0.36
-0.61
-1.27
-1.48
-1.28
-0.86
-0.43
-0.19
-0.23
-0.57
-1.16
-1.97
-2.94
-4.03
-5.14
-6.13
-6.80
-6.99
-6.63
-5.77
-4.59
-3.31
-2.12
-1.15
-0.43
0.11
0.57
1.08
1.76
2.66
3.79
5.11
6.52
7.90
9.10
9.96
10.36
10.25
9.74
9.11
8.71
8.78
9.37
10.25
11.02
11.32
10.97
10.02
8.70
7.30
6.00
4.84
3.70
2.43
0.94
-0.80
-2.82
-5.07
-7.46
-9.85
-12.11
-14.15
-15.86
-17.08
-17.71
-17.72
-17.10
-15.83
-13.86
-11.17
-7.75
-3.63
1.17
6.49
11.80
16.03
18.23
18.22
16.56
13.97
11.02
8.08
5.41
3.24
1.81
1.19
1.37
2.15
3.14
3.90
4.20
3.94
3.24
2.34
1.51
1.04
0.97
1.04
0.89
0.23
-1.00
-2.63
-4.31
-5.66
-6.51
-6.93
-7.22
-7.63
-8.19
-8.77
-9.11
-9.05
-8.56
-7.79
-6.95
-6.25
-5.81
-5.59
-5.52
-5.51
-5.49
-5.42
-5.28
-5.08
-4.86
-4.63
-4.38
-4.03
-3.47
-2.61
-1.44
-0.07
1.34
2.58
3.47
3.93
3.95
3.62
3.07
2.41
1.75
1.17
0.72
0.43
0.30
0.27
0.25
0.13
-0.19
-0.67
-1.20
-1.61
-1.77
-1.69
-1.48
-1.32
-1.31
-1.48
-1.72
-1.90
-1.95
-1.86
-1.69
-1.52
-1.38
-1.29
-1.22
-1.11
-0.91
-0.58
-0.12
0.44
0.99
1.42
1.64
1.68
1.65
1.69
1.91
2.28
2.70
3.01
3.10
2.98
2.72
2.44
2.21
2.05
1.94
1.86
1.82
1.83
1.89
1.94
1.90
1.72
1.42
1.05
0.73
0.52
0.44
0.44
0.49
0.55
0.61
0.70
0.85
1.09
1.41
1.83
2.32
2.88
3.46
3.99
4.39
4.60
4.57
4.33
3.95
3.50
3.08
2.73
2.44
2.20
1.98
1.76
1.56
1.36
1.17
1.00
0.84
0.73
0.69
0.71
0.74
0.70
0.54
0.26
-0.11
-0.49
-0.87
-1.25
-1.65
-2.05
-2.39
-2.58
-2.59
-2.47
-2.31
-2.22
-2.25
-2.40
-2.60
-2.78
-2.88
-2.87
-2.77
-2.61
-2.40
-2.19
-2.05
-2.00
-2.07
-2.26
-2.57
-2.99
-3.48
-3.99
-4.38
-4.56
-4.51
-4.31
-4.11
-4.07
-4.24
-4.56
-4.90
-5.16
-5.31
-5.41
-5.52
-5.67
-5.81
-5.85
-5.70
-5.36
-4.86
-4.23
-3.49
-2.63
-1.67
-0.65
0.33
1.16
1.77
2.16
2.41
2.63
2.89
3.19
3.49
3.67
3.66
3.43
3.06
2.66
2.37
2.24
2.28
2.38
2.47
2.48
2.43
2.34
2.26
2.17
2.05
1.85
1.58
1.25
0.95
0.75
0.70
0.78
0.92
1.00
0.94
0.76
0.53
0.41
0.52
0.89
1.43
1.98
2.37
2.56
2.59
2.60
2.70
2.93
3.19
3.37
3.38
3.23
3.00
2.83
2.80
2.89
3.03
3.08
2.97
2.70
2.33
1.93
1.54
1.19
0.88
0.60
0.38
0.26
0.21
0.19
0.11
-0.11
-0.51
-1.02
-1.56
-2.01
-2.32
-2.50
-2.53
-2.39
-2.06
-1.52
-0.80
-0.02
0.67
1.14
1.37
1.39
1.30
1.19
1.11
1.08
1.10
1.16
1.24
1.28
1.23
1.07
0.85
0.65
0.59
0.71
0.96
1.22
1.35
1.26
0.96
0.57
0.21
-0.01
-0.09
-0.12
-0.19
-0.39
-0.71
-1.09
-1.43
-1.64
-1.68
-1.57
-1.38
-1.16
-0.94
-0.71
-0.43
-0.06
0.41
0.98
1.58
2.12
2.50
2.68
2.65
2.50
2.30
2.15
2.07
2.04
1.99
1.88
1.68
1.46
1.26
1.13
1.02
0.88
0.63
0.28
-0.10
-0.42
-0.60
-0.68
-0.72
-0.85
-1.13
-1.56
-2.07
-2.55
-2.91
-3.10
-3.13
-3.03
-2.81
-2.48
-2.02
-1.44
-0.76
-0.05
0.59
1.09
1.40
1.55
1.61
1.67
1.77
1.93
2.08
2.14
2.05
1.80
1.46
1.13
0.89
0.78
0.76
0.76
0.71
0.60
0.47
0.36
0.30
0.23
0.10
-0.14
-0.49
-0.91
-1.34
-1.77
-2.15
-2.45
-2.58
-2.45
-2.03
-1.38
-0.65
0.00
0.51
0.87
1.16
1.45
1.77
2.06
2.27
2.36
2.36
2.30
2.22
2.13
2.01
1.84
1.59
1.29
0.97
0.72
0.59
0.61
0.77
0.99
1.11
1.00
0.59
-0.08
-0.83
-1.45
-1.79
-1.79
-1.55
-1.24
-1.00
-0.90
-0.90
-0.92
-0.91
-0.84
-0.73
-0.61
-0.43
-0.14
0.32
0.94
1.65
2.35
2.91
3.21
3.22
2.95
2.49
1.97
1.47
1.07
0.74
0.45
0.13
-0.23
-0.60
-0.95
-1.26
-1.56
-1.89
-2.28
-2.72
-3.16
-3.51
-3.74
-3.86
-3.86
-3.77
-3.59
-3.34
-3.04
-2.76
-2.59
-2.54
-2.62
-2.77
-2.88
-2.89
-2.74
-2.43
-1.97
-1.39
-0.72
0.00
0.73
1.42
2.04
2.59
3.05
3.44
3.80
4.15
4.50
4.85
5.13
5.33
5.43
5.44
5.42
5.42
5.45
5.50
5.55
5.60
5.65
5.72
5.77
5.76
5.65
5.41
5.05
4.64
4.30
4.13
4.11
4.19
4.29
4.40
4.56
4.87
5.36
6.06
6.86
7.53
7.92
7.98
7.80
7.51
7.18
6.81
6.37
5.80
5.10
4.33
3.56
2.85
2.17
1.37
-0.09
-2.29
-4.83
-7.12
-8.78
-9.79
-10.32
-10.54
-10.53
-10.26
-9.60
-8.54
-7.39
-6.20
-5.04
-3.90
-2.82
-1.84
-1.02
-0.38
0.08
0.33
0.38
0.15
-0.20
-0.68
-1.29
-2.01
-2.73
-3.38
-3.95
-4.45
-4.98
-5.55
-6.19
-6.81
-7.33
-7.69
-7.90
-8.00
-8.04
-8.04
-8.00
-7.92
-7.82
-7.73
-7.70
-7.70
-7.68
-7.53
-7.15
-6.48
-5.54
-4.41
-3.21
-2.02
-0.90
0.16
1.20
2.26
3.35
4.43
5.41
6.22
6.77
7.05
7.01
6.62
5.85
4.67
3.08
1.16
-0.96
-3.10
-5.07
-6.75
-8.02
-8.84
-9.18
-9.09
-8.66
-8.03
-7.32
-6.66
-6.06
-5.50
-4.92
-4.28
-3.60
-2.94
-2.39
-2.02
-1.84
-1.85
-1.99
-2.18
-2.37
-2.49
-2.50
-2.36
-2.04
-1.52
-0.83
-0.05
0.70
1.28
1.62
1.77
1.88
2.09
2.48
3.00
3.50
3.80
3.83
3.67
3.43
3.23
3.14
3.09
3.05
2.98
2.96
3.02
3.19
3.35
3.35
3.08
2.54
1.91
1.43
1.28
1.47
1.88
2.23
2.33
2.08
1.54
0.87
0.28
-0.11
-0.20
0.04
0.59
1.39
2.33
3.27
4.04
4.56
4.77
4.72
4.49
4.16
3.79
3.45
3.14
2.87
2.60
2.27
1.85
1.32
0.72
0.11
-0.41
-0.78
-0.95
-1.00
-0.98
-0.98
-1.08
-1.28
-1.55
-1.84
-2.10
-2.31
-2.45
-2.52
-2.52
-2.43
-2.25
-1.97
-1.61
-1.19
-0.71
-0.15
0.49
1.17
1.83
2.37
2.72
2.83
2.71
2.46
2.17
1.91
1.72
1.56
1.39
1.14
0.82
0.45
0.10
-0.18
-0.36
-0.46
-0.54
-0.66
-0.89
-1.25
-1.68
-2.09
-2.34
-2.37
-2.23
-2.04
-1.93
-1.95
-2.10
-2.27
-2.39
-2.44
-2.45
-2.45
-2.44
-2.31
-1.93
-1.22
-0.22
0.92
1.97
2.72
3.05
2.99
2.68
2.30
2.01
1.90
1.93
2.01
2.00
1.87
1.58
1.19
0.75
0.30
-0.15
-0.58
-0.94
-1.18
-1.26
-1.19
-1.07
-1.03
-1.19
-1.63
-2.29
-3.09
-3.84
-4.41
-4.72
-4.77
-4.59
-4.24
-3.75
-3.13
-2.40
-1.61
-0.86
-0.24
0.18
0.46
0.69
1.00
1.43
1.96
2.47
2.83
3.04
3.13
3.23
3.39
3.55
3.58
3.35
2.82
2.07
1.30
0.70
0.37
0.29
0.33
0.37
0.34
0.20
-0.02
-0.33
-0.71
-1.12
-1.52
-1.83
-2.00
-2.01
-1.88
-1.68
-1.50
-1.40
-1.44
-1.57
-1.72
-1.72
-1.44
-0.81
0.13
1.19
2.14
2.80
3.12
3.16
3.08
3.01
2.96
2.87
2.70
2.43
2.13
1.89
1.76
1.70
1.59
1.29
0.73
-0.04
-0.83
-1.46
-1.79
-1.81
-1.61
-1.33
-1.10
-0.99
-1.00
-1.11
-1.31
-1.58
-1.94
-2.35
-2.74
-3.01
-3.06
-2.83
-2.34
-1.67
-0.93
-0.24
0.35
0.83
1.22
1.58
1.91
2.19
2.40
2.50
2.49
2.41
2.26
2.04
1.73
1.32
0.83
0.38
0.07
0.01
0.18
0.47
0.72
0.79
0.61
0.24
-0.21
-0.60
-0.88
-1.04
-1.16
-1.26
-1.34
-1.35
-1.20
-0.89
-0.46
-0.06
0.19
0.24
0.17
0.12
0.25
0.63
1.19
1.81
2.36
2.76
3.04
3.26
3.46
3.61
3.65
3.55
3.29
2.96
2.65
2.41
2.30
2.26
2.22
2.11
1.87
1.48
0.97
0.41
-0.18
-0.75
-1.34
-1.95
-2.58
-3.16
-3.58
-3.77
-3.75
-3.61
-3.51
-3.52
-3.67
-3.85
-3.94
-3.85
-3.57
-3.21
-2.89
-2.66
-2.52
-2.35
-2.05
-1.57
-0.92
-0.19
0.51
1.09
1.49
1.73
1.85
1.92
2.03
2.22
2.49
2.80
3.09
3.30
3.40
3.36
3.19
2.89
2.46
1.94
1.36
0.77
0.20
-0.31
-0.75
-1.12
-1.41
-1.61
-1.72
-1.76
-1.73
-1.64
-1.53
-1.42
-1.35
-1.34
-1.41
-1.49
-1.51
-1.36
-1.01
-0.49
0.12
0.76
1.34
1.83
2.20
2.42
2.46
2.32
2.02
1.63
1.20
0.77
0.31
-0.20
-0.74
-1.23
-1.57
-1.65
-1.49
-1.16
-0.79
-0.51
-0.37
-0.32
-0.33
-0.37
-0.44
-0.61
-0.90
-1.29
-1.72
-2.11
-2.42
-2.65
-2.83
-3.03
-3.27
-3.52
-3.68
-3.66
-3.38
-2.84
-2.12
-1.34
-0.63
-0.06
0.39
0.77
1.15
1.55
1.91
2.15
2.21
2.08
1.81
1.52
1.33
1.33
1.52
1.84
2.15
2.31
2.20
1.80
1.20
0.54
-0.01
-0.37
-0.54
-0.60
-0.64
-0.75
-0.94
-1.18
-1.42
-1.67
-1.91
-2.14
-2.31
-2.33
-2.13
-1.69
-1.07
-0.41
0.13
0.47
0.60
0.58
0.51
0.46
0.44
0.46
0.51
0.59
0.69
0.84
1.00
1.13
1.19
1.13
0.96
0.72
0.45
0.24
0.09
-0.01
-0.14
-0.36
-0.70
-1.12
-1.53
-1.80
-1.91
-1.87
-1.78
-1.72
-1.71
-1.74
-1.72
-1.60
-1.35
-0.99
-0.59
-0.20
0.14
0.43
0.67
0.86
0.98
0.98
0.86
0.66
0.47
0.42
0.56
0.86
1.20
1.45
1.49
1.35
1.08
0.79
0.55
0.39
0.29
0.22
0.15
0.05
-0.10
-0.34
-0.68
-1.09
-1.46
-1.70
-1.72
-1.55
-1.28
-1.02
-0.89
-0.89
-0.97
-1.02
-0.93
-0.65
-0.20
0.34
0.86
1.24
1.41
1.38
1.21
0.98
0.80
0.69
0.66
0.68
0.74
0.81
0.88
0.90
0.81
0.55
0.12
-0.42
-0.97
-1.44
-1.81
-2.10
-2.40
-2.72
-3.02
-3.22
-3.25
-3.11
-2.84
-2.47
-2.06
-1.59
-1.06
-0.50
0.04
0.47
0.76
0.92
1.03
1.16
1.34
1.56
1.81
2.01
2.14
2.15
2.02
1.74
1.38
1.02
0.77
0.69
0.80
1.01
1.18
1.23
1.09
0.82
0.47
0.12
-0.23
-0.58
-0.93
-1.27
-1.57
-1.77
-1.88
-1.89
-1.86
-1.82
-1.78
-1.71
-1.57
-1.31
-0.90
-0.34
0.35
1.07
1.73
2.23
2.50
2.55
2.46
2.32
2.21
2.17
2.18
2.20
2.16
2.04
1.84
1.61
1.38
1.18
0.99
0.81
0.63
0.44
0.27
0.13
0.01
-0.15
-0.39
-0.77
-1.29
-1.87
-2.43
-2.84
-3.03
-2.98
-2.72
-2.32
-1.86
-1.40
-0.98
-0.60
-0.23
0.15
0.56
1.01
1.46
1.84
2.09
2.20
2.18
2.09
1.96
1.80
1.60
1.36
1.14
0.99
0.97
1.07
1.24
1.40
1.51
1.57
1.59
1.58
1.44
1.11
0.53
-0.24
-1.06
-1.74
-2.19
-2.38
-2.39
-2.31
-2.23
-2.16
-2.10
-2.04
-1.95
-1.82
-1.61
-1.29
-0.88
-0.37
0.19
0.76
1.28
1.72
2.03
2.22
2.30
2.32
2.30
2.24
2.12
1.94
1.70
1.47
1.31
1.28
1.38
1.52
1.59
1.48
1.15
0.65
0.12
-0.30
-0.49
-0.48
-0.40
-0.42
-0.68
-1.19
-1.86
-2.52
-3.03
-3.28
-3.30
-3.13
-2.81
-2.37
-1.85
-1.28
-0.72
-0.26
0.06
0.23
0.33
0.45
0.68
1.06
1.59
2.17
2.68
3.00
3.04
2.79
2.32
1.73
1.16
0.70
0.42
0.35
0.50
0.83
1.24
1.58
1.69
1.49
1.02
0.42
-0.12
-0.44
-0.54
-0.51
-0.49
-0.59
-0.81
-1.10
-1.37
-1.57
-1.68
-1.69
-1.62
-1.45
-1.19
-0.84
-0.41
0.07
0.56
1.04
1.45
1.76
1.95
2.00
1.93
1.78
1.62
1.51
1.48
1.57
1.75
1.98
2.19
2.31
2.30
2.13
1.82
1.43
1.01
0.63
0.34
0.16
0.06
-0.01
-0.08
-0.16
-0.23
-0.27
-0.28
-0.28
-0.32
-0.42
-0.58
-0.75
-0.88
-0.90
-0.79
-0.55
-0.22
0.12
0.41
0.61
0.72
0.77
0.84
0.98
1.19
1.41
1.54
1.50
1.29
0.94
0.56
0.20
-0.12
-0.42
-0.75
-1.10
-1.45
-1.76
-1.97
-2.04
-1.96
-1.75
-1.47
-1.21
-1.09
-1.14
-1.34
-1.55
-1.68
-1.67
-1.57
-1.48
-1.50
-1.61
-1.72
-1.72
-1.51
-1.10
-0.58
-0.07
0.34
0.62
0.76
0.77
0.68
0.45
0.12
-0.25
-0.58
-0.74
-0.70
-0.49
-0.25
-0.13
-0.26
-0.62
-1.09
-1.51
-1.73
-1.73
-1.57
-1.33
-1.11
-0.96
-0.90
-0.98
-1.23
-1.63
-2.10
-2.48
-2.64
-2.51
-2.14
-1.64
-1.12
-0.69
-0.32
0.02
0.39
0.80
1.23
1.60
1.86
1.98
1.99
1.97
1.98
2.07
2.24
2.40
2.50
2.44
2.19
1.78
1.31
0.87
0.56
0.38
0.30
0.24
0.13
-0.05
-0.26
-0.47
-0.65
-0.82
-1.03
-1.30
-1.65
-2.03
-2.38
-2.67
-2.87
-2.97
-2.97
-2.85
-2.60
-2.21
-1.70
-1.10
-0.44
0.23
0.88
1.47
1.96
2.34
2.61
2.78
2.84
2.80
2.66
2.44
2.17
1.88
1.59
1.31
1.06
0.85
0.67
0.55
0.45
0.32
0.12
-0.19
-0.59
-1.00
-1.31
-1.48
-1.51
-1.50
-1.58
-1.80
-2.14
-2.46
-2.61
-2.50
-2.17
-1.74
-1.33
-1.04
-0.82
-0.58
-0.27
0.12
0.53
0.91
1.25
1.62
2.07
2.58
3.05
3.33
3.34
3.07
2.65
2.24
1.90
1.63
1.36
1.02
0.63
0.24
-0.06
-0.28
-0.45
-0.64
-0.87
-1.12
-1.31
-1.40
-1.39
-1.36
-1.40
-1.57
-1.85
-2.17
-2.41
-2.47
-2.26
-1.80
-1.14
-0.42
0.24
0.74
1.03
1.18
1.26
1.35
1.45
1.53
1.49
1.33
1.11
0.95
0.99
1.26
1.69
2.11
2.35
2.34
2.10
1.72
1.31
0.93
0.59
0.27
-0.04
-0.31
-0.53
-0.72
-0.92
-1.19
-1.53
-1.89
-2.17
-2.30
-2.25
-2.08
-1.86
-1.64
-1.44
-1.23
-0.97
-0.67
-0.32
0.06
0.46
0.89
1.34
1.75
2.06
2.22
2.25
2.21
2.15
2.10
2.01
1.82
1.51
1.16
0.85
0.65
0.50
0.35
0.09
-0.28
-0.67
-0.97
-1.09
-1.04
-0.91
-0.83
-0.88
-1.07
-1.35
-1.62
-1.83
-1.94
-1.98
-1.96
-1.89
-1.75
-1.53
-1.22
-0.86
-0.50
-0.17
0.09
0.31
0.54
0.79
1.06
1.33
1.52
1.63
1.68
1.73
1.84
2.01
2.22
2.39
2.45
2.33
2.00
1.47
0.80
0.07
-0.57
-1.03
-1.25
-1.26
-1.17
-1.07
-1.08
-1.24
-1.53
-1.89
-2.22
-2.42
-2.42
-2.18
-1.71
-1.08
-0.41
0.24
0.82
1.29
1.68
1.95
2.08
2.06
1.93
1.75
1.65
1.70
1.89
2.12
2.26
2.20
1.91
1.44
0.91
0.40
-0.01
-0.31
-0.51
-0.60
-0.58
-0.48
-0.34
-0.24
-0.22
-0.30
-0.45
-0.58
-0.63
-0.61
-0.58
-0.60
-0.72
-0.88
-1.03
-1.06
-0.91
-0.58
-0.11
0.43
0.94
1.33
1.54
1.54
1.37
1.08
0.72
0.34
-0.04
-0.41
-0.74
-1.02
-1.22
-1.34
-1.39
-1.42
-1.41
-1.38
-1.32
-1.24
-1.17
-1.17
-1.25
-1.38
-1.49
-1.52
-1.47
-1.36
-1.25
-1.20
-1.19
-1.17
-1.09
-0.92
-0.68
-0.41
-0.14
0.14
0.46
0.80
1.11
1.30
1.30
1.10
0.77
0.46
0.26
0.20
0.24
0.29
0.26
0.15
-0.01
-0.17
-0.33
-0.52
-0.78
-1.14
-1.57
-1.96
-2.24
-2.33
-2.24
-2.06
-1.88
-1.77
-1.77
-1.85
-1.99
-2.10
-2.14
-2.01
-1.67
-1.09
-0.32
0.54
1.38
2.07
2.53
2.75
2.75
2.61
2.38
2.11
1.85
1.62
1.44
1.33
1.25
1.15
0.95
0.61
0.11
-0.48
-1.03
-1.41
-1.55
-1.45
-1.22
-1.02
-0.97
-1.10
-1.33
-1.52
-1.56
-1.43
-1.25
-1.16
-1.30
-1.63
-1.95
-2.01
-1.62
-0.80
0.21
1.10
1.63
1.79
1.72
1.69
1.82
2.10
2.36
2.40
2.16
1.74
1.34
1.12
1.11
1.26
1.41
1.47
1.42
1.27
1.05
0.76
0.39
-0.07
-0.58
-1.06
-1.42
-1.60
-1.59
-1.43
-1.23
-1.13
-1.19
-1.45
-1.85
-2.27
-2.59
-2.70
-2.57
-2.22
-1.69
-1.06
-0.38
0.30
0.93
1.49
1.95
2.31
2.62
2.88
3.10
3.25
3.24
3.01
2.55
1.92
1.24
0.70
0.40
0.38
0.54
0.77
0.92
0.94
0.83
0.61
0.34
0.03
-0.32
-0.71
-1.08
-1.38
-1.57
-1.63
-1.60
-1.56
-1.61
-1.77
-1.99
-2.13
-2.04
-1.61
-0.89
-0.00
0.86
1.52
1.93
2.13
2.23
2.31
2.41
2.50
2.55
2.55
2.51
2.44
2.32
2.10
1.78
1.38
0.98
0.66
0.46
0.37
0.33
0.29
0.24
0.20
0.18
0.17
0.11
-0.02
-0.21
-0.42
-0.57
-0.66
-0.71
-0.79
-0.91
-1.02
-1.03
-0.86
-0.48
0.01
0.53
0.96
1.25
1.42
1.47
1.41
1.28
1.10
0.93
0.82
0.77
0.74
0.65
0.45
0.12
-0.28
-0.63
-0.83
-0.85
-0.69
-0.45
-0.23
-0.11
-0.16
-0.35
-0.65
-0.95
-1.19
-1.33
-1.39
-1.42
-1.44
-1.50
-1.53
-1.51
-1.40
-1.21
-0.95
-0.68
-0.43
-0.19
0.04
0.31
0.59
0.87
1.07
1.13
1.01
0.72
0.32
-0.09
-0.42
-0.60
-0.61
-0.47
-0.23
0.01
0.19
0.24
0.14
-0.06
-0.27
-0.40
-0.39
-0.26
-0.10
-0.04
-0.17
-0.50
-0.97
-1.42
-1.76
-1.92
-1.94
-1.87
-1.76
-1.61
-1.38
-1.01
-0.56
-0.11
0.24
0.44
0.53
0.60
0.73
0.93
1.15
1.30
1.32
1.19
0.94
0.60
0.21
-0.15
-0.39
-0.42
-0.24
0.08
0.37
0.48
0.32
-0.07
-0.57
-1.03
-1.35
-1.52
-1.58
-1.60
-1.63
-1.71
-1.84
-1.99
-2.13
-2.16
-2.02
-1.70
-1.24
-0.75
-0.28
0.14
0.57
1.04
1.57
2.09
2.50
2.75
2.82
2.75
2.61
2.40
2.14
1.79
1.39
1.00
0.70
0.52
0.45
0.44
0.43
0.39
0.33
0.24
0.13
-0.03
-0.28
-0.64
-1.07
-1.49
-1.79
-1.93
-1.91
-1.81
-1.74
-1.80
-2.00
-2.25
-2.42
-2.36
-2.00
-1.40
-0.68
0.02
0.62
1.10
1.49
1.85
2.18
2.45
2.62
2.65
2.56
2.38
2.17
1.93
1.63
1.28
0.90
0.53
0.23
0.04
-0.06
-0.13
-0.23
-0.36
-0.49
-0.59
-0.62
-0.62
-0.61
-0.66
-0.79
-0.98
-1.25
-1.56
-1.89
-2.21
-2.43
-2.47
-2.29
-1.88
-1.31
-0.66
-0.01
0.58
1.06
1.41
1.61
1.70
1.76
1.89
2.13
2.44
2.70
2.80
2.67
2.37
2.05
1.80
1.66
1.55
1.35
0.99
0.48
-0.02
-0.37
-0.46
-0.33
-0.12
0.00
-0.07
-0.31
-0.60
-0.79
-0.79
-0.66
-0.52
-0.48
-0.57
-0.71
-0.79
-0.72
-0.49
-0.18
0.12
0.37
0.59
0.82
1.08
1.34
1.52
1.57
1.46
1.23
0.93
0.61
0.28
-0.06
-0.37
-0.59
-0.68
-0.60
-0.43
-0.29
-0.29
-0.46
-0.74
-1.00
-1.15
-1.15
-1.07
-0.99
-0.95
-0.95
-0.96
-0.97
-0.99
-1.09
-1.26
-1.45
-1.53
-1.40
-1.03
-0.50
0.02
0.39
0.56
0.59
0.64
0.84
1.19
1.58
1.81
1.77
1.41
0.88
0.32
-0.13
-0.41
-0.56
-0.65
-0.73
-0.80
-0.84
-0.86
-0.87
-0.90
-0.96
-1.01
-0.99
-0.92
-0.81
-0.76
-0.84
-1.07
-1.39
-1.70
-1.90
-1.97
-1.94
-1.87
-1.75
-1.55
-1.19
-0.69
-0.10
0.39
0.65
0.64
0.45
0.27
0.27
0.51
0.90
1.27
1.45
1.36
1.07
0.73
0.48
0.39
0.44
0.48
0.39
0.09
-0.36
-0.81
-1.11
-1.16
-1.02
-0.84
-0.78
-0.93
-1.25
-1.62
-1.88
-1.98
-1.95
-1.88
-1.84
-1.85
-1.82
-1.66
-1.33
-0.86
-0.32
0.22
0.71
1.16
1.57
1.93
2.18
2.24
2.12
1.89
1.66
1.51
1.47
1.47
1.43
1.34
1.23
1.17
1.17
1.16
1.07
0.82
0.46
0.07
-0.27
-0.51
-0.71
-0.96
-1.33
-1.79
-2.21
-2.46
-2.49
-2.36
-2.20
-2.13
-2.17
-2.22
-2.14
-1.80
-1.20
-0.43
0.36
1.01
1.46
1.71
1.78
1.75
1.66
1.58
1.55
1.59
1.65
1.64
1.50
1.23
0.95
0.79
0.85
1.11
1.42
1.59
1.46
1.01
0.34
-0.35
-0.87
-1.13
-1.16
-1.08
-1.03
-1.11
-1.34
-1.65
-1.91
-2.06
-2.06
-1.98
-1.88
-1.78
-1.64
-1.35
-0.84
-0.09
0.80
1.68
2.38
2.79
2.90
2.76
2.49
2.19
1.91
1.70
1.56
1.47
1.45
1.47
1.52
1.56
1.53
1.39
1.12
0.75
0.31
-0.11
-0.47
-0.75
-0.95
-1.12
-1.32
-1.60
-1.94
-2.33
-2.69
-2.93
-3.02
-2.96
-2.81
-2.61
-2.38
-2.09
-1.70
-1.18
-0.54
0.14
0.78
1.28
1.60
1.73
1.74
1.70
1.69
1.76
1.88
1.99
2.03
1.98
1.85
1.74
1.72
1.82
2.00
2.15
2.17
1.98
1.61
1.11
0.62
0.22
-0.00
-0.06
-0.01
0.03
-0.06
-0.31
-0.71
-1.17
-1.57
-1.86
-2.02
-2.04
-1.88
-1.49
-0.83
0.07
1.07
1.93
2.47
2.58
2.32
1.86
1.36
0.96
0.70
0.55
0.51
0.55
0.60
0.61
0.51
0.27
-0.08
-0.44
-0.69
-0.76
-0.68
-0.54
-0.42
-0.35
-0.32
-0.26
-0.13
-0.00
0.04
-0.11
-0.47
-0.98
-1.50
-1.91
-2.10
-2.06
-1.82
-1.45
-1.02
-0.60
-0.22
0.08
0.34
0.59
0.88
1.23
1.55
1.76
1.76
1.54
1.16
0.72
0.31
-0.03
-0.32
-0.59
-0.88
-1.16
-1.41
-1.55
-1.57
-1.44
-1.20
-0.92
-0.69
-0.57
-0.60
-0.73
-0.91
-1.08
-1.23
-1.37
-1.49
-1.59
-1.66
-1.67
-1.63
-1.53
-1.36
-1.07
-0.62
-0.00
0.70
1.36
1.85
2.10
2.10
1.92
1.66
1.35
1.04
0.74
0.47
0.25
0.09
-0.00
-0.09
-0.18
-0.26
-0.30
-0.29
-0.24
-0.23
-0.35
-0.64
-1.07
-1.52
-1.88
-2.06
-2.08
-2.04
-2.04
-2.13
-2.29
-2.42
-2.42
-2.23
-1.84
-1.29
-0.68
-0.05
0.55
1.09
1.56
1.94
2.19
2.27
2.18
1.98
1.76
1.65
1.70
1.89
2.05
2.01
1.63
0.95
0.14
-0.53
-0.87
-0.85
-0.59
-0.33
-0.24
-0.35
-0.57
-0.73
-0.76
-0.68
-0.62
-0.73
-1.01
-1.40
-1.74
-1.91
-1.90
-1.77
-1.56
-1.28
-0.90
-0.38
0.24
0.83
1.27
1.50
1.54
1.51
1.54
1.67
1.86
2.02
2.04
1.90
1.66
1.39
1.20
1.14
1.19
1.29
1.38
1.36
1.21
0.92
0.52
0.10
-0.29
-0.57
-0.74
-0.82
-0.86
-0.94
-1.09
-1.30
-1.52
-1.71
-1.84
-1.87
-1.81
-1.60
-1.22
-0.63
0.10
0.83
1.41
1.74
1.87
1.95
2.14
2.48
2.86
3.08
3.01
2.65
2.17
1.76
1.50
1.32
1.07
0.68
0.19
-0.22
-0.39
-0.26
0.05
0.31
0.35
0.15
-0.18
-0.47
-0.61
-0.60
-0.54
-0.56
-0.73
-1.05
-1.44
-1.76
-1.92
-1.85
-1.57
-1.15
-0.71
-0.31
-0.00
0.22
0.41
0.58
0.71
0.77
0.73
0.60
0.45
0.37
0.40
0.53
0.68
0.77
0.78
0.73
0.65
0.57
0.49
0.35
0.14
-0.11
-0.34
-0.49
-0.54
-0.55
-0.58
-0.68
-0.81
-0.90
-0.93
-0.91
-0.94
-1.13
-1.49
-1.93
-2.26
-2.32
-2.03
-1.46
-0.75
-0.07
0.49
0.90
1.20
1.41
1.52
1.53
1.46
1.35
1.28
1.26
1.24
1.16
0.92
0.55
0.13
-0.22
-0.39
-0.39
-0.27
-0.13
-0.06
-0.09
-0.21
-0.38
-0.59
-0.84
-1.10
-1.34
-1.49
-1.53
-1.48
-1.45
-1.55
-1.80
-2.12
-2.32
-2.24
-1.76
-0.97
-0.06
0.73
1.27
1.53
1.62
1.64
1.67
1.72
1.74
1.72
1.67
1.62
1.58
1.53
1.45
1.33
1.18
1.02
0.88
0.76
0.63
0.45
0.20
-0.15
-0.57
-1.00
-1.37
-1.62
-1.72
-1.67
-1.53
-1.37
-1.26
-1.27
-1.42
-1.70
-2.03
-2.31
-2.42
-2.28
-1.88
-1.28
-0.59
0.08
0.67
1.17
1.63
2.07
2.46
2.77
2.92
2.88
2.67
2.36
2.03
1.75
1.57
1.49
1.44
1.35
1.14
0.85
0.52
0.24
0.05
-0.08
-0.24
-0.49
-0.83
-1.18
-1.42
-1.48
-1.40
-1.28
-1.24
-1.35
-1.64
-2.04
-2.44
-2.76
-2.89
-2.78
-2.43
-1.85
-1.16
-0.43
0.23
0.79
1.20
1.47
1.59
1.55
1.40
1.22
1.11
1.15
1.34
1.61
1.86
1.98
1.96
1.82
1.64
1.47
1.33
1.17
0.93
0.57
0.11
-0.36
-0.76
-1.03
-1.20
-1.31
-1.42
-1.55
-1.66
-1.70
-1.67
-1.58
-1.52
-1.54
-1.67
-1.84
-1.91
-1.80
-1.46
-0.95
-0.39
0.12
0.52
0.86
1.19
1.58
2.02
2.41
2.58
2.44
1.98
1.30
0.64
0.18
0.04
0.19
0.50
0.83
1.07
1.17
1.13
0.95
0.66
0.29
-0.09
-0.41
-0.61
-0.68
-0.71
-0.79
-0.98
-1.30
-1.71
-2.12
-2.51
-2.82
-3.02
-3.03
-2.76
-2.14
-1.21
-0.12
0.93
1.70
2.09
2.15
2.04
1.95
2.01
2.20
2.42
2.50
2.36
2.02
1.56
1.13
0.80
0.60
0.51
0.50
0.56
0.68
0.83
0.95
0.99
0.88
0.63
0.28
-0.08
-0.38
-0.60
-0.76
-0.91
-1.07
-1.26
-1.44
-1.58
-1.64
-1.57
-1.35
-0.95
-0.37
0.32
1.03
1.64
2.03
2.12
1.93
1.55
1.11
0.73
0.46
0.29
0.16
0.06
-0.04
-0.11
-0.14
-0.16
-0.20
-0.30
-0.49
-0.73
-0.98
-1.18
-1.29
-1.34
-1.36
-1.40
-1.46
-1.53
-1.58
-1.62
-1.64
-1.67
-1.68
-1.65
-1.52
-1.29
-0.97
-0.64
-0.35
-0.14
0.01
0.17
0.37
0.63
0.94
1.24
1.50
1.67
1.69
1.58
1.31
0.93
0.47
-0.03
-0.51
-0.91
-1.15
-1.19
-1.04
-0.78
-0.55
-0.48
-0.63
-0.96
-1.37
-1.78
-2.12
-2.38
-2.62
-2.85
-3.09
-3.30
-3.42
-3.39
-3.11
-2.55
-1.73
-0.77
0.15
0.89
1.38
1.65
1.83
2.02
2.29
2.57
2.78
2.82
2.69
2.45
2.19
2.00
1.88
1.75
1.52
1.11
0.56
-0.03
-0.51
-0.79
-0.86
-0.83
-0.83
-0.97
-1.28
-1.72
-2.21
-2.65
-2.98
-3.15
-3.18
-3.09
-2.86
-2.52
-2.07
-1.53
-0.91
-0.26
0.38
0.99
1.55
2.04
2.47
2.84
3.12
3.31
3.41
3.39
3.23
2.92
2.49
2.02
1.62
1.38
1.29
1.26
1.15
0.86
0.39
-0.19
-0.78
-1.28
-1.66
-1.90
-2.02
-2.01
-1.89
-1.75
-1.68
-1.75
-1.97
-2.28
-2.53
-2.60
-2.44
-2.03
-1.43
-0.67
0.17
1.04
1.83
2.42
2.74
2.78
2.61
2.33
2.07
1.90
1.86
1.90
1.97
2.00
1.96
1.88
1.79
1.71
1.63
1.52
1.31
1.00
0.62
0.24
-0.08
-0.30
-0.44
-0.57
-0.73
-0.91
-1.10
-1.24
-1.30
-1.27
-1.15
-0.98
-0.78
-0.57
-0.36
-0.13
0.13
0.45
0.84
1.27
1.66
1.93
2.01
1.88
1.59
1.24
0.98
0.88
0.94
1.08
1.16
1.09
0.85
0.49
0.13
-0.16
-0.37
-0.53
-0.71
-0.91
-1.09
-1.19
-1.18
-1.11
-1.07
-1.14
-1.35
-1.65
-1.94
-2.14
-2.18
-2.08
-1.84
-1.47
-0.99
-0.44
0.11
0.58
0.91
1.10
1.20
1.28
1.42
1.63
1.87
2.04
2.05
1.84
1.42
0.86
0.28
-0.21
-0.53
-0.65
-0.59
-0.43
-0.27
-0.22
-0.34
-0.66
-1.14
-1.68
-2.14
-2.45
-2.57
-2.55
-2.44
-2.34
-2.29
-2.33
-2.42
-2.53
-2.54
-2.37
-1.93
-1.25
-0.43
0.38
1.05
1.53
1.84
2.08
2.30
2.47
2.52
2.37
2.01
1.54
1.11
0.85
0.81
0.95
1.15
1.29
1.31
1.23
1.09
0.97
0.88
0.75
0.53
0.14
-0.37
-0.93
-1.39
-1.66
-1.72
-1.66
-1.60
-1.64
-1.84
-2.15
-2.48
-2.71
-2.74
-2.52
-2.07
-1.46
-0.79
-0.13
0.50
1.11
1.68
2.16
2.46
2.49
2.23
1.75
1.21
0.78
0.56
0.59
0.81
1.13
1.45
1.72
1.87
1.87
1.69
1.33
0.82
0.24
-0.34
-0.79
-1.07
-1.17
-1.17
-1.17
-1.28
-1.53
-1.86
-2.15
-2.27
-2.19
-1.98
-1.75
-1.59
-1.48
-1.36
-1.12
-0.71
-0.15
0.45
1.01
1.46
1.77
1.92
1.93
1.79
1.53
1.20
0.94
0.81
0.86
1.04
1.27
1.48
1.66
1.84
2.04
2.22
2.29
2.17
1.82
1.29
0.70
0.20
-0.08
-0.10
0.11
0.42
0.63
0.59
0.20
-0.49
-1.29
-1.97
-2.32
-2.27
-1.91
-1.38
-0.87
-0.47
-0.17
0.09
0.37
0.68
1.00
1.27
1.44
1.53
1.55
1.56
1.60
1.65
1.65
1.53
1.24
0.78
0.19
-0.42
-0.96
-1.35
-1.54
-1.52
-1.34
-1.08
-0.81
-0.62
-0.53
-0.55
-0.66
-0.82
-1.01
-1.22
-1.43
-1.60
-1.67
-1.59
-1.36
-1.03
-0.69
-0.40
-0.22
-0.17
-0.23
-0.33
-0.39
-0.30
-0.00
0.50
1.12
1.73
2.15
2.27
2.06
1.57
0.94
0.33
-0.14
-0.41
-0.47
-0.41
-0.31
-0.26
-0.29
-0.39
-0.50
-0.63
-0.76
-0.93
-1.14
-1.40
-1.67
-1.88
-2.02
-2.11
-2.20
-2.32
-2.46
-2.56
-2.51
-2.23
-1.69
-0.99
-0.24
0.40
0.84
1.07
1.19
1.32
1.54
1.85
2.17
2.37
2.37
2.13
1.75
1.35
1.08
0.98
1.04
1.15
1.18
1.04
0.71
0.25
-0.22
-0.64
-0.93
-1.13
-1.27
-1.38
-1.47
-1.53
-1.58
-1.65
-1.83
-2.12
-2.48
-2.83
-3.03
-2.99
-2.73
-2.30
-1.78
-1.26
-0.76
-0.27
0.22
0.72
1.24
1.74
2.18
2.48
2.61
2.58
2.42
2.21
2.02
1.87
1.70
1.49
1.19
0.85
0.58
0.48
0.59
0.86
1.13
1.25
1.09
0.62
-0.06
-0.78
-1.37
-1.75
-1.90
-1.93
-1.92
-1.93
-1.98
-2.00
-1.94
-1.78
-1.51
-1.17
-0.78
-0.36
0.09
0.60
1.16
1.75
2.30
2.77
3.06
3.12
2.93
2.54
2.02
1.49
1.06
0.80
0.74
0.84
1.03
1.22
1.33
1.31
1.14
0.84
0.45
0.03
-0.37
-0.71
-0.95
-1.06
-1.05
-0.98
-0.96
-1.09
-1.37
-1.69
-1.89
-1.82
-1.49
-1.02
-0.60
-0.36
-0.28
-0.22
-0.03
0.35
0.84
1.33
1.70
1.93
2.02
2.00
1.86
1.56
1.11
0.58
0.05
-0.38
-0.66
-0.80
-0.86
-0.86
-0.81
-0.73
-0.66
-0.66
-0.79
-1.04
-1.35
-1.60
-1.69
-1.58
-1.34
-1.10
-0.96
-0.97
-1.07
-1.16
-1.14
-0.94
-0.59
-0.14
0.35
0.82
1.21
1.47
1.54
1.44
1.23
1.02
0.89
0.87
0.91
0.93
0.86
0.68
0.43
0.17
-0.08
-0.32
-0.54
-0.74
-0.84
-0.83
-0.75
-0.69
-0.80
-1.13
-1.63
-2.14
-2.47
-2.53
-2.34
-2.01
-1.69
-1.46
-1.31
-1.18
-1.03
-0.83
-0.66
-0.54
-0.48
-0.39
-0.16
0.32
1.02
1.81
2.50
2.89
2.87
2.49
1.93
1.40
1.05
0.92
0.92
0.93
0.85
0.71
0.58
0.54
0.57
0.59
0.44
0.06
-0.54
-1.20
-1.74
-2.04
-2.09
-2.00
-1.93
-1.98
-2.15
-2.33
-2.37
-2.19
-1.77
-1.19
-0.56
0.02
0.54
1.04
1.53
1.99
2.39
2.62
2.65
2.49
2.23
1.98
1.78
1.66
1.55
1.42
1.26
1.12
1.07
1.15
1.34
1.55
1.63
1.46
1.01
0.36
-0.37
-1.01
-1.48
-1.76
-1.89
-1.95
-1.99
-2.03
-2.06
-2.04
-1.93
-1.72
-1.41
-1.02
-0.56
-0.05
0.47
0.96
1.36
1.60
1.66
1.54
1.31
1.05
0.86
0.81
0.90
1.13
1.40
1.67
1.88
2.02
2.11
2.16
2.13
1.95
1.57
1.00
0.32
-0.29
-0.71
-0.88
-0.87
-0.79
-0.73
-0.76
-0.83
-0.90
-0.92
-0.89
-0.82
-0.71
-0.55
-0.34
-0.08
0.19
0.42
0.59
0.75
0.97
1.29
1.70
2.12
2.38
2.36
2.01
1.43
0.79
0.27
-0.01
-0.04
0.07
0.21
0.28
0.23
0.08
-0.13
-0.37
-0.64
-0.92
-1.18
-1.36
-1.42
-1.37
-1.26
-1.22
-1.34
-1.62
-2.00
-2.33
-2.45
-2.28
-1.85
-1.23
-0.57
0.05
0.55
0.93
1.18
1.33
1.39
1.39
1.34
1.26
1.17
1.09
1.06
1.08
1.15
1.21
1.22
1.09
0.81
0.42
-0.03
-0.48
-0.88
-1.19
-1.43
-1.59
-1.71
-1.84
-2.00
-2.21
-2.44
-2.68
-2.92
-3.16
-3.38
-3.53
-3.53
-3.31
-2.83
-2.12
-1.27
-0.40
0.39
1.08
1.69
2.24
2.71
3.05
3.20
3.12
2.86
2.50
2.14
1.85
1.66
1.54
1.45
1.34
1.21
1.06
0.90
0.71
0.48
0.19
-0.15
-0.55
-0.97
-1.42
-1.88
-2.35
-2.77
-3.11
-3.30
-3.30
-3.12
-2.81
-2.45
-2.13
-1.88
-1.68
-1.46
-1.16
-0.75
-0.25
0.30
0.81
1.26
1.63
1.92
2.14
2.28
2.29
2.18
1.94
1.64
1.35
1.14
1.03
1.00
1.01
1.00
0.92
0.75
0.49
0.16
-0.18
-0.47
-0.67
-0.75
-0.74
-0.70
-0.72
-0.88
-1.19
-1.61
-2.08
-2.53
-2.88
-3.08
-3.09
-2.87
-2.42
-1.80
-1.09
-0.39
0.19
0.63
0.94
1.17
1.36
1.50
1.58
1.55
1.42
1.25
1.12
1.11
1.26
1.47
1.62
1.61
1.40
1.06
0.68
0.35
0.11
-0.10
-0.31
-0.56
-0.79
-0.95
-0.98
-0.92
-0.89
-1.00
-1.29
-1.70
-2.08
-2.26
-2.16
-1.80
-1.31
-0.81
-0.37
0.05
0.49
1.00
1.54
2.00
2.29
2.34
2.20
1.95
1.71
1.56
1.57
1.69
1.86
2.02
2.10
2.06
1.90
1.67
1.42
1.18
0.98
0.82
0.69
0.56
0.39
0.19
-0.02
-0.21
-0.35
-0.45
-0.57
-0.81
-1.20
-1.72
-2.19
-2.44
-2.30
-1.74
-0.89
0.04
0.84
1.38
1.63
1.65
1.55
1.40
1.26
1.17
1.15
1.21
1.32
1.41
1.43
1.34
1.11
0.79
0.41
0.01
-0.37
-0.69
-0.92
-1.05
-1.14
-1.25
-1.49
-1.87
-2.32
-2.70
-2.86
-2.77
-2.52
-2.28
-2.22
-2.38
-2.67
-2.90
-2.91
-2.62
-2.04
-1.28
-0.48
0.27
0.89
1.39
1.78
2.10
2.32
2.43
2.39
2.18
1.86
1.54
1.32
1.27
1.31
1.29
1.09
0.63
0.01
-0.58
-0.96
-1.06
-0.93
-0.73
-0.62
-0.69
-0.92
-1.26
-1.64
-2.04
-2.44
-2.83
-3.16
-3.40
-3.49
-3.42
-3.18
-2.80
-2.29
-1.69
-1.06
-0.47
0.05
0.50
0.93
1.36
1.78
2.12
2.29
2.25
2.07
1.88
1.82
1.95
2.22
2.50
2.65
2.59
2.31
1.86
1.33
0.78
0.25
-0.17
-0.45
-0.55
-0.54
-0.53
-0.65
-0.97
-1.45
-1.96
-2.38
-2.62
-2.72
-2.74
-2.74
-2.72
-2.60
-2.32
-1.87
-1.29
-0.68
-0.09
0.50
1.11
1.73
2.28
2.65
2.74
2.54
2.17
1.81
1.57
1.49
1.48
1.45
1.32
1.13
1.00
0.99
1.11
1.26
1.31
1.16
0.84
0.47
0.13
-0.11
-0.29
-0.47
-0.70
-0.93
-1.06
-1.03
-0.83
-0.52
-0.22
-0.03
-0.01
-0.08
-0.13
-0.02
0.32
0.88
1.54
2.13
2.50
2.62
2.56
2.45
2.37
2.33
2.24
1.98
1.52
0.89
0.26
-0.23
-0.49
-0.55
-0.55
-0.60
-0.77
-1.04
-1.31
-1.48
-1.54
-1.53
-1.54
-1.64
-1.81
-1.93
-1.92
-1.74
-1.45
-1.16
-0.96
-0.83
-0.66
-0.33
0.23
0.90
1.52
1.91
1.98
1.78
1.45
1.11
0.83
0.60
0.37
0.12
-0.13
-0.32
-0.39
-0.34
-0.21
-0.07
0.00
0.01
-0.04
-0.09
-0.14
-0.21
-0.35
-0.59
-0.92
-1.29
-1.59
-1.76
-1.79
-1.71
-1.56
-1.39
-1.20
-0.98
-0.74
-0.49
-0.21
0.10
0.47
0.87
1.26
1.55
1.69
1.67
1.55
1.44
1.41
1.47
1.55
1.59
1.53
1.38
1.20
1.03
0.87
0.65
0.32
-0.11
-0.56
-0.91
-1.06
-1.02
-0.91
-0.90
-1.10
-1.51
-2.03
-2.51
-2.82
-2.93
-2.86
-2.66
-2.38
-2.07
-1.73
-1.37
-0.98
-0.55
-0.06
0.46
1.01
1.52
1.98
2.32
2.53
2.56
2.41
2.10
1.70
1.30
0.98
0.78
0.66
0.58
0.50
0.40
0.30
0.22
0.14
0.01
-0.20
-0.48
-0.78
-1.02
-1.15
-1.19
-1.19
-1.25
-1.41
-1.69
-2.04
-2.39
-2.66
-2.79
-2.74
-2.49
-2.06
-1.48
-0.79
-0.02
0.76
1.47
2.02
2.33
2.39
2.24
1.99
1.75
1.62
1.57
1.57
1.55
1.50
1.45
1.46
1.55
1.66
1.67
1.47
1.05
0.49
-0.05
-0.40
-0.51
-0.43
-0.31
-0.31
-0.54
-0.98
-1.54
-2.08
-2.50
-2.76
-2.88
-2.88
-2.81
-2.66
-2.43
-2.11
-1.71
-1.25
-0.74
-0.21
0.33
0.83
1.27
1.63
1.88
2.04
2.11
2.07
1.94
1.75
1.57
1.50
1.57
1.77
2.00
2.14
2.13
1.96
1.66
1.29
0.88
0.45
0.03
-0.31
-0.47
-0.39
-0.13
0.18
0.34
0.24
-0.12
-0.62
-1.10
-1.43
-1.59
-1.61
-1.51
-1.26
-0.84
-0.26
0.40
1.02
1.49
1.77
1.93
2.09
2.30
2.52
2.67
2.61
2.31
1.83
1.30
0.83
0.48
0.24
0.08
-0.06
-0.20
-0.33
-0.43
-0.51
-0.55
-0.57
-0.58
-0.58
-0.57
-0.54
-0.51
-0.48
-0.50
-0.59
-0.76
-1.00
-1.27
-1.49
-1.62
-1.59
-1.39
-1.06
-0.64
-0.19
0.23
0.59
0.89
1.12
1.26
1.30
1.17
0.90
0.53
0.17
-0.07
-0.14
-0.07
0.08
0.25
0.36
0.43
0.42
0.33
0.12
-0.21
-0.62
-1.01
-1.26
-1.34
-1.27
-1.18
-1.19
-1.36
-1.67
-2.02
-2.29
-2.42
-2.37
-2.16
-1.83
-1.44
-1.01
-0.58
-0.14
0.30
0.76
1.23
1.67
2.00
2.16
2.09
1.81
1.38
0.91
0.49
0.19
-0.02
-0.15
-0.24
-0.28
-0.25
-0.11
0.10
0.30
0.37
0.21
-0.19
-0.74
-1.29
-1.69
-1.87
-1.84
-1.70
-1.56
-1.48
-1.48
-1.52
-1.53
-1.46
-1.30
-1.08
-0.84
-0.62
-0.42
-0.20
0.08
0.47
0.96
1.46
1.91
2.20
2.31
2.29
2.19
2.08
1.94
1.76
1.51
1.19
0.87
0.62
0.46
0.33
0.17
-0.09
-0.44
-0.81
-1.09
-1.21
-1.15
-1.02
-0.94
-1.00
-1.22
-1.54
-1.87
-2.10
-2.19
-2.15
-2.01
-1.81
-1.59
-1.33
-1.01
-0.61
-0.13
0.40
0.94
1.46
1.93
2.33
2.64
2.84
2.85
2.64
2.22
1.65
1.06
0.58
0.31
0.26
0.37
0.50
0.56
0.49
0.34
0.19
0.16
0.26
0.43
0.53
0.43
0.08
-0.44
-1.00
-1.49
-1.84
-2.08
-2.26
-2.40
-2.46
-2.33
-1.91
-1.21
-0.32
0.56
1.27
1.70
1.85
1.78
1.61
1.45
1.38
1.41
1.54
1.74
1.96
2.12
2.18
2.10
1.91
1.67
1.44
1.23
1.06
0.89
0.71
0.52
0.35
0.22
0.13
0.05
-0.06
-0.22
-0.43
-0.67
-0.92
-1.18
-1.42
-1.59
-1.62
-1.41
-0.94
-0.30
0.37
0.91
1.23
1.36
1.41
1.54
1.78
2.08
2.26
2.17
1.78
1.20
0.62
0.23
0.11
0.19
0.32
0.36
0.21
-0.11
-0.52
-0.92
-1.28
-1.54
-1.72
-1.80
-1.77
-1.66
-1.51
-1.39
-1.33
-1.37
-1.51
-1.70
-1.86
-1.93
-1.85
-1.58
-1.14
-0.61
-0.10
0.34
0.67
0.93
1.15
1.38
1.62
1.86
2.08
2.26
2.37
2.37
2.21
1.85
1.33
0.72
0.15
-0.26
-0.46
-0.47
-0.38
-0.29
-0.29
-0.43
-0.71
-1.07
-1.40
-1.66
-1.82
-1.97
-2.19
-2.54
-3.02
-3.50
-3.84
-3.94
-3.75
-3.36
-2.82
-2.19
-1.44
-0.59
0.31
1.14
1.71
1.92
1.81
1.55
1.35
1.39
1.71
2.21
2.67
2.89
2.76
2.35
1.81
1.32
1.03
0.93
0.97
1.01
0.99
0.89
0.72
0.51
0.23
-0.13
-0.57
-1.03
-1.43
-1.70
-1.82
-1.88
-1.96
-2.15
-2.45
-2.78
-3.03
-3.08
-2.89
-2.48
-1.93
-1.33
-0.76
-0.25
0.21
0.60
0.93
1.18
1.32
1.35
1.30
1.24
1.22
1.26
1.34
1.40
1.39
1.29
1.14
1.03
1.00
1.04
1.11
1.11
1.02
0.82
0.53
0.18
-0.25
-0.74
-1.26
-1.74
-2.10
-2.30
-2.34
-2.27
-2.12
-1.92
-1.64
-1.28
-0.83
-0.37
0.05
0.37
0.62
0.82
1.00
1.17
1.29
1.30
1.20
1.04
0.91
0.90
1.02
1.23
1.45
1.58
1.59
1.52
1.40
1.30
1.23
1.16
1.06
0.90
0.69
0.47
0.29
0.16
0.09
0.04
-0.04
-0.22
-0.48
-0.78
-1.07
-1.24
-1.28
-1.17
-0.94
-0.63
-0.29
0.05
0.39
0.70
0.99
1.24
1.44
1.56
1.61
1.57
1.46
1.32
1.20
1.13
1.09
1.03
0.93
0.79
0.63
0.47
0.30
0.08
-0.22
-0.58
-0.94
-1.23
-1.39
-1.43
-1.43
-1.46
-1.59
-1.82
-2.14
-2.47
-2.75
-2.94
-2.99
-2.90
-2.68
-2.35
-1.95
-1.49
-0.99
-0.46
0.05
0.50
0.88
1.17
1.39
1.59
1.76
1.91
2.02
2.05
2.01
1.88
1.65
1.29
0.84
0.35
-0.08
-0.35
-0.41
-0.32
-0.18
-0.14
-0.32
-0.75
-1.34
-2.00
-2.57
-2.96
-3.13
-3.12
-3.04
-2.98
-3.03
-3.19
-3.41
-3.57
-3.55
-3.29
-2.76
-2.03
-1.17
-0.26
0.62
1.39
1.98
2.33
2.43
2.32
2.10
1.89
1.79
1.84
1.99
2.17
2.29
2.33
2.25
2.09
1.83
1.49
1.10
0.68
0.29
-0.06
-0.38
-0.69
-1.03
-1.39
-1.75
-2.08
-2.36
-2.56
-2.70
-2.77
-2.78
-2.72
-2.56
-2.27
-1.87
-1.40
-0.90
-0.42
0.03
0.46
0.88
1.31
1.70
2.00
2.19
2.29
2.30
2.28
2.21
2.09
1.93
1.77
1.66
1.62
1.64
1.62
1.49
1.24
0.92
0.62
0.38
0.15
-0.15
-0.63
-1.28
-1.97
-2.55
-2.90
-3.01
-2.91
-2.73
-2.53
-2.34
-2.15
-1.92
-1.62
-1.24
-0.84
-0.45
-0.10
0.22
0.54
0.91
1.37
1.90
2.40
2.78
2.91
2.80
2.51
2.18
1.90
1.71
1.59
1.46
1.29
1.12
0.96
0.84
0.74
0.61
0.44
0.25
0.07
-0.06
-0.12
-0.15
-0.21
-0.31
-0.47
-0.67
-0.88
-1.08
-1.23
-1.27
-1.17
-0.89
-0.48
0.03
0.58
1.12
1.63
2.06
2.35
2.50
2.54
2.52
2.50
2.50
2.45
2.28
1.95
1.49
1.02
0.63
0.40
0.29
0.23
0.12
-0.07
-0.31
-0.55
-0.77
-0.96
-1.16
-1.39
-1.63
-1.84
-1.98
-2.06
-2.10
-2.19
-2.33
-2.49
-2.57
-2.46
-2.10
-1.53
-0.84
-0.12
0.53
1.09
1.52
1.83
2.01
2.08
2.09
2.07
2.07
2.06
2.00
1.82
1.47
0.95
0.32
-0.32
-0.86
-1.20
-1.34
-1.32
-1.24
-1.22
-1.34
-1.61
-1.96
-2.32
-2.61
-2.82
-2.96
-3.02
-2.98
-2.82
-2.51
-2.08
-1.64
-1.28
-1.05
-0.91
-0.76
-0.47
-0.01
0.59
1.22
1.75
2.07
2.13
1.97
1.69
1.44
1.34
1.44
1.71
2.00
2.17
2.09
1.74
1.19
0.56
-0.02
-0.48
-0.79
-0.96
-1.02
-1.00
-0.97
-0.99
-1.12
-1.35
-1.65
-1.94
-2.20
-2.43
-2.68
-2.95
-3.18
-3.27
-3.12
-2.71
-2.10
-1.43
-0.78
-0.18
0.41
1.03
1.68
2.29
2.75
3.00
3.04
2.94
2.79
2.63
2.49
2.33
2.10
1.80
1.47
1.16
0.96
0.91
0.98
1.07
1.06
0.84
0.39
-0.24
-0.92
-1.48
-1.86
-2.06
-2.19
-2.35
-2.61
-2.94
-3.23
-3.34
-3.20
-2.82
-2.26
-1.62
-0.96
-0.33
0.26
0.75
1.13
1.40
1.61
1.83
2.11
2.41
2.65
2.72
2.60
2.37
2.15
2.07
2.13
2.24
2.25
2.08
1.70
1.17
0.59
0.05
-0.39
-0.69
-0.87
-0.96
-1.03
-1.15
-1.38
-1.72
-2.09
-2.40
-2.57
-2.57
-2.47
-2.31
-2.12
-1.88
-1.49
-0.91
-0.14
0.69
1.43
1.95
2.18
2.20
2.13
2.11
2.21
2.40
2.63
2.81
2.89
2.85
2.70
2.41
1.97
1.42
0.82
0.32
0.03
0.02
0.24
0.51
0.63
0.46
-0.04
-0.74
-1.44
-1.95
-2.16
-2.07
-1.78
-1.44
-1.13
-0.92
-0.79
-0.66
-0.47
-0.18
0.20
0.63
1.06
1.43
1.75
1.96
2.05
1.97
1.68
1.23
0.72
0.29
0.07
0.10
0.29
0.50
0.58
0.46
0.15
-0.27
-0.70
-1.06
-1.34
-1.54
-1.65
-1.67
-1.58
-1.39
-1.16
-0.98
-0.95
-1.14
-1.52
-1.99
-2.39
-2.56
-2.42
-1.96
-1.25
-0.41
0.41
1.10
1.59
1.84
1.86
1.68
1.36
0.97
0.60
0.35
0.27
0.39
0.66
1.04
1.41
1.69
1.79
1.70
1.44
1.09
0.70
0.32
-0.03
-0.35
-0.65
-0.91
-1.14
-1.37
-1.63
-1.98
-2.43
-2.92
-3.37
-3.67
-3.75
-3.61
-3.28
-2.81
-2.22
-1.53
-0.78
-0.03
0.60
1.04
1.26
1.32
1.33
1.43
1.69
2.11
2.58
2.95
3.12
3.03
2.76
2.40
2.05
1.76
1.50
1.25
0.99
0.74
0.53
0.34
0.11
-0.21
-0.64
-1.11
-1.50
-1.72
-1.73
-1.59
-1.43
-1.37
-1.49
-1.77
-2.13
-2.45
-2.61
-2.58
-2.35
-1.95
-1.45
-0.89
-0.32
0.25
0.77
1.22
1.55
1.76
1.86
1.92
2.00
2.14
2.30
2.43
2.46
2.36
2.14
1.84
1.51
1.20
0.92
0.70
0.54
0.45
0.45
0.51
0.59
0.65
0.63
0.51
0.26
-0.12
-0.63
-1.24
-1.85
-2.36
-2.67
-2.68
-2.38
-1.81
-1.05
-0.22
0.56
1.18
1.59
1.79
1.83
1.78
1.73
1.74
1.81
1.92
2.01
2.03
1.97
1.82
1.63
1.41
1.17
0.94
0.72
0.49
0.27
0.06
-0.10
-0.20
-0.26
-0.30
-0.40
-0.60
-0.89
-1.20
-1.44
-1.54
-1.46
-1.26
-1.01
-0.78
-0.57
-0.40
-0.24
-0.11
-0.01
0.07
0.16
0.28
0.45
0.65
0.83
0.93
0.93
0.86
0.74
0.59
0.41
0.19
-0.07
-0.37
-0.69
-1.01
-1.30
-1.54
-1.68
-1.69
-1.53
-1.24
-0.88
-0.55
-0.33
-0.29
-0.44
-0.76
-1.22
-1.75
-2.29
-2.75
-3.03
-3.04
-2.77
-2.25
-1.58
-0.87
-0.21
0.33
0.77
1.14
1.46
1.74
1.94
2.03
1.96
1.78
1.55
1.35
1.23
1.19
1.16
1.08
0.92
0.71
0.48
0.30
0.16
0.06
-0.05
-0.19
-0.36
-0.58
-0.82
-1.07
-1.32
-1.52
-1.66
-1.73
-1.80
-1.90
-2.06
-2.24
-2.35
-2.26
-1.94
-1.44
-0.91
-0.48
-0.27
-0.28
-0.39
-0.45
-0.33
0.03
0.60
1.26
1.84
2.25
2.46
2.51
2.46
2.38
2.25
2.05
1.75
1.37
0.97
0.61
0.34
0.15
-0.01
-0.22
-0.51
-0.88
-1.28
-1.63
-1.84
-1.86
-1.71
-1.45
-1.21
-1.14
-1.31
-1.69
-2.14
-2.45
-2.43
-1.98
-1.16
-0.16
0.78
1.46
1.81
1.91
1.89
1.90
2.01
2.20
2.43
2.61
2.69
2.64
2.43
2.09
1.66
1.21
0.85
0.60
0.47
0.41
0.39
0.41
0.50
0.65
0.78
0.77
0.52
0.04
-0.54
-1.05
-1.38
-1.51
-1.55
-1.55
-1.55
-1.46
-1.19
-0.75
-0.22
0.25
0.56
0.71
0.77
0.87
1.03
1.23
1.38
1.43
1.40
1.33
1.27
1.25
1.21
1.08
0.84
0.47
0.06
-0.33
-0.63
-0.78
-0.76
-0.58
-0.31
-0.02
0.17
0.19
0.02
-0.30
-0.72
-1.15
-1.56
-1.92
-2.21
-2.39
-2.40
-2.20
-1.78
-1.18
-0.48
0.23
0.82
1.21
1.36
1.32
1.16
0.99
0.87
0.77
0.64
0.39
0.03
-0.33
-0.54
-0.47
-0.15
0.26
0.54
0.55
0.28
-0.14
-0.53
-0.75
-0.78
-0.65
-0.49
-0.39
-0.43
-0.67
-1.10
-1.69
-2.29
-2.76
-2.96
-2.86
-2.51
-2.02
-1.51
-0.98
-0.42
0.20
0.86
1.47
1.96
2.25
2.33
2.20
1.90
1.52
1.12
0.82
0.70
0.78
0.97
1.13
1.10
0.84
0.40
-0.10
-0.51
-0.79
-0.97
-1.09
-1.19
-1.25
-1.27
-1.26
-1.24
-1.29
-1.45
-1.72
-2.06
-2.38
-2.60
-2.64
-2.46
-2.09
-1.57
-0.98
-0.38
0.18
0.69
1.15
1.56
1.90
2.14
2.27
2.30
2.29
2.28
2.34
2.46
2.60
2.67
2.58
2.28
1.79
1.19
0.61
0.14
-0.19
-0.38
-0.50
-0.61
-0.73
-0.87
-1.03
-1.17
-1.31
-1.46
-1.62
-1.80
-2.00
-2.18
-2.29
-2.28
-2.13
-1.85
-1.51
-1.15
-0.82
-0.52
-0.19
0.21
0.71
1.31
1.90
2.40
2.72
2.80
2.66
2.36
1.98
1.61
1.34
1.19
1.17
1.21
1.25
1.23
1.17
1.09
1.04
0.98
0.85
0.58
0.15
-0.35
-0.79
-1.03
-1.03
-0.87
-0.69
-0.62
-0.71
-0.91
-1.12
-1.22
-1.13
-0.85
-0.42
0.08
0.56
1.00
1.35
1.63
1.82
1.92
1.88
1.71
1.44
1.11
0.80
0.57
0.45
0.44
0.52
0.64
0.75
0.83
0.84
0.77
0.65
0.49
0.35
0.23
0.14
0.02
-0.15
-0.43
-0.78
-1.16
-1.49
-1.72
-1.85
-1.94
-2.06
-2.22
-2.36
-2.34
-2.05
-1.47
-0.73
-0.05
0.34
0.37
0.13
-0.18
-0.37
-0.34
-0.11
0.20
0.48
0.67
0.77
0.83
0.89
0.92
0.89
0.78
0.60
0.37
0.16
-0.03
-0.22
-0.45
-0.72
-1.03
-1.29
-1.46
-1.52
-1.50
-1.51
-1.63
-1.87
-2.19
-2.48
-2.60
-2.49
-2.13
-1.61
-1.01
-0.44
0.05
0.46
0.82
1.15
1.43
1.64
1.75
1.75
1.67
1.56
1.48
1.45
1.50
1.57
1.64
1.66
1.61
1.48
1.30
1.07
0.81
0.53
0.25
-0.02
-0.27
-0.52
-0.78
-1.08
-1.43
-1.82
-2.24
-2.63
-2.95
-3.15
-3.21
-3.15
-3.01
-2.83
-2.62
-2.34
-1.96
-1.43
-0.79
-0.10
0.50
0.96
1.24
1.44
1.65
1.96
2.34
2.70
2.89
2.84
2.54
2.11
1.69
1.38
1.18
1.06
0.96
0.84
0.71
0.61
0.53
0.48
0.43
0.34
0.22
0.08
-0.11
-0.37
-0.77
-1.30
-1.90
-2.46
-2.82
-2.87
-2.58
-2.01
-1.31
-0.60
0.02
0.47
0.75
0.87
0.88
0.83
0.80
0.85
1.03
1.30
1.59
1.78
1.83
1.73
1.56
1.41
1.39
1.51
1.71
1.89
1.95
1.85
1.62
1.35
1.10
0.90
0.71
0.44
0.06
-0.42
-0.92
-1.35
-1.64
-1.79
-1.84
-1.86
-1.89
-1.92
-1.88
-1.68
-1.26
-0.60
0.22
1.07
1.74
2.07
2.02
1.66
1.17
0.76
0.55
0.56
0.69
0.82
0.87
0.80
0.66
0.51
0.39
0.30
0.21
0.08
-0.09
-0.31
-0.53
-0.75
-0.95
-1.15
-1.34
-1.53
-1.71
-1.84
-1.93
-1.97
-1.97
-1.92
-1.82
-1.66
-1.41
-1.10
-0.78
-0.48
-0.24
-0.02
0.19
0.41
0.62
0.76
0.78
0.68
0.53
0.42
0.43
0.57
0.80
0.99
1.03
0.86
0.50
0.01
-0.51
-0.95
-1.26
-1.41
-1.39
-1.26
-1.07
-0.92
-0.90
-1.08
-1.46
-1.96
-2.45
-2.81
-2.96
-2.92
-2.73
-2.46
-2.11
-1.66
-1.04
-0.26
0.63
1.50
2.19
2.62
2.80
2.80
2.70
2.57
2.43
2.26
2.05
1.84
1.67
1.59
1.58
1.61
1.60
1.49
1.26
0.94
0.60
0.27
-0.02
-0.27
-0.53
-0.80
-1.08
-1.37
-1.67
-1.99
-2.34
-2.71
-3.07
-3.34
-3.44
-3.31
-2.94
-2.41
-1.79
-1.17
-0.58
-0.05
0.45
0.90
1.27
1.55
1.76
1.93
2.08
2.19
2.22
2.10
1.86
1.57
1.36
1.33
1.45
1.61
1.67
1.52
1.20
0.84
0.58
0.47
0.47
0.43
0.25
-0.11
-0.58
-1.06
-1.46
-1.78
-2.05
-2.30
-2.56
-2.76
-2.80
-2.60
-2.12
-1.44
-0.72
-0.14
0.17
0.20
0.08
-0.01
0.08
0.40
0.88
1.38
1.81
2.14
2.40
2.60
2.75
2.81
2.74
2.53
2.23
1.88
1.52
1.15
0.82
0.58
0.48
0.53
0.68
0.79
0.75
0.48
0.02
-0.52
-1.04
-1.41
-1.60
-1.59
-1.42
-1.11
-0.70
-0.22
0.28
0.73
1.11
1.42
1.66
1.86
2.01
2.09
2.07
1.94
1.72
1.45
1.20
0.96
0.73
0.43
0.00
-0.51
-1.00
-1.32
-1.35
-1.11
-0.74
-0.46
-0.40
-0.62
-1.01
-1.43
-1.77
-2.02
-2.24
-2.47
-2.70
-2.82
-2.71
-2.27
-1.56
-0.74
-0.03
0.42
0.60
0.62
0.64
0.77
1.02
1.26
1.35
1.22
0.90
0.53
0.25
0.11
0.09
0.08
0.03
-0.04
-0.10
-0.11
-0.06
0.00
0.02
-0.05
-0.19
-0.34
-0.46
-0.57
-0.71
-0.94
-1.30
-1.72
-2.11
-2.36
-2.44
-2.34
-2.14
-1.90
-1.64
-1.37
-1.03
-0.60
-0.06
0.54
1.17
1.76
2.27
2.65
2.85
2.85
2.65
2.34
1.97
1.60
1.26
0.95
0.65
0.39
0.16
-0.04
-0.21
-0.37
-0.51
-0.63
-0.71
-0.76
-0.81
-0.92
-1.13
-1.47
-1.88
-2.27
-2.55
-2.64
-2.53
-2.29
-2.05
-1.89
-1.86
-1.91
-1.93
-1.80
-1.44
-0.86
-0.16
0.55
1.16
1.65
2.02
2.30
2.47
2.52
2.44
2.26
2.04
1.82
1.61
1.39
1.15
0.91
0.73
0.69
0.80
1.00
1.17
1.21
1.07
0.83
0.58
0.37
0.21
0.02
-0.29
-0.76
-1.38
-2.08
-2.76
-3.31
-3.62
-3.64
-3.33
-2.76
-2.00
-1.21
-0.53
-0.07
0.18
0.29
0.36
0.48
0.69
0.95
1.17
1.30
1.35
1.40
1.52
1.76
2.07
2.30
2.35
2.16
1.80
1.40
1.10
0.97
0.99
1.08
1.17
1.23
1.26
1.27
1.24
1.11
0.82
0.38
-0.12
-0.55
-0.80
-0.87
-0.81
-0.77
-0.81
-0.97
-1.15
-1.27
-1.24
-1.03
-0.70
-0.32
0.03
0.29
0.44
0.48
0.44
0.35
0.26
0.24
0.32
0.46
0.61
0.69
0.67
0.51
0.28
0.01
-0.23
-0.41
-0.49
-0.46
-0.30
-0.01
0.33
0.61
0.70
0.52
0.11
-0.39
-0.80
-0.99
-0.92
-0.63
-0.23
0.18
0.57
0.91
1.21
1.46
1.63
1.74
1.81
1.86
1.91
1.91
1.82
1.61
1.26
0.80
0.26
-0.32
-0.89
-1.43
-1.91
-2.35
-2.81
-3.42
-4.35
-5.70
-7.52
-9.69
-11.98
-14.14
-15.93
-17.23
-18.02
-18.37
-18.39
-18.19
-17.86
-17.49
-17.13
-16.84
-16.61
-16.38
-16.02
-15.39
-14.40
-13.04
-11.41
-9.63
-7.80
-5.98
-4.14
-2.21
-0.13
2.06
4.29
6.40
8.30
9.96
11.45
12.85
14.18
15.41
16.44
17.20
17.70
18.10
18.55
19.18
19.97
20.75
21.32
21.53
21.42
21.10
20.72
20.32
19.83
19.13
18.13
16.85
15.39
13.89
12.40
10.96
9.53
8.12
6.77
5.52
4.42
3.47
2.62
1.81
0.98
0.14
-0.68
-1.43
-2.02
-2.42
-2.63
-2.71
-2.79
-2.99
-3.38
-3.94
-4.57
-5.14
-5.51
-5.65
-5.55
-5.29
-4.92
-4.49
-4.04
-3.59
-3.21
-2.95
-2.85
-2.92
-3.09
-3.28
-3.38
-3.33
-3.15
-2.92
-2.74
-2.68
-2.78
-2.96
-3.17
-3.33
-3.44
-3.53
-3.64
-3.75
-3.83
-3.78
-3.56
-3.16
-2.68
-2.21
-1.83
-1.52
-1.22
-0.84
-0.36
0.19
0.74
1.20
1.54
1.73
1.80
1.75
1.60
1.37
1.11
0.89
0.75
0.68
0.64
0.56
0.43
0.30
0.27
0.40
0.68
1.05
1.37
1.58
1.67
1.69
1.71
1.75
1.80
1.85
1.90
1.96
2.04
2.13
2.20
2.18
2.09
1.94
1.82
1.76
1.75
1.74
1.64
1.41
1.04
0.61
0.22
-0.03
-0.13
-0.06
0.12
0.38
0.66
0.93
1.13
1.26
1.31
1.32
1.32
1.34
1.35
1.35
1.28
1.14
0.96
0.73
0.46
0.11
-0.31
-0.80
-1.27
-1.67
-1.98
-2.23
-2.52
-2.88
-3.32
-3.76
-4.10
-4.27
-4.28
-4.21
-4.16
-4.18
-4.30
-4.49
-4.71
-4.89
-5.02
-5.08
-5.12
-5.18
-5.31
-5.52
-5.77
-5.97
-6.05
-5.98
-5.77
-5.48
-5.14
-4.76
-4.29
-3.66
-2.84
-1.88
-0.91
-0.10
0.43
0.62
0.57
0.40
0.24
0.16
0.12
0.03
-0.15
-0.41
-0.66
-0.76
-0.66
-0.36
0.02
0.32
0.46
0.38
0.15
-0.10
-0.25
-0.28
-0.21
-0.15
-0.18
-0.33
-0.54
-0.72
-0.81
-0.79
-0.71
-0.58
-0.40
-0.12
0.27
0.73
1.17
1.48
1.64
1.70
1.75
1.90
2.15
2.42
2.62
2.65
2.48
2.12
1.67
1.22
0.86
0.66
0.65
0.79
1.03
1.29
1.48
1.58
1.62
1.62
1.59
1.52
1.39
1.20
0.97
0.75
0.55
0.37
0.22
0.08
-0.03
-0.08
-0.05
0.08
0.29
0.59
0.96
1.37
1.76
2.06
2.17
2.09
1.84
1.57
1.37
1.29
1.29
1.27
1.17
1.00
0.83
0.76
0.81
0.92
0.98
0.92
0.75
0.50
0.23
-0.03
-0.30
-0.59
-0.90
-1.17
-1.33
-1.36
-1.29
-1.19
-1.15
-1.21
-1.33
-1.47
-1.55
-1.55
-1.48
-1.36
-1.17
-0.88
-0.45
0.07
0.61
1.05
1.30
1.36
1.29
1.19
1.14
1.18
1.31
1.50
1.68
1.81
1.82
1.68
1.36
0.90
0.36
-0.18
-0.67
-1.11
-1.50
-1.82
-2.05
-2.17
-2.19
-2.19
-2.28
-2.52
-2.88
-3.26
-3.50
-3.52
-3.29
-2.91
-2.47
-2.04
-1.61
-1.12
-0.53
0.18
0.93
1.63
2.16
2.49
2.62
2.61
2.51
2.33
2.06
1.73
1.36
1.05
0.86
0.84
0.90
0.92
0.78
0.40
-0.16
-0.75
-1.18
-1.35
-1.25
-0.99
-0.71
-0.53
-0.48
-0.53
-0.62
-0.73
-0.84
-0.96
-1.06
-1.08
-0.98
-0.74
-0.40
-0.06
0.19
0.33
0.41
0.51
0.70
0.98
1.28
1.50
1.58
1.51
1.34
1.15
1.03
1.00
1.06
1.17
1.31
1.42
1.49
1.49
1.43
1.35
1.28
1.27
1.33
1.44
1.52
1.53
1.42
1.22
0.98
0.75
0.56
0.38
0.18
-0.06
-0.32
-0.54
-0.68
-0.71
-0.67
-0.62
-0.64
-0.74
-0.89
-1.00
-0.98
-0.78
-0.43
0.02
0.44
0.77
0.94
0.93
0.79
0.57
0.33
0.14
0.02
-0.07
-0.17
-0.33
-0.56
-0.83
-1.10
-1.34
-1.53
-1.71
-1.91
-2.13
-2.33
-2.50
-2.58
-2.59
-2.57
-2.56
-2.57
-2.58
-2.54
-2.40
-2.11
-1.70
-1.20
-0.70
-0.23
0.15
0.45
0.69
0.87
1.02
1.14
1.26
1.39
1.56
1.77
1.98
2.15
2.26
2.25
2.12
1.90
1.62
1.34
1.09
0.86
0.62
0.33
-0.01
-0.36
-0.68
-0.94
-1.18
-1.46
-1.85
-2.30
-2.70
-2.90
-2.85
-2.58
-2.22
-1.87
-1.60
-1.32
-0.96
-0.47
0.10
0.64
1.06
1.33
1.50
1.62
1.72
1.74
1.65
1.46
1.24
1.11
1.14
1.34
1.60
1.83
1.92
1.87
1.69
1.44
1.16
0.83
0.44
-0.02
-0.50
-0.95
-1.32
-1.60
-1.83
-2.02
-2.21
-2.34
-2.39
-2.31
-2.12
-1.87
-1.60
-1.38
-1.20
-1.04
-0.85
-0.59
-0.23
0.23
0.77
1.33
1.85
2.24
2.45
2.48
2.37
2.17
1.92
1.60
1.18
0.66
0.12
-0.32
-0.53
-0.46
-0.16
0.22
0.48
0.49
0.25
-0.14
-0.52
-0.73
-0.72
-0.56
-0.37
-0.27
-0.33
-0.50
-0.71
-0.89
-1.00
-1.11
-1.24
-1.40
-1.51
-1.48
-1.27
-0.94
-0.63
-0.45
-0.49
-0.73
-1.09
-1.51
-1.98
-2.52
-3.19
-3.96
-4.84
-5.75
-6.65
-7.49
-8.20
-8.71
-8.95
-8.94
-8.76
-8.51
-8.31
-8.13
-7.87
-7.40
-6.59
-5.40
-3.86
-2.01
0.13
2.53
5.19
8.02
10.83
13.42
15.57
17.17
18.25
18.94
19.46
19.98
20.58
21.19
21.63
21.71
21.31
20.41
19.12
17.58
15.87
14.02
12.01
9.85
7.62
5.46
3.49
1.81
0.41
-0.81
-1.94
-3.06
-4.19
-5.27
-6.25
-7.10
-7.83
-8.48
-9.11
-9.78
-10.48
-11.16
-11.76
-12.16
-12.30
-12.14
-11.72
-11.07
-10.27
-9.41
-8.55
-7.76
-7.09
-6.54
-6.09
-5.68
-5.22
-4.66
-3.97
-3.18
-2.39
-1.67
-1.10
-0.71
-0.48
-0.34
-0.24
-0.10
0.10
0.35
0.59
0.77
0.83
0.75
0.56
0.31
0.11
0.06
0.26
0.75
1.51
2.40
3.24
3.89
4.25
4.32
4.19
3.92
3.53
2.93
2.06
0.90
-0.44
-1.76
-2.80
-3.40
-3.50
-3.17
-2.55
-1.77
-1.00
-0.36
0.06
0.24
0.25
0.28
0.50
1.03
1.78
2.56
3.09
3.23
2.99
2.55
2.15
1.98
2.11
2.57
3.32
4.33
5.54
6.82
7.95
8.73
9.02
8.81
8.24
7.49
6.69
5.89
5.06
4.13
3.08
1.90
0.63
-0.66
-1.90
-3.00
-3.93
-4.63
-5.15
-5.57
-5.99
-6.48
-7.02
-7.57
-8.03
-8.36
-8.54
-8.61
-8.55
-8.38
-8.08
-7.65
-7.09
-6.37
-5.45
-4.30
-2.90
-1.35
0.19
1.54
2.59
3.27
3.63
3.75
3.66
3.39
2.94
2.33
1.61
0.87
0.19
-0.41
-0.93
-1.41
-1.87
-2.33
-2.77
-3.15
-3.41
-3.53
-3.49
-3.35
-3.18
-3.07
-3.09
-3.29
-3.62
-3.98
-4.26
-4.34
-4.18
-3.80
-3.26
-2.62
-1.95
-1.26
-0.54
0.22
1.01
1.82
2.59
3.25
3.72
3.94
3.87
3.58
3.16
2.71
2.29
1.91
1.53
1.14
0.75
0.40
0.15
-0.02
-0.14
-0.25
-0.35
-0.40
-0.40
-0.34
-0.30
-0.36
-0.60
-1.01
-1.50
-1.93
-2.18
-2.16
-1.87
-1.39
-0.81
-0.22
0.31
0.79
1.23
1.67
2.10
2.51
2.86
3.14
3.36
3.52
3.59
3.54
3.31
2.91
2.38
1.81
1.31
0.93
0.66
0.45
0.23
-0.03
-0.33
-0.64
-0.93
-1.17
-1.36
-1.48
-1.50
-1.41
-1.23
-1.01
-0.84
-0.81
-0.96
-1.26
-1.60
-1.83
-1.83
-1.55
-0.99
-0.25
0.52
1.18
1.63
1.86
1.92
1.91
1.92
2.00
2.16
2.34
2.45
2.43
2.27
2.01
1.72
1.48
1.29
1.16
1.04
0.88
0.71
0.52
0.34
0.13
-0.17
-0.64
-1.29
-2.08
-2.89
-3.61
-4.16
-4.51
-4.69
-4.74
-4.65
-4.38
-3.98
-3.57
-3.29
-3.24
-3.39
-3.66
-3.99
-4.22
-4.25
-4.09
-3.85
-3.70
-3.77
-3.96
-4.16
-4.25
-3.91
-2.80
-0.80
1.82
4.57
6.68
7.50
6.35
2.65
-3.26
-10.11
-16.22
-20.05
-20.39
-17.39
-10.93
-1.53
9.41
20.35
30.01
37.52
42.09
43.53
41.45
36.55
31.29
26.55
22.06
17.48
12.34
6.32
-0.41
-7.19
-12.92
-16.86
-19.09
-20.15
-20.76
-21.61
-23.04
-24.82
-26.51
-27.59
-27.96
-28.02
-28.10
-28.15
-27.90
-26.91
-24.87
-21.74
-17.74
-13.30
-9.00
-5.12
-1.63
1.67
5.03
8.53
12.03
15.30
18.03
19.97
21.08
21.50
21.42
21.05
20.38
19.29
17.58
15.19
12.19
8.83
5.48
2.29
-0.30
-1.85
-2.13
-1.29
0.19
1.81
3.22
4.16
4.62
4.85
5.16
5.77
6.75
8.02
9.47
10.98
12.46
13.83
15.03
15.94
16.41
16.40
15.96
15.27
14.50
13.71
12.91
12.00
10.77
9.02
6.57
3.35
-0.45
-4.45
-8.12
-10.93
-12.52
-12.90
-12.36
-11.40
-10.49
-9.88
-9.65
-9.67
-9.80
-9.93
-10.03
-10.13
-10.32
-10.69
-11.31
-12.18
-13.21
-14.24
-15.04
-15.42
-15.29
-14.70
-13.80
-12.80
-11.86
-11.04
-10.30
-9.52
-8.58
-7.39
-5.97
-4.41
-2.87
-1.50
-0.42
0.33
0.78
1.01
1.10
1.13
1.17
1.27
1.43
1.66
1.88
2.02
1.95
1.54
0.71
-0.53
-2.06
-3.65
-5.05
-6.08
-6.70
-6.96
-7.01
-6.97
-6.90
-6.81
-6.65
-6.41
-6.07
-5.60
-4.90
-3.84
-2.32
-0.35
1.92
4.25
6.41
8.25
9.75
10.98
11.96
12.68
13.05
13.04
12.74
12.30
11.93
11.74
11.71
11.72
11.66
11.47
11.22
11.00
10.86
10.78
10.68
10.50
10.20
9.84
9.49
9.19
8.90
8.52
7.93
7.06
5.90
4.55
3.16
1.90
0.88
0.12
-0.46
-0.98
-1.56
-2.26
-3.04
-3.78
-4.36
-4.72
-4.85
-4.85
-4.81
-4.79
-4.78
-4.73
-4.56
-4.23
-3.78
-3.28
-2.86
-2.60
-2.53
-2.63
-2.82
-3.01
-3.18
-3.36
-3.62
-4.03
-4.59
-5.26
-5.92
-6.47
-6.85
-7.06
-7.09
-6.95
-6.65
-6.18
-5.59
-4.95
-4.40
-4.04
-3.91
-3.97
-4.15
-4.34
-4.46
-4.47
-4.36
-4.13
-3.75
-3.23
-2.59
-1.92
-1.28
-0.74
-0.30
0.06
0.37
0.69
1.01
1.35
1.73
2.15
2.56
2.92
3.13
3.14
2.92
2.54
2.06
1.59
1.19
0.89
0.70
0.57
0.47
0.37
0.19
-0.08
-0.47
-0.94
-1.44
-1.84
-2.06
-2.02
-1.73
-1.28
-0.79
-0.35
-0.06
0.09
0.12
0.07
-0.01
-0.09
-0.17
-0.23
-0.29
-0.34
-0.38
-0.38
-0.32
-0.21
-0.09
-0.06
-0.20
-0.53
-1.00
-1.45
-1.72
-1.74
-1.52
-1.22
-1.01
-1.00
-1.18
-1.44
-1.58
-1.47
-1.04
-0.32
0.57
1.49
2.31
2.98
3.51
3.96
4.39
4.85
5.36
5.90
6.47
7.03
7.55
8.00
8.30
8.39
8.20
7.76
7.17
6.59
6.15
5.91
5.81
5.68
5.33
4.64
3.62
2.40
1.16
0.07
-0.79
-1.40
-1.80
-1.99
-2.03
-1.97
-1.89
-1.94
-2.21
-2.73
-3.43
-4.14
-4.72
-5.05
-5.16
-5.09
-4.92
-4.66
-4.27
-3.74
-3.07
-2.31
-1.58
-0.95
-0.48
-0.18
-0.01
0.06
0.09
0.15
0.30
0.61
1.09
1.68
2.31
2.92
3.54
4.25
5.12
6.21
7.44
8.66
9.70
10.44
10.88
11.13
11.31
11.50
11.64
11.61
11.29
10.62
9.69
8.70
7.84
7.24
6.90
6.73
6.64
6.63
6.79
7.22
7.90
8.65
9.18
9.26
8.81
7.95
6.91
5.85
4.79
3.62
2.25
0.73
-0.77
-2.00
-2.83
-3.30
-3.62
-4.06
-4.75
-5.71
-6.81
-7.93
-9.02
-10.06
-11.01
-11.73
-12.04
-11.76
-10.89
-9.61
-8.24
-7.11
-6.38
-6.02
-5.81
-5.51
-4.98
-4.25
-3.47
-2.81
-2.38
-2.15
-2.03
-1.93
-1.81
-1.73
-1.73
-1.88
-2.13
-2.42
-2.68
-2.88
-3.03
-3.18
-3.36
-3.57
-3.80
-4.05
-4.32
-4.62
-4.94
-5.22
-5.42
-5.50
-5.47
-5.40
-5.34
-5.33
-5.34
-5.33
-5.26
-5.13
-4.98
-4.86
-4.82
-4.84
-4.89
-4.88
-4.77
-4.56
-4.29
-4.03
-3.84
-3.70
-3.52
-3.24
-2.79
-2.18
-1.48
-0.81
-0.25
0.13
0.34
0.43
0.49
0.59
0.77
1.08
1.50
1.98
2.42
2.73
2.83
2.70
2.37
1.89
1.32
0.70
0.04
-0.64
-1.32
-1.98
-2.57
-3.07
-3.50
-3.86
-4.19
-4.52
-4.83
-5.09
-5.26
-5.30
-5.21
-5.03
-4.84
-4.74
-4.77
-4.92
-5.09
-5.13
-4.92
-4.44
-3.74
-2.92
-2.12
-1.42
-0.81
-0.28
0.26
0.89
1.66
2.58
3.62
4.66
5.59
6.32
6.81
7.09
7.22
7.25
7.17
6.99
6.70
6.34
6.02
5.84
5.88
6.10
6.36
6.49
6.38
6.03
5.55
5.05
4.62
4.24
3.83
3.38
2.92
2.58
2.50
2.68
3.05
3.39
3.51
3.27
2.61
1.56
0.21
-1.29
-2.76
-3.97
-4.75
-5.04
-4.91
-4.57
-4.27
-4.22
-4.51
-5.04
-5.65
-6.09
-6.21
-5.96
-5.41
-4.72
-4.04
-3.41
-2.81
-2.18
-1.58
-1.16
-1.10
-1.46
-2.09
-2.67
-2.82
-2.38
-1.49
-0.56
-0.07
-0.31
-1.20
-2.40
-3.45
-4.07
-4.26
-4.36
-4.83
-5.99
-7.75
-9.61
-10.81
-10.64
-8.79
-5.44
-1.36
2.38
4.77
5.33
4.28
2.41
0.87
0.68
2.39
5.81
10.03
13.75
15.62
14.46
9.28
-0.32
-13.74
-28.64
-41.31
-48.12
-47.20
-39.19
-26.77
-13.45
-2.16
5.83
11.08
15.10
19.29
24.13
29.21
33.68
36.78
38.26
38.33
37.42
35.76
33.25
29.51
24.35
17.94
10.90
4.11
-1.64
-5.98
-9.00
-11.23
-13.36
-15.78
-18.34
-20.43
-21.25
-20.29
-17.58
-13.76
-9.83
-6.79
-5.19
-4.98
-5.68
-6.63
-7.28
-7.44
-7.27
-7.13
-7.38
-8.18
-9.45
-10.96
-12.42
-13.57
-14.28
-14.53
-14.46
-14.29
-14.29
-14.55
-14.97
-15.19
-14.77
-13.38
-10.89
-7.44
-3.28
1.33
6.20
11.22
16.28
21.25
25.98
30.25
33.88
36.68
38.55
39.57
39.94
40.02
40.06
40.16
40.13
39.56
38.05
35.38
31.62
27.13
22.36
17.73
13.46
9.64
6.19
3.03
0.12
-2.56
-4.95
-7.07
-8.93
-10.61
-12.21
-13.74
-15.17
-16.45
-17.48
-18.26
-18.84
-19.28
-19.62
-19.91
-20.09
-20.10
-19.91
-19.53
-18.98
-18.32
-17.57
-16.81
-16.10
-15.47
-14.96
-14.57
-14.35
-14.33
-14.47
-14.70
-14.90
-15.01
-14.90
-14.51
-13.90
-13.19
-12.51
-11.87
-11.18
-10.33
-9.33
-8.02
-6.35
-4.29
-2.00
0.34
2.55
4.53
6.29
7.84
9.58
11.98
15.32
19.60
24.57
29.82
34.98
39.85
42.76
42.60
39.20
33.54
27.15
21.08
15.53
10.17
5.34
0.71
-3.47
-6.63
-8.37
-8.67
-7.91
-6.58
-5.30
-4.39
-4.15
-4.39
-4.84
-5.31
-5.74
-6.15
-6.55
-6.90
-7.12
-7.27
-7.25
-6.97
-6.37
-5.47
-4.36
-3.16
-2.01
-1.00
-0.26
0.27
0.68
1.08
1.51
1.92
2.24
2.42
2.47
2.43
2.39
2.43
2.56
2.67
2.63
2.33
1.75
1.01
0.26
-0.32
-0.65
-0.73
-0.65
-0.55
-0.57
-0.85
-1.46
-2.39
-3.47
-4.49
-5.21
-5.49
-5.37
-5.04
-4.75
-4.68
-4.85
-5.12
-5.29
-5.21
-4.87
-4.40
-3.93
-3.56
-3.23
-2.81
-2.16
-1.26
-0.24
0.67
1.28
1.54
1.61
1.71
2.01
2.50
3.05
3.50
3.84
4.19
4.79
5.76
7.07
8.49
9.76
10.70
11.33
11.80
12.32
13.01
13.87
14.80
15.64
16.25
16.55
16.49
16.07
15.31
14.26
12.99
11.55
10.01
8.41
6.78
5.14
3.47
1.77
0.06
-1.58
-3.08
-4.34
-5.34
-6.14
-6.86
-7.66
-8.62
-9.78
-11.10
-12.49
-13.86
-15.12
-16.22
-17.13
-17.83
-18.38
-18.86
-19.37
-19.97
-20.62
-21.20
-21.51
-21.38
-20.70
-19.46
-17.74
-15.71
-13.54
-11.44
-9.60
-8.22
-7.35
-6.91
-6.59
-5.99
-4.77
-2.73
0.00
3.08
6.01
8.39
9.99
10.86
11.23
11.42
11.75
12.47
13.65
15.18
16.83
18.30
19.33
19.77
19.59
18.87
17.71
16.09
13.95
11.27
8.08
4.53
0.79
-3.04
-7.00
-10.82
-14.14
-16.60
-18.04
-18.50
-18.05
-16.80
-14.91
-12.71
-10.59
-8.90
-8.08
-7.85
-7.70
-7.13
-5.82
-3.82
-1.52
0.51
1.68
1.55
0.01
-2.60
-5.68
-8.35
-9.71
-9.17
-6.58
-2.42
2.39
6.78
9.94
11.60
12.14
12.29
12.60
13.13
13.31
12.20
9.16
4.27
-1.53
-6.74
-9.97
-10.55
-8.45
-4.08
1.99
9.10
16.24
21.88
24.41
23.13
18.23
11.34
4.88
0.86
-0.08
1.19
2.92
3.60
2.76
0.88
-1.22
-2.88
-4.21
-5.74
-7.77
-9.97
-11.52
-11.64
-10.13
-7.44
-4.42
-1.97
-0.52
0.20
0.91
2.54
5.69
10.23
15.25
19.28
20.65
18.67
13.79
7.34
1.03
-3.82
-6.67
-7.78
-7.82
-7.41
-6.87
-6.23
-5.47
-4.65
-3.98
-3.67
-3.80
-4.32
-5.00
-5.61
-5.99
-6.13
-6.11
-6.03
-6.00
-6.07
-6.28
-6.65
-7.10
-7.50
-7.65
-7.37
-6.54
-5.24
-3.76
-2.35
-1.27
-0.63
-0.32
-0.16
0.08
0.57
1.32
2.22
3.09
3.70
3.87
3.63
3.14
2.72
2.72
3.41
4.83
6.80
8.85
10.30
10.40
8.43
4.21
-1.77
-8.29
-13.74
-16.54
-15.76
-11.58
-4.80
3.13
10.66
16.49
19.82
20.37
18.27
13.91
7.83
0.81
-6.23
-12.12
-15.75
-16.33
-13.70
-8.45
-1.81
4.73
9.87
12.78
13.38
12.10
9.64
6.66
3.66
0.94
-1.29
-2.76
-3.20
-2.37
-0.26
2.77
6.06
8.81
10.32
10.30
8.95
6.82
4.63
2.86
1.61
0.71
-0.31
-2.08
-4.83
-8.41
-12.17
-15.21
-16.91
-17.22
-16.58
-15.64
-14.84
-14.19
-13.39
-12.41
-10.93
-8.99
-6.95
-5.27
-4.40
-4.65
-6.10
-8.61
-11.74
-14.81
-16.85
-17.06
-15.07
-11.15
-6.08
-0.93
3.40
6.39
8.06
8.77
8.96
9.04
9.26
9.65
10.09
10.32
10.02
9.00
7.38
5.54
3.99
3.16
3.16
3.86
4.91
6.00
6.92
7.75
8.68
9.84
11.29
12.97
14.85
16.97
19.37
21.22
21.67
20.13
16.66
11.84
6.39
0.79
-4.62
-9.52
-13.57
-16.19
-16.84
-15.23
-11.43
-6.03
-0.00
5.55
9.68
11.84
12.12
11.36
10.08
8.69
7.35
5.97
4.37
2.41
0.05
-2.60
-5.15
-7.35
-9.00
-10.06
-10.56
-10.54
-10.03
-9.13
-7.93
-6.61
-5.45
-4.52
-3.79
-3.16
-2.48
-1.60
-0.53
0.66
1.85
2.84
3.54
3.86
3.77
3.33
2.67
1.92
1.26
0.84
0.67
0.71
0.84
0.91
0.80
0.59
0.29
-0.04
-0.37
-0.70
-1.00
-1.27
-1.50
-1.71
-1.89
-2.07
-2.25
-2.37
-2.36
-2.17
-1.83
-1.40
-0.98
-0.62
-0.33
-0.11
0.08
0.24
0.35
0.37
0.27
0.11
-0.03
-0.03
0.16
0.53
0.97
1.36
1.58
1.58
1.41
1.14
0.81
0.41
-0.09
-0.74
-1.51
-2.32
-3.08
-3.74
-4.36
-5.02
-5.79
-6.65
-7.53
-8.32
-8.91
-9.26
-9.39
-9.28
-8.93
-8.34
-7.54
-6.59
-5.61
-4.68
-3.86
-3.14
-2.50
-1.90
-1.33
-0.80
-0.33
0.07
0.39
0.66
0.90
1.20
1.61
2.16
2.84
3.54
4.13
4.44
4.42
4.09
3.57
3.01
2.48
2.02
1.54
1.01
0.41
-0.16
-0.58
-0.74
-0.64
-0.37
-0.10
0.03
-0.02
-0.15
-0.22
-0.09
0.29
0.84
1.39
1.75
1.82
1.63
1.29
0.95
0.75
0.73
0.87
1.06
1.22
1.30
1.28
1.18
1.04
0.87
0.66
0.41
0.15
-0.10
-0.30
-0.43
-0.45
-0.36
-0.13
0.24
0.75
1.39
2.16
3.03
3.93
4.76
5.40
5.77
5.86
5.78
5.67
5.68
5.83
6.08
6.30
6.38
6.32
6.15
5.93
5.66
5.30
4.77
4.04
3.17
2.24
1.41
0.76
0.32
0.08
-0.02
-0.06
-0.09
-0.15
-0.26
-0.44
-0.70
-1.00
-1.30
-1.50
-1.55
-1.40
-1.11
-0.76
-0.44
-0.24
-0.15
-0.12
-0.09
-0.04
0.03
0.06
0.00
-0.17
-0.43
-0.76
-1.14
-1.53
-1.94
-2.36
-2.77
-3.15
-3.48
-3.73
-3.87
-3.91
-3.89
-3.91
-4.05
-4.35
-4.76
-5.19
-5.50
-5.61
-5.57
-5.44
-5.31
-5.19
-5.02
-4.73
-4.29
-3.74
-3.12
-2.52
-1.98
-1.56
-1.26
-1.09
-1.04
-1.08
-1.17
-1.26
-1.34
-1.40
-1.45
-1.53
-1.63
-1.75
-1.87
-1.99
-2.08
-2.16
-2.23
-2.33
-2.47
-2.66
-2.90
-3.14
-3.36
-3.54
-3.70
-3.82
-3.86
-3.77
-3.47
-2.92
-2.18
-1.40
-0.74
-0.27
-0.02
0.12
0.26
0.47
0.74
1.01
1.22
1.39
1.55
1.74
1.98
2.23
2.45
2.58
2.64
2.64
2.58
2.47
2.29
2.05
1.79
1.57
1.41
1.32
1.29
1.27
1.28
1.30
1.34
1.35
1.31
1.19
1.02
0.92
0.96
1.19
1.55
1.91
2.15
2.21
2.18
2.19
2.36
2.68
3.01
3.18
3.06
2.63
2.04
1.46
1.03
0.85
0.88
1.06
1.31
1.55
1.71
1.69
1.45
0.96
0.32
-0.35
-0.87
-1.11
-1.03
-0.70
-0.26
0.13
0.33
0.30
0.08
-0.26
-0.59
-0.81
-0.84
-0.67
-0.30
0.18
0.71
1.22
1.65
1.96
2.11
2.08
1.83
1.37
0.75
0.08
-0.52
-0.93
-1.10
-1.04
-0.87
-0.71
-0.66
-0.76
-0.96
-1.19
-1.38
-1.49
-1.52
-1.51
-1.47
-1.42
-1.36
-1.29
-1.23
-1.21
-1.27
-1.42
-1.67
-1.95
-2.21
-2.34
-2.26
-1.93
-1.35
-0.59
0.24
1.02
1.66
2.08
2.25
2.21
1.99
1.70
1.41
1.20
1.09
1.05
1.00
0.89
0.70
0.43
0.11
-0.25
-0.64
-1.06
-1.44
-1.69
-1.72
-1.50
-1.07
-0.58
-0.16
0.07
0.10
0.02
-0.09
-0.12
-0.05
0.10
0.29
0.49
0.70
0.91
1.13
1.36
1.55
1.72
1.85
1.98
2.14
2.31
2.44
2.43
2.23
1.83
1.30
0.76
0.34
0.07
-0.09
-0.21
-0.39
-0.65
-0.95
-1.19
-1.32
-1.33
-1.25
-1.17
-1.14
-1.23
-1.47
-1.85
-2.33
-2.77
-3.03
-2.98
-2.57
-1.86
-1.04
-0.28
0.31
0.71
1.01
1.31
1.62
1.93
2.18
2.35
2.48
2.61
2.76
2.85
2.78
2.47
1.91
1.21
0.53
0.01
-0.32
-0.50
-0.61
-0.75
-0.95
-1.19
-1.45
-1.70
-1.94
-2.18
-2.40
-2.57
-2.66
-2.62
-2.46
-2.18
-1.84
-1.45
-1.06
-0.65
-0.24
0.17
0.56
0.91
1.21
1.44
1.60
1.72
1.84
2.00
2.21
2.40
2.50
2.41
2.10
1.64
1.15
0.77
0.58
0.58
0.68
0.80
0.84
0.72
0.40
-0.09
-0.69
-1.30
-1.80
-2.12
-2.22
-2.12
-1.88
-1.53
-1.12
-0.68
-0.27
0.06
0.28
0.43
0.56
0.75
1.03
1.39
1.77
2.09
2.32
2.46
2.52
2.53
2.48
2.37
2.22
2.01
1.74
1.40
0.99
0.54
0.10
-0.25
-0.48
-0.59
-0.64
-0.70
-0.84
-1.06
-1.32
-1.52
-1.62
-1.62
-1.57
-1.57
-1.62
-1.70
-1.68
-1.48
-1.04
-0.44
0.21
0.75
1.12
1.34
1.52
1.76
2.11
2.52
2.87
3.03
2.97
2.73
2.43
2.20
2.10
2.08
2.02
1.81
1.43
0.94
0.46
0.12
-0.02
0.02
0.16
0.34
0.50
0.62
0.66
0.57
0.31
-0.14
-0.72
-1.32
-1.80
-2.08
-2.09
-1.86
-1.44
-0.93
-0.43
-0.04
0.22
0.38
0.48
0.62
0.80
0.99
1.12
1.12
0.97
0.73
0.51
0.38
0.36
0.40
0.39
0.28
0.06
-0.22
-0.48
-0.63
-0.64
-0.57
-0.49
-0.51
-0.67
-0.93
-1.21
-1.39
-1.44
-1.38
-1.31
-1.32
-1.46
-1.68
-1.88
-1.97
-1.92
-1.79
-1.66
-1.59
-1.54
-1.45
-1.23
-0.87
-0.42
0.00
0.34
0.55
0.67
0.73
0.75
0.71
0.56
0.30
-0.04
-0.41
-0.72
-0.95
-1.06
-1.07
-1.03
-0.98
-0.98
-1.08
-1.29
-1.60
-1.97
-2.34
-2.63
-2.79
-2.80
-2.69
-2.50
-2.29
-2.11
-1.93
-1.69
-1.32
-0.80
-0.16
0.50
1.11
1.62
2.07
2.52
3.03
3.59
4.13
4.59
4.87
4.99
4.98
4.95
4.98
5.10
5.32
5.57
5.78
5.92
6.01
6.07
6.12
6.10
5.94
5.58
5.05
4.42
3.84
3.40
3.12
2.92
2.71
2.39
1.96
1.40
0.76
0.07
-0.59
-1.14
-1.49
-1.57
-1.42
-1.14
-0.86
-0.68
-0.61
-0.56
-0.42
-0.15
0.21
0.54
0.71
0.63
0.32
-0.16
-0.68
-1.20
-1.71
-2.23
-2.83
-3.53
-4.31
-5.12
-5.87
-6.48
-6.89
-7.10
-7.11
-6.94
-6.63
-6.15
-5.51
-4.74
-3.87
-2.99
-2.12
-1.28
-0.47
0.30
1.03
1.69
2.31
2.95
3.69
4.52
5.37
6.03
6.33
6.24
5.89
5.51
5.26
5.16
5.08
4.83
4.31
3.55
2.73
2.02
1.49
1.11
0.76
0.36
-0.10
-0.57
-0.96
-1.24
-1.41
-1.51
-1.56
-1.57
-1.54
-1.43
-1.25
-0.99
-0.69
-0.39
-0.11
0.13
0.33
0.45
0.47
0.39
0.21
-0.01
-0.22
-0.34
-0.38
-0.35
-0.35
-0.42
-0.55
-0.68
-0.76
-0.74
-0.68
-0.67
-0.76
-0.94
-1.13
-1.25
-1.26
-1.20
-1.18
-1.29
-1.55
-1.94
-2.40
-2.85
-3.22
-3.44
-3.46
-3.24
-2.81
-2.24
-1.66
-1.17
-0.80
-0.51
-0.19
0.23
0.79
1.42
2.05
2.56
2.87
2.97
2.89
2.71
2.52
2.43
2.48
2.67
2.93
3.15
3.22
3.05
2.68
2.19
1.72
1.38
1.21
1.15
1.11
1.00
0.79
0.53
0.29
0.12
0.04
-0.00
-0.04
-0.11
-0.18
-0.21
-0.15
-0.01
0.15
0.27
0.26
0.08
-0.25
-0.67
-1.14
-1.59
-2.02
-2.42
-2.81
-3.19
-3.55
-3.86
-4.05
-4.11
-4.03
-3.85
-3.66
-3.55
-3.55
-3.66
-3.81
-3.94
-4.02
-4.04
-4.01
-3.95
-3.81
-3.58
-3.23
-2.78
-2.32
-1.87
-1.44
-0.93
-0.23
0.76
1.98
3.29
4.53
5.53
6.24
6.71
7.05
7.34
7.62
7.89
8.06
8.07
7.87
7.50
7.00
6.48
6.01
5.61
5.26
4.89
4.43
3.85
3.16
2.40
1.59
0.73
-0.21
-1.26
-2.41
-3.57
-4.65
-5.54
-6.18
-6.60
-6.83
-6.91
-6.85
-6.62
-6.22
-5.66
-5.02
-4.36
-3.74
-3.16
-2.58
-1.97
-1.35
-0.77
-0.28
0.04
0.18
0.16
0.03
-0.14
-0.31
-0.44
-0.54
-0.61
-0.68
-0.75
-0.84
-0.97
-1.16
-1.45
-1.85
-2.32
-2.80
-3.19
-3.40
-3.44
-3.37
-3.25
-3.13
-3.00
-2.79
-2.48
-2.07
-1.64
-1.29
-1.03
-0.83
-0.62
-0.36
-0.06
0.21
0.38
0.42
0.37
0.35
0.44
0.71
1.14
1.67
2.22
2.70
3.06
3.26
3.26
3.07
2.70
2.23
1.75
1.33
1.02
0.83
0.71
0.65
0.60
0.55
0.45
0.26
-0.05
-0.49
-0.98
-1.41
-1.65
-1.63
-1.37
-0.97
-0.54
-0.17
0.12
0.37
0.64
0.97
1.37
1.79
2.13
2.31
2.29
2.09
1.77
1.43
1.10
0.80
0.49
0.15
-0.19
-0.47
-0.61
-0.61
-0.49
-0.34
-0.27
-0.29
-0.41
-0.58
-0.77
-0.98
-1.25
-1.58
-1.93
-2.23
-2.36
-2.29
-2.02
-1.66
-1.29
-1.00
-0.81
-0.69
-0.65
-0.70
-0.83
-1.03
-1.23
-1.31
-1.18
-0.84
-0.38
0.05
0.33
0.42
0.40
0.39
0.50
0.76
1.12
1.51
1.84
2.09
2.25
2.35
2.39
2.36
2.26
2.03
1.69
1.26
0.80
0.36
-0.00
-0.28
-0.47
-0.58
-0.63
-0.62
-0.54
-0.40
-0.21
0.03
0.33
0.66
0.97
1.19
1.27
1.17
0.98
0.80
0.72
0.79
0.92
1.01
0.98
0.80
0.53
0.26
0.04
-0.11
-0.21
-0.28
-0.33
-0.32
-0.25
-0.17
-0.17
-0.35
-0.73
-1.25
-1.75
-2.04
-2.02
-1.71
-1.25
-0.85
-0.66
-0.72
-0.95
-1.19
-1.31
-1.23
-0.98
-0.64
-0.28
0.01
0.20
0.21
0.00
-0.46
-1.15
-1.96
-2.73
-3.28
-3.51
-3.41
-3.14
-2.88
-2.81
-3.03
-3.52
-4.16
-4.83
-5.49
-6.17
-7.00
-8.07
-9.40
-10.88
-12.33
-13.56
-14.47
-15.08
-15.52
-15.93
-16.39
-16.88
-17.30
-17.50
-17.37
-16.83
-15.85
-14.40
-12.46
-10.02
-7.19
-4.10
-0.97
2.03
4.75
7.14
9.20
10.95
12.41
13.58
14.46
15.11
15.54
15.77
15.78
15.53
14.97
14.12
13.10
12.06
11.13
10.33
9.59
8.79
7.82
6.72
5.62
4.68
4.07
3.82
3.90
4.21
4.64
5.15
5.66
6.16
6.60
6.96
7.21
7.36
7.42
7.38
7.24
6.99
6.61
6.14
5.61
5.08
4.61
4.21
3.87
3.50
3.04
2.46
1.78
1.09
0.49
0.06
-0.24
-0.50
-0.82
-1.28
-1.86
-2.47
-3.00
-3.36
-3.53
-3.59
-3.63
-3.76
-3.99
-4.27
-4.49
-4.52
-4.28
-3.77
-3.10
-2.43
-1.95
-1.73
-1.76
-1.93
-2.13
-2.27
-2.32
-2.28
-2.16
-1.99
-1.77
-1.54
-1.36
-1.27
-1.27
-1.30
-1.28
-1.14
-0.88
-0.55
-0.25
-0.03
0.12
0.22
0.32
0.44
0.59
0.79
1.09
1.54
2.15
2.88
3.60
4.22
4.64
4.87
4.95
4.95
4.93
4.90
4.82
4.62
4.25
3.70
3.03
2.34
1.72
1.27
1.01
0.92
0.91
0.87
0.69
0.33
-0.21
-0.85
-1.47
-1.93
-2.16
-2.19
-2.11
-2.03
-2.00
-1.99
-1.92
-1.75
-1.46
-1.14
-0.90
-0.80
-0.84
-0.92
-0.94
-0.83
-0.61
-0.35
-0.13
0.00
0.05
0.03
-0.05
-0.16
-0.27
-0.34
-0.33
-0.24
-0.10
0.05
0.15
0.21
0.26
0.38
0.61
0.90
1.16
1.30
1.26
1.05
0.75
0.45
0.25
0.17
0.22
0.34
0.45
0.48
0.37
0.14
-0.17
-0.48
-0.70
-0.74
-0.60
-0.32
-0.04
0.14
0.16
0.05
-0.06
-0.06
0.11
0.41
0.73
0.92
0.92
0.73
0.42
0.12
-0.11
-0.18
-0.10
0.11
0.38
0.63
0.78
0.78
0.65
0.46
0.33
0.32
0.45
0.68
0.93
1.10
1.13
1.03
0.83
0.60
0.42
0.29
0.19
0.08
-0.07
-0.24
-0.35
-0.32
-0.08
0.33
0.79
1.15
1.34
1.35
1.24
1.13
1.06
1.02
0.97
0.90
0.80
0.74
0.73
0.76
0.80
0.78
0.70
0.58
0.49
0.48
0.59
0.78
0.94
0.96
0.77
0.36
-0.18
-0.72
-1.11
-1.33
-1.40
-1.43
-1.54
-1.77
-2.10
-2.44
-2.69
-2.79
-2.72
-2.56
-2.39
-2.27
-2.20
-2.14
-1.97
-1.63
-1.10
-0.46
0.14
0.57
0.75
0.74
0.62
0.56
0.61
0.75
0.88
0.88
0.72
0.46
0.24
0.18
0.33
0.61
0.85
0.87
0.61
0.15
-0.36
-0.72
-0.86
-0.80
-0.67
-0.59
-0.63
-0.75
-0.86
-0.89
-0.81
-0.65
-0.49
-0.35
-0.21
-0.01
0.31
0.78
1.33
1.86
2.29
2.56
2.71
2.76
2.77
2.75
2.66
2.50
2.29
2.07
1.95
1.99
2.23
2.61
3.08
3.51
3.82
4.01
4.14
4.33
4.68
5.23
5.97
6.75
7.45
8.00
8.40
8.75
9.15
9.64
10.19
10.70
11.10
11.39
11.61
11.84
12.11
12.34
12.43
12.24
11.64
10.60
9.11
7.25
5.13
2.87
0.59
-1.67
-3.92
-6.26
-8.79
-11.50
-14.28
-16.89
-19.08
-20.69
-21.69
-22.20
-22.42
-22.52
-22.57
-22.59
-22.52
-22.30
-21.88
-21.23
-20.34
-19.24
-17.95
-16.53
-15.07
-13.66
-12.33
-11.08
-9.85
-8.54
-7.12
-5.57
-3.99
-2.51
-1.25
-0.28
0.43
1.00
1.57
2.22
2.96
3.74
4.47
5.10
5.64
6.10
6.46
6.71
6.76
6.58
6.23
5.80
5.42
5.20
5.15
5.23
5.32
5.34
5.25
5.05
4.78
4.49
4.23
4.05
3.98
4.06
4.25
4.49
4.62
4.52
4.12
3.50
2.82
2.33
2.16
2.33
2.70
3.05
3.22
3.14
2.84
2.41
1.92
1.36
0.75
0.08
-0.58
-1.16
-1.58
-1.81
-1.92
-1.98
-2.11
-2.37
-2.77
-3.23
-3.66
-4.00
-4.23
-4.40
-4.54
-4.68
-4.78
-4.78
-4.67
-4.47
-4.26
-4.17
-4.23
-4.40
-4.53
-4.46
-4.09
-3.43
-2.61
-1.85
-1.30
-1.04
-1.01
-1.06
-1.01
-0.73
-0.19
0.56
1.39
2.17
2.77
3.14
3.25
3.14
2.88
2.60
2.43
2.47
2.75
3.22
3.74
4.11
4.18
3.89
3.29
2.51
1.75
1.19
0.93
0.97
1.23
1.59
1.93
2.16
2.26
2.25
2.18
2.10
2.10
2.20
2.42
2.70
2.91
2.92
2.65
2.13
1.49
0.90
0.51
0.33
0.29
0.28
0.22
0.09
-0.04
-0.12
-0.17
-0.27
-0.52
-0.95
-1.51
-2.07
-2.50
-2.77
-2.93
-3.08
-3.30
-3.61
-3.93
-4.18
-4.29
-4.22
-3.99
-3.61
-3.09
-2.45
-1.72
-0.95
-0.21
0.43
0.96
1.36
1.63
1.79
1.84
1.81
1.74
1.67
1.62
1.57
1.47
1.30
1.08
0.87
0.75
0.73
0.76
0.76
0.65
0.45
0.22
0.04
-0.06
-0.11
-0.22
-0.47
-0.85
-1.29
-1.69
-1.96
-2.08
-2.09
-2.05
-1.98
-1.86
-1.65
-1.30
-0.80
-0.22
0.34
0.78
1.05
1.17
1.24
1.32
1.41
1.47
1.43
1.26
0.99
0.71
0.49
0.38
0.36
0.38
0.38
0.37
0.34
0.34
0.34
0.32
0.25
0.13
-0.01
-0.11
-0.15
-0.15
-0.19
-0.33
-0.63
-1.03
-1.44
-1.72
-1.81
-1.71
-1.53
-1.35
-1.22
-1.12
-0.99
-0.75
-0.39
0.08
0.58
1.07
1.52
1.92
2.25
2.50
2.69
2.85
3.04
3.25
3.42
3.45
3.28
2.92
2.51
2.18
2.02
1.99
1.96
1.79
1.38
0.79
0.13
-0.43
-0.78
-0.87
-0.78
-0.60
-0.45
-0.43
-0.58
-0.85
-1.17
-1.44
-1.59
-1.59
-1.50
-1.38
-1.28
-1.26
-1.31
-1.39
-1.46
-1.48
-1.41
-1.25
-1.02
-0.75
-0.52
-0.37
-0.34
-0.43
-0.58
-0.73
-0.79
-0.74
-0.62
-0.51
-0.48
-0.54
-0.64
-0.68
-0.59
-0.36
-0.06
0.20
0.36
0.39
0.33
0.24
0.17
0.13
0.11
0.08
0.07
0.11
0.24
0.48
0.79
1.09
1.28
1.31
1.19
0.99
0.82
0.78
0.94
1.30
1.82
2.41
2.97
3.39
3.58
3.51
3.23
2.82
2.40
2.07
1.83
1.63
1.36
0.94
0.39
-0.21
-0.71
-1.01
-1.08
-0.98
-0.79
-0.59
-0.43
-0.30
-0.19
-0.08
0.03
0.17
0.36
0.66
1.11
1.70
2.36
2.99
3.47
3.72
3.74
3.57
3.32
3.08
2.89
2.75
2.58
2.30
1.88
1.36
0.85
0.45
0.21
0.10
0.01
-0.19
-0.56
-1.09
-1.67
-2.17
-2.50
-2.64
-2.64
-2.61
-2.65
-2.79
-2.99
-3.20
-3.35
-3.48
-3.64
-3.92
-4.33
-4.79
-5.15
-5.27
-5.08
-4.66
-4.13
-3.64
-3.29
-3.09
-2.97
-2.87
-2.73
-2.54
-2.29
-2.03
-1.81
-1.68
-1.69
-1.82
-2.00
-2.15
-2.18
-2.11
-1.99
-1.92
-1.95
-2.06
-2.21
-2.33
-2.39
-2.38
-2.33
-2.29
-2.27
-2.30
-2.40
-2.58
-2.81
-3.04
-3.22
-3.24
-3.04
-2.61
-1.98
-1.24
-0.54
0.05
0.47
0.75
0.95
1.15
1.40
1.67
1.94
2.18
2.39
2.57
2.72
2.82
2.83
2.71
2.50
2.27
2.09
1.99
1.97
2.00
2.04
2.05
2.05
2.07
2.13
2.22
2.34
2.47
2.57
2.63
2.63
2.56
2.40
2.15
1.82
1.47
1.18
1.00
1.00
1.13
1.36
1.61
1.83
2.00
2.13
2.21
2.25
2.25
2.18
2.01
1.74
1.36
0.92
0.45
0.01
-0.37
-0.70
-1.00
-1.29
-1.55
-1.73
-1.81
-1.79
-1.77
-1.83
-2.01
-2.27
-2.49
-2.54
-2.39
-2.13
-1.90
-1.86
-2.07
-2.44
-2.80
-2.95
-2.79
-2.36
-1.79
-1.23
-0.78
-0.44
-0.16
0.14
0.51
0.94
1.40
1.85
2.27
2.63
2.92
3.11
3.15
3.05
2.86
2.64
2.49
2.46
2.53
2.66
2.76
2.79
2.72
2.57
2.36
2.14
1.94
1.74
1.51
1.17
0.64
-0.09
-1.01
-2.03
-3.04
-3.91
-4.56
-4.94
-5.05
-4.92
-4.58
-4.04
-3.35
-2.59
-1.85
-1.25
-0.87
-0.69
-0.64
-0.58
-0.44
-0.19
0.05
0.16
0.06
-0.22
-0.54
-0.70
-0.64
-0.36
0.00
0.31
0.48
0.56
0.59
0.63
0.68
0.67
0.52
0.21
-0.24
-0.74
-1.21
-1.53
-1.65
-1.56
-1.32
-1.01
-0.70
-0.44
-0.20
0.08
0.43
0.87
1.34
1.76
2.07
2.28
2.46
2.65
2.86
3.03
3.07
2.94
2.64
2.25
1.87
1.57
1.35
1.20
1.09
0.98
0.85
0.67
0.40
0.05
-0.32
-0.63
-0.81
-0.83
-0.79
-0.77
-0.87
-1.12
-1.46
-1.82
-2.15
-2.42
-2.63
-2.78
-2.84
-2.79
-2.61
-2.30
-1.91
-1.49
-1.10
-0.77
-0.53
-0.34
-0.18
-0.03
0.13
0.29
0.40
0.44
0.36
0.19
-0.05
-0.29
-0.46
-0.51
-0.45
-0.30
-0.16
-0.08
-0.11
-0.23
-0.39
-0.48
-0.44
-0.29
-0.07
0.14
0.25
0.27
0.28
0.38
0.63
1.04
1.52
1.96
2.29
2.49
2.62
2.73
2.85
2.95
3.02
3.06
3.10
3.14
3.14
3.03
2.74
2.28
1.73
1.22
0.84
0.60
0.40
0.14
-0.20
-0.58
-0.84
-0.88
-0.68
-0.35
-0.07
0.04
-0.05
-0.27
-0.51
-0.67
-0.74
-0.76
-0.79
-0.83
-0.86
-0.85
-0.79
-0.72
-0.68
-0.67
-0.65
-0.58
-0.45
-0.28
-0.13
-0.02
0.08
0.20
0.32
0.43
0.45
0.38
0.24
0.08
-0.05
-0.13
-0.21
-0.32
-0.46
-0.60
-0.69
-0.70
-0.64
-0.51
-0.34
-0.15
0.01
0.07
-0.01
-0.26
-0.59
-0.93
-1.18
-1.30
-1.29
-1.21
-1.09
-0.93
-0.70
-0.41
-0.05
0.32
0.64
0.87
0.99
1.01
1.00
0.97
0.95
0.94
0.90
0.78
0.58
0.33
0.12
0.04
0.14
0.37
0.62
0.80
0.82
0.69
0.48
0.24
-0.01
-0.29
-0.61
-0.97
-1.32
-1.59
-1.76
-1.87
-1.98
-2.12
-2.27
-2.38
-2.39
-2.27
-2.07
-1.83
-1.61
-1.43
-1.26
-1.08
-0.87
-0.63
-0.37
-0.14
0.04
0.13
0.11
-0.01
-0.20
-0.36
-0.42
-0.33
-0.13
0.11
0.29
0.36
0.33
0.23
0.11
0.02
-0.07
-0.16
-0.26
-0.34
-0.36
-0.33
-0.24
-0.15
-0.11
-0.14
-0.24
-0.35
-0.41
-0.35
-0.15
0.17
0.56
0.94
1.25
1.45
1.55
1.60
1.64
1.66
1.61
1.41
1.05
0.60
0.18
-0.06
-0.06
0.09
0.23
0.21
-0.03
-0.41
-0.73
-0.83
-0.67
-0.33
0.02
0.23
0.25
0.10
-0.10
-0.24
-0.27
-0.22
-0.15
-0.12
-0.18
-0.33
-0.52
-0.72
-0.87
-0.97
-1.00
-0.98
-0.88
-0.72
-0.46
-0.11
0.31
0.73
1.07
1.24
1.18
0.90
0.47
0.04
-0.23
-0.26
-0.04
0.36
0.80
1.18
1.41
1.42
1.20
0.80
0.28
-0.24
-0.65
-0.90
-0.98
-0.93
-0.83
-0.71
-0.58
-0.46
-0.36
-0.32
-0.35
-0.47
-0.60
-0.67
-0.61
-0.41
-0.10
0.27
0.62
0.90
1.08
1.13
1.11
1.07
1.05
1.09
1.15
1.19
1.15
1.05
0.93
0.86
0.88
0.94
0.97
0.90
0.73
0.50
0.27
0.10
-0.04
-0.14
-0.22
-0.25
-0.19
-0.05
0.13
0.25
0.28
0.20
0.05
-0.09
-0.18
-0.20
-0.17
-0.14
-0.13
-0.14
-0.15
-0.12
-0.01
0.16
0.37
0.54
0.64
0.67
0.67
0.74
0.91
1.15
1.37
1.44
1.27
0.89
0.40
-0.03
-0.28
-0.31
-0.16
0.04
0.18
0.20
0.11
-0.04
-0.17
-0.26
-0.34
-0.46
-0.65
-0.89
-1.12
-1.29
-1.38
-1.40
-1.41
-1.45
-1.53
-1.62
-1.69
-1.71
-1.66
-1.55
-1.40
-1.21
-1.02
-0.83
-0.65
-0.48
-0.28
-0.06
0.19
0.42
0.58
0.66
0.66
0.61
0.56
0.52
0.49
0.43
0.31
0.14
-0.04
-0.20
-0.34
-0.47
-0.65
-0.89
-1.14
-1.26
-1.17
-0.87
-0.47
-0.17
-0.13
-0.36
-0.73
-1.03
-1.10
-0.93
-0.66
-0.46
-0.42
-0.50
-0.56
-0.46
-0.20
0.15
0.45
0.60
0.59
0.50
0.41
0.39
0.47
0.62
0.81
1.02
1.22
1.37
1.43
1.39
1.29
1.18
1.10
1.04
0.97
0.83
0.61
0.35
0.09
-0.13
-0.32
-0.50
-0.72
-0.98
-1.24
-1.46
-1.60
-1.68
-1.73
-1.77
-1.77
-1.68
-1.46
-1.11
-0.71
-0.35
-0.13
-0.05
-0.06
-0.04
0.08
0.32
0.64
0.94
1.15
1.22
1.14
0.95
0.72
0.54
0.51
0.66
0.93
1.21
1.33
1.22
0.89
0.51
0.26
0.22
0.38
0.60
0.73
0.67
0.45
0.16
-0.11
-0.32
-0.48
-0.62
-0.73
-0.75
-0.65
-0.46
-0.26
-0.17
-0.26
-0.51
-0.78
-0.90
-0.76
-0.37
0.15
0.64
1.00
1.18
1.21
1.14
1.00
0.81
0.59
0.38
0.22
0.16
0.21
0.32
0.42
0.45
0.36
0.16
-0.14
-0.43
-0.64
-0.70
-0.56
-0.30
-0.02
0.13
0.05
-0.25
-0.67
-1.07
-1.28
-1.25
-1.01
-0.65
-0.28
0.04
0.31
0.55
0.79
1.02
1.19
1.26
1.22
1.14
1.09
1.16
1.36
1.60
1.77
1.80
1.69
1.51
1.32
1.18
1.07
0.96
0.81
0.63
0.41
0.15
-0.15
-0.49
-0.82
-1.10
-1.27
-1.31
-1.29
-1.26
-1.30
-1.39
-1.50
-1.60
-1.68
-1.80
-1.97
-2.16
-2.26
-2.16
-1.78
-1.16
-0.45
0.13
0.43
0.39
0.09
-0.31
-0.67
-0.88
-0.93
-0.84
-0.64
-0.34
0.04
0.43
0.73
0.85
0.74
0.44
0.05
-0.32
-0.57
-0.67
-0.63
-0.49
-0.32
-0.18
-0.13
-0.19
-0.36
-0.57
-0.75
-0.85
-0.84
-0.75
-0.63
-0.49
-0.33
-0.14
0.08
0.31
0.57
0.85
1.15
1.47
1.78
2.03
2.18
2.21
2.12
1.95
1.71
1.43
1.12
0.79
0.45
0.10
-0.22
-0.48
-0.67
-0.75
-0.73
-0.63
-0.44
-0.20
0.09
0.35
0.56
0.68
0.70
0.67
0.62
0.60
0.59
0.53
0.37
0.12
-0.17
-0.43
-0.57
-0.60
-0.53
-0.47
-0.46
-0.53
-0.65
-0.78
-0.86
-0.83
-0.69
-0.46
-0.20
0.03
0.19
0.27
0.31
0.30
0.27
0.17
0.01
-0.23
-0.49
-0.70
-0.80
-0.76
-0.64
-0.51
-0.45
-0.51
-0.68
-0.91
-1.14
-1.31
-1.41
-1.40
-1.30
-1.13
-0.91
-0.67
-0.43
-0.15
0.18
0.55
0.92
1.22
1.37
1.36
1.23
1.07
0.98
0.98
1.04
1.12
1.16
1.16
1.15
1.16
1.17
1.15
1.07
0.93
0.78
0.66
0.61
0.60
0.57
0.46
0.27
0.03
-0.17
-0.28
-0.29
-0.24
-0.22
-0.32
-0.58
-1.00
-1.52
-2.02
-2.35
-2.37
-2.02
-1.35
-0.52
0.29
0.88
1.15
1.10
0.83
0.47
0.15
-0.06
-0.13
-0.08
0.02
0.12
0.13
0.01
-0.22
-0.52
-0.80
-0.94
-0.87
-0.58
-0.11
0.46
1.04
1.53
1.85
1.98
1.92
1.74
1.54
1.43
1.46
1.64
1.89
2.08
2.12
2.01
1.84
1.75
1.86
2.19
2.65
3.09
3.35
3.33
3.08
2.70
2.36
2.14
2.02
1.90
1.66
1.27
0.83
0.51
0.48
0.72
1.07
1.25
1.06
0.49
-0.30
-1.05
-1.56
-1.79
-1.84
-1.86
-1.94
-2.10
-2.26
-2.37
-2.46
-2.59
-2.84
-3.20
-3.60
-3.92
-4.08
-4.09
-4.02
-4.01
-4.12
-4.32
-4.54
-4.65
-4.58
-4.35
-3.98
-3.52
-2.97
-2.37
-1.78
-1.31
-1.07
-1.10
-1.36
-1.71
-1.99
-2.11
-2.03
-1.76
-1.36
-0.83
-0.22
0.43
1.02
1.46
1.71
1.78
1.74
1.66
1.57
1.51
1.45
1.41
1.41
1.49
1.65
1.89
2.18
2.49
2.77
3.00
3.14
3.14
2.98
2.67
2.26
1.88
1.64
1.60
1.72
1.90
1.96
1.79
1.41
0.92
0.48
0.21
0.12
0.11
0.04
-0.17
-0.50
-0.81
-0.96
-0.84
-0.50
-0.09
0.20
0.26
0.04
-0.37
-0.86
-1.34
-1.74
-2.04
-2.24
-2.31
-2.22
-1.96
-1.56
-1.09
-0.62
-0.23
0.03
0.14
0.13
0.00
-0.17
-0.33
-0.37
-0.27
-0.02
0.28
0.51
0.59
0.48
0.27
0.06
-0.06
-0.07
0.00
0.05
0.02
-0.13
-0.35
-0.57
-0.73
-0.77
-0.72
-0.63
-0.55
-0.53
-0.54
-0.56
-0.58
-0.59
-0.61
-0.61
-0.54
-0.33
0.05
0.59
1.17
1.66
1.93
1.95
1.80
1.57
1.36
1.23
1.14
1.07
0.95
0.81
0.66
0.50
0.33
0.10
-0.20
-0.58
-0.98
-1.31
-1.51
-1.53
-1.35
-1.03
-0.64
-0.24
0.07
0.25
0.25
0.09
-0.16
-0.44
-0.67
-0.82
-0.92
-1.02
-1.13
-1.22
-1.25
-1.13
-0.83
-0.36
0.20
0.74
1.19
1.50
1.68
1.75
1.76
1.73
1.65
1.52
1.38
1.23
1.12
1.03
0.90
0.66
0.27
-0.25
-0.79
-1.22
-1.41
-1.36
-1.13
-0.88
-0.71
-0.66
-0.70
-0.74
-0.76
-0.77
-0.85
-1.00
-1.17
-1.25
-1.13
-0.79
-0.30
0.18
0.52
0.66
0.64
0.58
0.57
0.64
0.79
0.94
1.05
1.11
1.13
1.14
1.18
1.23
1.27
1.27
1.18
1.02
0.83
0.66
0.56
0.55
0.57
0.55
0.43
0.20
-0.07
-0.30
-0.44
-0.51
-0.55
-0.62
-0.74
-0.89
-1.03
-1.13
-1.19
-1.21
-1.22
-1.20
-1.14
-0.98
-0.71
-0.31
0.19
0.74
1.25
1.65
1.90
2.00
1.99
1.92
1.86
1.79
1.72
1.61
1.46
1.27
1.05
0.82
0.60
0.40
0.22
0.07
-0.08
-0.26
-0.48
-0.70
-0.87
-0.93
-0.87
-0.75
-0.63
-0.62
-0.71
-0.85
-0.92
-0.83
-0.55
-0.16
0.17
0.32
0.22
-0.03
-0.27
-0.31
-0.05
0.46
1.08
1.59
1.85
1.84
1.66
1.47
1.39
1.44
1.57
1.66
1.61
1.40
1.09
0.78
0.55
0.43
0.41
0.43
0.41
0.32
0.12
-0.15
-0.44
-0.72
-0.97
-1.17
-1.34
-1.47
-1.56
-1.57
-1.54
-1.49
-1.49
-1.56
-1.68
-1.77
-1.76
-1.61
-1.33
-0.99
-0.64
-0.33
-0.08
0.09
0.16
0.11
-0.02
-0.15
-0.19
-0.07
0.17
0.46
0.65
0.67
0.54
0.35
0.20
0.13
0.09
0.03
-0.13
-0.36
-0.62
-0.87
-1.08
-1.21
-1.27
-1.23
-1.12
-0.98
-0.89
-0.91
-1.07
-1.31
-1.53
-1.66
-1.64
-1.50
-1.27
-1.00
-0.70
-0.39
-0.08
0.22
0.51
0.80
1.10
1.38
1.59
1.63
1.43
1.03
0.54
0.14
-0.07
-0.05
0.14
0.39
0.64
0.84
0.99
1.08
1.06
0.90
0.58
0.17
-0.25
-0.55
-0.69
-0.70
-0.67
-0.65
-0.67
-0.71
-0.75
-0.79
-0.89
-1.07
-1.32
-1.56
-1.72
-1.71
-1.51
-1.14
-0.66
-0.16
0.26
0.56
0.68
0.65
0.53
0.42
0.39
0.46
0.57
0.66
0.68
0.65
0.66
0.76
0.95
1.12
1.13
0.93
0.55
0.11
-0.26
-0.49
-0.61
-0.68
-0.78
-0.89
-1.00
-1.05
-1.05
-1.03
-1.01
-1.01
-1.01
-0.99
-0.94
-0.85
-0.73
-0.57
-0.34
-0.06
0.25
0.51
0.68
0.76
0.76
0.74
0.70
0.66
0.60
0.51
0.42
0.34
0.29
0.26
0.28
0.36
0.50
0.69
0.89
1.05
1.13
1.11
1.00
0.82
0.60
0.35
0.11
-0.11
-0.32
-0.55
-0.85
-1.22
-1.63
-1.95
-2.06
-1.87
-1.42
-0.85
-0.29
0.16
0.48
0.72
0.93
1.09
1.13
1.00
0.74
0.47
0.35
0.49
0.88
1.36
1.77
1.96
1.89
1.60
1.20
0.78
0.40
0.09
-0.16
-0.35
-0.49
-0.59
-0.67
-0.70
-0.70
-0.67
-0.65
-0.70
-0.83
-1.00
-1.13
-1.15
-1.04
-0.83
-0.62
-0.47
-0.40
-0.38
-0.39
-0.45
-0.54
-0.63
-0.62
-0.38
0.14
0.89
1.72
2.43
2.90
3.08
3.02
2.78
2.40
1.90
1.32
0.77
0.35
0.16
0.21
0.42
0.65
0.80
0.82
0.75
0.66
0.63
0.67
0.74
0.79
0.79
0.76
0.75
0.81
0.90
0.97
0.91
0.66
0.28
-0.13
-0.48
-0.72
-0.89
-1.07
-1.25
-1.38
-1.33
-1.00
-0.42
0.30
0.96
1.38
1.47
1.24
0.83
0.42
0.14
0.09
0.23
0.44
0.58
0.53
0.30
-0.03
-0.33
-0.51
-0.56
-0.56
-0.55
-0.53
-0.42
-0.13
0.34
0.87
1.27
1.33
1.00
0.40
-0.26
-0.75
-1.01
-1.10
-1.19
-1.40
-1.72
-2.01
-2.12
-1.96
-1.56
-1.05
-0.61
-0.30
-0.16
-0.11
-0.09
-0.05
0.05
0.22
0.42
0.63
0.77
0.80
0.70
0.52
