1533325227.00
64.000000
-0.00
-0.00
-0.00
-0.00
-0.00
-0.00
-0.00
-0.00
-0.00
-0.00
0.00
0.01
0.01
-0.00
-0.03
-0.05
-0.05
0.00
0.13
0.36
0.66
1.01
1.37
1.72
2.06
2.40
2.79
3.24
3.80
4.44
5.10
5.74
6.33
6.89
7.49
8.19
9.07
10.22
11.56
12.97
14.31
15.49
16.54
17.63
18.99
20.78
23.27
26.28
29.55
32.75
35.69
38.43
41.29
44.73
49.12
54.90
61.75
69.12
76.40
83.16
89.45
95.78
102.93
111.56
122.33
134.79
148.10
161.21
173.38
184.53
195.32
207.26
219.36
234.15
252.37
273.99
297.47
319.48
335.41
340.60
332.00
309.28
275.32
234.23
190.12
145.65
101.66
57.84
13.95
-29.41
-70.86
-108.71
-142.39
-172.39
-200.02
-226.81
-253.95
-282.16
-311.51
-341.44
-370.33
-395.60
-414.06
-422.78
-420.09
-406.29
-383.62
-355.43
-325.08
-294.89
-266.05
-238.90
-213.52
-190.17
-169.19
-150.71
-134.39
-119.44
-104.96
-90.44
-75.99
-62.25
-50.06
-40.04
-32.25
-26.17
-20.94
-15.75
-10.15
-4.22
1.54
6.53
10.34
12.93
14.61
15.88
17.17
18.71
20.48
22.29
23.91
25.19
26.12
26.77
27.27
27.74
28.26
28.84
29.48
30.13
30.76
31.30
31.76
32.17
32.62
33.21
33.90
34.44
34.34
33.08
30.33
26.20
21.28
16.47
12.65
10.33
9.55
9.93
10.93
12.06
13.01
13.64
13.96
13.98
13.76
13.33
12.74
12.06
11.36
10.68
10.06
9.45
8.75
7.89
6.84
5.75
4.85
4.43
4.63
5.38
6.38
7.23
7.59
7.28
6.32
4.79
2.84
0.62
-1.67
-3.81
-5.56
-6.75
-7.35
-7.50
-7.45
-7.39
-7.42
-7.46
-7.38
-7.10
-6.64
-6.13
-5.75
-5.60
-5.71
-6.07
-6.65
-7.40
-8.31
-9.30
-10.26
-11.07
-11.68
-12.11
-12.48
-12.92
-13.47
-14.06
-14.53
-14.73
-14.61
-14.23
-13.75
-13.29
-12.94
-12.64
-12.28
-11.75
-11.00
-10.05
-8.98
-7.87
-6.78
-5.66
-4.50
-3.26
-1.97
-0.70
0.45
1.38
2.09
2.60
2.99
3.32
3.65
3.99
4.32
4.60
4.78
4.77
4.54
4.14
3.68
3.36
3.34
3.68
4.32
5.06
5.74
6.23
6.54
6.74
6.93
7.14
7.30
7.32
7.09
6.58
5.85
5.05
4.30
3.74
3.40
3.24
3.15
3.01
2.74
2.36
1.96
1.66
1.55
1.64
1.84
2.06
2.22
2.31
2.36
2.42
2.52
2.64
2.71
2.69
2.56
2.36
2.16
2.05
2.11
2.33
2.65
2.97
3.22
3.37
3.48
3.60
3.77
3.96
4.18
4.39
4.59
4.79
4.92
4.93
4.78
4.49
4.16
3.91
3.85
3.97
4.17
4.33
4.33
4.13
3.74
3.25
2.73
2.26
1.89
1.65
1.53
1.50
1.51
1.52
1.54
1.58
1.69
1.87
2.09
2.26
2.31
2.22
2.05
1.91
1.91
2.12
2.50
2.97
3.42
3.79
4.08
4.30
4.44
4.48
4.39
4.20
4.00
3.87
3.85
3.88
3.89
3.81
3.69
3.65
3.84
4.32
5.04
5.89
6.75
7.54
8.24
8.84
9.30
9.51
9.38
8.87
8.02
6.93
5.67
4.27
2.73
1.02
-0.81
-2.73
-4.64
-6.48
-8.21
-9.76
-11.09
-12.14
-12.92
-13.48
-13.97
-14.56
-15.36
-16.39
-17.55
-18.73
-19.84
-20.89
-21.99
-23.22
-24.62
-26.15
-27.66
-29.01
-30.11
-30.95
-31.65
-32.38
-33.33
-34.67
-36.47
-38.62
-40.90
-42.97
-44.54
-45.50
-46.03
-46.57
-47.64
-49.60
-52.46
-55.89
-59.34
-62.31
-64.61
-66.47
-68.42
-71.13
-75.17
-80.76
-87.55
-94.34
-99.08
-99.16
-92.08
-76.35
-52.17
-21.51
12.37
45.96
76.48
102.31
122.99
138.67
149.60
156.03
158.25
156.99
153.42
149.06
145.24
142.78
141.80
141.80
142.05
141.94
141.27
140.27
139.46
139.47
140.85
143.88
148.42
153.69
158.08
159.27
154.55
141.60
119.29
88.30
51.21
12.02
-24.84
-55.66
-78.22
-92.18
-98.74
-99.97
-98.07
-94.82
-91.35
-88.22
-85.66
-83.67
-82.11
-80.66
-78.80
-75.96
-71.79
-66.33
-60.07
-53.78
-48.21
-43.80
-40.52
-37.98
-35.59
-32.85
-29.57
-25.92
-22.32
-19.24
-16.99
-15.57
-14.67
-13.85
-12.74
-11.18
-9.30
-7.46
-6.07
-5.40
-5.52
-6.28
-7.43
-8.66
-9.74
-10.53
-10.97
-11.04
-10.77
-10.17
-9.29
-8.23
-7.12
-6.15
-5.48
-5.21
-5.32
-5.67
-6.06
-6.24
-6.09
-5.56
-4.74
-3.73
-2.71
-1.82
-1.24
-1.08
-1.36
-1.98
-2.70
-3.22
-3.37
-3.15
-2.80
-2.66
-2.95
-3.66
-4.48
-4.88
-4.31
-2.40
0.92
5.34
10.32
15.22
19.49
22.75
24.89
25.94
26.06
25.40
24.15
22.55
20.84
19.32
18.13
17.28
16.62
15.87
14.76
13.06
10.69
7.68
4.23
0.65
-2.69
-5.44
-7.35
-8.35
-8.58
-8.25
-7.63
-6.87
-6.07
-5.25
-4.43
-3.68
-3.08
-2.75
-2.74
-3.08
-3.72
-4.59
-5.58
-6.59
-7.52
-8.29
-8.89
-9.32
-9.62
-9.86
-10.02
-10.09
-9.99
-9.62
-8.98
-8.13
-7.18
-6.28
-5.50
-4.80
-4.10
-3.28
-2.33
-1.30
-0.34
0.46
1.03
1.41
1.66
1.82
1.90
1.89
1.81
1.74
1.80
2.04
2.43
2.82
3.06
3.04
2.83
2.59
2.51
2.66
2.99
3.29
3.36
3.09
2.56
1.99
1.57
1.41
1.41
1.37
1.05
0.40
-0.48
-1.34
-1.94
-2.15
-2.07
-1.90
-1.87
-2.10
-2.53
-2.99
-3.30
-3.39
-3.29
-3.13
-3.01
-2.99
-3.08
-3.24
-3.42
-3.61
-3.80
-4.00
-4.21
-4.41
-4.60
-4.76
-4.84
-4.81
-4.59
-4.16
-3.54
-2.81
-2.04
-1.34
-0.75
-0.25
0.19
0.59
0.95
1.19
1.25
1.10
0.75
0.32
-0.03
-0.17
-0.05
0.25
0.57
0.70
0.49
-0.11
-1.01
-2.11
-3.29
-4.48
-5.69
-6.93
-8.18
-9.43
-10.62
-11.70
-12.67
-13.60
-14.60
-15.83
-17.43
-19.48
-22.04
-25.06
-28.41
-31.91
-35.39
-38.70
-41.81
-44.79
-47.81
-51.08
-54.78
-58.96
-63.52
-68.20
-72.68
-76.74
-80.39
-83.93
-87.85
-92.69
-98.76
-105.90
-113.48
-120.52
-126.05
-129.50
-130.94
-131.04
-130.64
-130.23
-129.45
-127.08
-121.22
-109.82
-91.17
-64.38
-29.59
11.81
57.21
103.05
145.46
181.06
207.73
225.00
233.93
236.48
234.85
230.92
226.16
221.60
218.05
215.91
215.16
215.29
215.47
215.02
213.74
212.10
211.05
211.63
214.55
220.01
227.57
236.25
244.49
250.20
250.94
244.38
228.89
204.11
170.98
131.30
86.88
39.01
-11.42
-63.10
-113.46
-158.54
-193.96
-216.50
-225.55
-223.40
-214.21
-202.31
-190.60
-180.01
-170.06
-159.91
-149.31
-138.78
-129.12
-120.79
-113.58
-106.71
-99.38
-91.18
-82.35
-73.62
-65.86
-59.65
-55.09
-51.78
-49.02
-46.16
-42.81
-38.96
-34.88
-30.98
-27.55
-24.71
-22.34
-20.17
-17.97
-15.57
-13.00
-10.41
-7.99
-5.83
-3.85
-1.91
0.14
2.31
4.46
6.33
7.64
8.29
8.35
8.09
7.79
7.68
7.86
8.27
8.77
9.18
9.40
9.34
9.01
8.43
7.70
6.88
6.05
5.26
4.55
3.97
3.52
3.22
3.04
2.94
2.89
2.90
3.01
3.27
3.69
4.23
4.81
5.32
5.68
5.84
5.78
5.50
4.96
4.18
3.16
1.99
0.77
-0.37
-1.32
-1.96
-2.26
-2.21
-1.91
-1.48
-1.04
-0.70
-0.45
-0.25
-0.07
0.05
-0.03
-0.48
-1.44
-2.89
-4.69
-6.62
-8.42
-9.92
-11.01
-11.67
-11.90
-11.72
-11.15
-10.22
-9.02
-7.68
-6.34
-5.13
-4.10
-3.30
-2.72
-2.37
-2.26
-2.37
-2.67
-3.07
-3.43
-3.64
-3.63
-3.36
-2.90
-2.32
-1.69
-1.07
-0.50
0.02
0.45
0.78
0.96
1.02
0.98
0.91
0.91
1.06
1.37
1.76
2.04
2.06
1.70
1.02
0.23
-0.41
-0.69
-0.56
-0.16
0.30
0.63
0.76
0.72
0.63
0.58
0.56
0.52
0.38
0.10
-0.29
-0.73
-1.13
-1.40
-1.50
-1.43
-1.21
-0.95
-0.72
-0.60
-0.60
-0.64
-0.62
-0.46
-0.14
0.27
0.63
0.78
0.65
0.29
-0.11
-0.35
-0.28
0.10
0.62
1.06
1.25
1.16
0.88
0.56
0.35
0.29
0.35
0.46
0.54
0.55
0.49
0.34
0.11
-0.17
-0.43
-0.60
-0.62
-0.47
-0.18
0.19
0.53
0.78
0.89
0.90
0.82
0.73
0.65
0.59
0.54
0.50
0.52
0.63
0.85
1.16
1.51
1.81
2.03
2.17
2.25
2.27
2.23
2.09
1.88
1.68
1.58
1.65
1.87
2.15
2.39
2.51
2.52
2.46
2.41
2.40
2.46
2.65
2.99
3.49
4.07
4.59
4.84
4.68
4.06
3.11
2.04
1.04
0.24
-0.40
-0.99
-1.74
-2.80
-4.20
-5.85
-7.56
-9.06
-10.15
-10.73
-10.78
-10.40
-9.71
-8.83
-7.83
-6.73
-5.55
-4.36
-3.26
-2.40
-1.91
-1.85
-2.17
-2.70
-3.23
-3.56
-3.57
-3.30
-2.88
-2.50
-2.31
-2.36
-2.61
-2.91
-3.13
-3.19
-3.14
-3.08
-3.15
-3.40
-3.75
-4.02
-4.02
-3.66
-3.03
-2.34
-1.80
-1.56
-1.57
-1.75
-1.96
-2.15
-2.37
-2.64
-2.97
-3.29
-3.55
-3.73
-3.94
-4.34
-5.03
-6.02
-7.19
-8.32
-9.24
-9.87
-10.21
-10.40
-10.57
-10.89
-11.50
-12.50
-13.92
-15.64
-17.41
-18.89
-19.83
-20.17
-20.10
-20.02
-20.32
-21.28
-22.95
-25.23
-28.00
-31.22
-34.91
-39.16
-43.96
-49.18
-54.61
-60.00
-65.14
-69.88
-74.11
-77.73
-80.68
-82.99
-84.75
-86.09
-87.06
-87.48
-86.89
-84.58
-79.76
-71.85
-60.78
-47.00
-31.52
-15.58
-0.34
13.41
25.43
35.91
45.25
53.78
61.62
68.62
74.52
79.17
82.57
84.82
85.97
85.97
84.67
81.99
78.13
73.53
68.80
64.34
60.25
56.25
51.92
46.99
41.57
36.18
31.55
28.42
27.28
28.23
30.95
34.77
38.82
42.21
44.28
44.69
43.53
41.17
38.10
34.76
31.39
28.12
25.01
22.09
19.41
17.01
14.87
12.92
11.11
9.42
7.90
6.62
5.61
4.89
4.38
4.01
3.69
3.35
2.94
2.41
1.78
1.10
0.46
-0.05
-0.39
-0.58
-0.68
-0.74
-0.78
-0.77
-0.69
-0.54
-0.36
-0.19
-0.04
0.06
0.12
0.12
0.07
-0.06
-0.22
-0.33
-0.27
0.06
0.69
1.53
2.41
3.15
3.56
3.57
3.21
2.59
1.83
1.01
0.11
-0.95
-2.27
-3.88
-5.67
-7.41
-8.87
-9.84
-10.24
-10.07
-9.33
-7.99
-6.00
-3.32
-0.09
3.43
6.88
9.92
12.35
14.13
15.27
15.80
15.68
14.81
13.22
11.05
8.63
6.34
4.55
3.46
3.12
3.45
4.30
5.44
6.67
7.78
8.68
9.35
9.86
10.28
10.65
10.95
11.07
10.86
10.13
8.69
6.38
3.15
-0.87
-5.31
-9.61
-13.18
-15.59
-16.69
-16.62
-15.69
-14.23
-12.46
-10.53
-8.50
-6.48
-4.60
-2.98
-1.75
-0.92
-0.38
0.02
0.44
0.96
1.57
2.14
2.55
2.69
2.55
2.21
1.80
1.42
1.11
0.82
0.49
-0.02
-0.79
-1.87
-3.21
-4.67
-6.05
-7.16
-7.92
-8.36
-8.56
-8.62
-8.55
-8.32
-7.89
-7.28
-6.62
-6.06
-5.70
-5.58
-5.59
-5.61
-5.55
-5.38
-5.12
-4.81
-4.43
-3.97
-3.44
-2.93
-2.58
-2.52
-2.78
-3.30
-3.94
-4.55
-5.02
-5.35
-5.59
-5.85
-6.23
-6.82
-7.72
-9.01
-10.75
-12.89
-15.21
-17.41
-19.17
-20.28
-20.74
-20.80
-20.82
-21.13
-21.91
-23.06
-24.39
-25.65
-26.75
-27.80
-29.06
-30.84
-33.42
-36.97
-41.44
-46.45
-51.10
-53.96
-53.27
-47.39
-35.48
-18.03
3.05
24.79
44.10
58.60
67.29
70.54
69.63
66.11
61.28
55.97
50.72
45.91
41.92
39.03
37.30
36.46
36.01
35.40
34.30
32.71
30.89
29.26
28.18
27.78
27.96
28.46
29.02
29.57
30.25
31.36
33.23
35.97
39.46
43.34
47.29
51.18
55.19
59.69
65.04
71.39
78.54
86.07
93.53
100.66
107.46
114.11
120.88
127.96
135.55
143.94
153.57
164.73
176.91
188.45
196.40
197.23
187.98
167.28
135.75
95.40
48.78
-1.65
-53.42
-103.55
-148.20
-183.23
-205.43
-213.97
-210.86
-200.31
-187.02
-174.49
-164.15
-155.67
-147.90
-139.95
-131.62
-123.22
-115.08
-107.23
-99.36
-91.11
-82.38
-73.40
-64.81
-57.23
-51.09
-46.41
-42.83
-39.74
-36.58
-33.04
-29.12
-25.16
-21.59
-18.77
-16.77
-15.39
-14.23
-12.88
-11.11
-8.95
-6.64
-4.49
-2.72
-1.37
-0.31
0.69
1.79
3.05
4.45
5.87
7.23
8.46
9.57
10.58
11.55
12.51
13.45
14.30
14.92
15.16
14.86
13.96
12.44
10.39
7.92
5.18
2.33
-0.50
-3.15
-5.49
-7.35
-8.59
-9.11
-8.94
-8.24
-7.32
-6.51
-6.09
-6.12
-6.49
-6.92
-7.17
-7.12
-6.82
-6.40
-6.02
-5.74
-5.54
-5.38
-5.26
-5.25
-5.45
-5.94
-6.68
-7.54
-8.35
-8.95
-9.28
-9.32
-9.08
-8.56
-7.73
-6.59
-5.23
-3.84
-2.65
-1.84
-1.47
-1.47
-1.64
-1.85
-2.03
-2.19
-2.42
-2.72
-3.04
-3.30
-3.41
-3.36
-3.16
-2.88
-2.59
-2.36
-2.27
-2.34
-2.58
-2.96
-3.38
-3.74
-3.99
-4.11
-4.08
-3.90
-3.55
-3.03
-2.38
-1.68
-1.03
-0.48
-0.01
0.43
0.87
1.28
1.59
1.73
1.69
1.54
1.37
1.24
1.16
1.08
0.98
0.85
0.77
0.77
0.85
0.96
1.06
1.10
1.13
1.22
1.40
1.70
2.07
2.44
2.74
2.94
2.99
2.88
2.53
1.89
0.92
-0.30
-1.62
-2.78
-3.55
-3.81
-3.56
-2.91
-2.00
-0.91
0.33
1.70
3.18
4.63
5.87
6.69
6.93
6.53
5.53
4.03
2.20
0.25
-1.68
-3.45
-5.02
-6.34
-7.35
-7.94
-8.04
-7.62
-6.79
-5.71
-4.56
-3.45
-2.42
-1.46
-0.59
0.15
0.67
0.94
1.02
0.97
0.86
0.71
0.48
0.21
-0.01
-0.03
0.25
0.84
1.57
2.24
2.67
2.83
2.77
2.63
2.49
2.38
2.29
2.22
2.17
2.18
2.24
2.31
2.30
2.15
1.87
1.53
1.22
1.01
0.91
0.88
0.79
0.57
0.19
-0.29
-0.75
-1.08
-1.23
-1.25
-1.25
-1.38
-1.71
-2.23
-2.82
-3.32
-3.64
-3.73
-3.64
-3.45
-3.22
-3.00
-2.80
-2.62
-2.46
-2.33
-2.25
-2.29
-2.52
-2.98
-3.67
-4.47
-5.18
-5.58
-5.53
-5.02
-4.21
-3.36
-2.67
-2.29
-2.19
-2.22
-2.22
-2.03
-1.59
-0.92
-0.11
0.74
1.54
2.25
2.80
3.10
3.06
2.64
1.88
0.96
0.12
-0.44
-0.65
-0.66
-0.69
-0.94
-1.46
-2.16
-2.86
-3.46
-4.01
-4.63
-5.49
-6.65
-8.11
-9.82
-11.77
-14.00
-16.52
-19.30
-22.26
-25.32
-28.50
-31.97
-35.93
-40.55
-45.79
-51.40
-57.03
-62.45
-67.65
-72.92
-78.71
-85.42
-93.25
-102.07
-111.50
-121.14
-130.72
-140.21
-149.83
-159.88
-170.66
-182.47
-195.66
-210.49
-226.76
-243.31
-257.64
-266.28
-265.72
-253.74
-230.30
-197.68
-159.43
-118.92
-78.19
-37.86
1.97
40.68
76.64
107.86
133.08
152.53
167.68
179.99
189.66
195.24
194.74
187.38
175.00
161.83
152.77
150.97
156.27
165.35
173.57
177.18
174.82
167.46
157.30
146.26
135.30
124.59
114.27
104.96
97.72
93.34
91.65
91.39
90.70
87.91
82.34
74.46
65.56
57.04
49.88
44.36
40.22
36.91
33.93
30.93
27.82
24.64
21.53
18.61
15.99
13.73
11.81
10.18
8.75
7.44
6.14
4.79
3.36
1.87
0.39
-0.97
-2.10
-2.96
-3.61
-4.18
-4.83
-5.68
-6.67
-7.64
-8.38
-8.79
-8.96
-9.18
-9.81
-11.10
-13.04
-15.32
-17.47
-19.02
-19.70
-19.55
-18.88
-18.14
-17.75
-18.01
-19.08
-21.02
-23.68
-26.58
-28.86
-29.39
-27.24
-22.16
-14.78
-6.43
1.38
7.63
12.15
15.44
18.20
20.86
23.33
25.20
26.08
25.90
25.00
23.90
23.10
22.86
23.20
23.96
24.84
25.59
26.03
26.10
25.92
25.72
25.81
26.46
27.82
29.85
32.22
34.40
35.82
36.15
35.54
34.70
34.58
36.01
39.18
43.49
47.82
50.98
52.33
52.07
51.09
50.54
51.41
54.24
59.06
65.13
70.58
72.42
67.01
51.45
25.21
-8.79
-44.54
-74.84
-93.99
-99.90
-94.46
-82.22
-68.01
-54.94
-43.80
-33.72
-23.58
-13.14
-3.25
4.73
9.83
12.12
12.85
13.95
17.16
23.24
31.53
40.26
47.24
50.80
50.51
47.29
42.92
39.36
38.21
40.51
46.59
55.82
66.15
73.89
74.05
61.88
34.88
-5.54
-53.81
-101.88
-142.02
-169.48
-183.61
-187.23
-184.66
-179.80
-175.08
-171.56
-169.42
-168.33
-167.35
-164.74
-158.09
-145.06
-124.32
-96.39
-63.75
-30.14
0.38
24.56
40.70
48.91
50.84
49.02
46.01
43.58
42.23
41.21
39.24
35.34
29.62
23.48
19.09
18.59
23.21
32.77
45.85
60.27
73.92
85.34
93.97
100.08
104.44
107.88
110.87
113.11
113.30
109.35
99.12
81.52
57.40
29.75
2.84
-19.30
-34.28
-42.05
-44.36
-43.56
-41.50
-38.97
-36.03
-32.69
-29.45
-27.21
-26.72
-28.00
-30.03
-31.16
-29.75
-24.93
-17.09
-7.73
1.09
7.58
10.84
11.24
10.17
9.41
10.37
13.48
18.12
22.96
26.60
28.28
28.19
27.36
27.19
28.80
32.53
37.96
44.08
49.84
54.58
58.25
61.37
64.76
69.31
75.77
84.61
95.76
108.11
119.07
124.70
120.79
104.59
76.52
40.71
3.98
-26.65
-46.58
-55.06
-54.95
-50.85
-46.86
-45.12
-45.68
-47.37
-49.10
-50.50
-52.04
-54.42
-58.04
-62.63
-67.27
-70.83
-72.44
-71.94
-69.91
-67.36
-65.11
-63.36
-61.57
-58.84
-54.49
-48.55
-41.88
-35.74
-31.22
-28.77
-28.05
-28.11
-27.88
-26.53
-23.79
-19.91
-15.58
-11.60
-8.58
-6.75
-5.93
-5.66
-5.38
-4.78
-3.80
-2.70
-1.81
-1.34
-1.29
-1.48
-1.70
-1.80
-1.77
-1.65
-1.51
-1.32
-1.04
-0.62
-0.05
0.60
1.23
1.69
1.85
1.66
1.13
0.38
-0.44
-1.14
-1.63
-1.90
-2.07
-2.31
-2.78
-3.52
-4.45
-5.39
-6.09
-6.39
-6.24
-5.71
-4.97
-4.18
-3.44
-2.76
-2.10
-1.42
-0.72
-0.03
0.61
1.21
1.84
2.55
3.34
4.20
5.00
5.65
6.12
6.43
6.63
6.78
6.88
6.91
6.82
6.57
6.14
5.59
4.96
4.25
3.49
2.66
1.80
1.01
0.40
0.06
0.02
0.19
0.44
0.65
0.82
1.00
1.28
1.70
2.16
2.53
2.66
2.50
2.12
1.64
1.20
0.87
0.69
0.64
0.70
0.85
1.08
1.35
1.62
1.85
2.02
2.13
2.16
2.12
2.04
1.98
1.95
2.00
2.08
2.14
2.14
2.07
1.96
1.83
1.71
1.59
1.46
1.34
1.24
1.19
1.17
1.17
1.14
1.09
1.09
1.21
1.47
1.78
1.98
1.90
1.47
0.78
0.01
-0.65
-1.07
-1.24
-1.23
-1.16
-1.08
-1.04
-1.04
-1.10
-1.25
-1.52
-1.89
-2.28
-2.59
-2.74
-2.73
-2.61
-2.47
-2.36
-2.28
-2.24
-2.21
-2.19
-2.18
-2.14
-2.03
-1.78
-1.33
-0.74
-0.11
0.39
0.60
0.47
0.04
-0.49
-0.93
-1.08
-0.86
-0.37
0.22
0.68
0.85
0.69
0.29
-0.21
-0.64
-0.93
-1.05
-1.05
-1.02
-0.98
-0.94
-0.90
-0.83
-0.74
-0.67
-0.67
-0.79
-0.99
-1.19
-1.31
-1.27
-1.07
-0.80
-0.56
-0.42
-0.38
-0.34
-0.22
0.03
0.32
0.53
0.53
0.31
-0.06
-0.41
-0.61
-0.63
-0.50
-0.32
-0.20
-0.17
-0.26
-0.42
-0.63
-0.85
-1.06
-1.29
-1.53
-1.79
-2.08
-2.35
-2.58
-2.75
-2.89
-3.05
-3.26
-3.47
-3.64
-3.72
-3.74
-3.84
-4.19
-4.88
-5.81
-6.70
-7.24
-7.22
-6.68
-5.89
-5.25
-5.05
-5.37
-6.06
-6.87
-7.60
-8.20
-8.74
-9.31
-9.88
-10.38
-10.70
-10.83
-10.85
-10.79
-10.49
-9.61
-7.74
-4.67
-0.53
4.14
8.66
12.42
15.11
16.72
17.49
17.66
17.42
16.88
16.08
15.10
14.07
13.15
12.47
12.11
12.08
12.27
12.50
12.58
12.40
11.98
11.45
10.95
10.57
10.30
10.05
9.78
9.52
9.36
9.31
9.27
8.95
8.01
6.26
3.78
0.94
-1.75
-3.79
-4.92
-5.19
-4.83
-4.14
-3.28
-2.24
-0.84
1.07
3.54
6.38
9.29
11.99
14.37
16.57
18.84
21.47
24.56
28.00
31.55
34.93
38.00
40.79
43.50
46.30
49.27
52.24
54.87
56.79
57.83
58.06
57.86
57.68
57.93
58.87
60.61
63.28
67.06
72.10
78.37
85.59
93.23
100.83
108.44
116.87
127.39
140.89
156.83
172.55
183.72
185.55
174.45
149.22
111.23
63.89
11.70
-40.55
-88.16
-126.94
-153.70
-166.99
-167.66
-158.74
-144.63
-129.72
-117.29
-108.93
-104.82
-104.30
-106.33
-109.83
-113.68
-116.86
-118.52
-118.25
-116.09
-112.45
-107.92
-103.01
-98.01
-93.00
-87.89
-82.56
-76.99
-71.30
-65.72
-60.46
-55.65
-51.23
-46.99
-42.69
-38.18
-33.56
-29.08
-25.07
-21.76
-19.13
-16.92
-14.77
-12.36
-9.59
-6.64
-3.77
-1.28
0.71
2.24
3.43
4.33
4.85
4.81
4.05
2.57
0.60
-1.52
-3.43
-5.01
-6.43
-8.10
-10.53
-14.00
-18.46
-23.48
-28.40
-32.68
-35.99
-38.44
-40.40
-42.30
-44.48
-47.12
-50.25
-53.62
-56.67
-58.45
-57.91
-54.31
-47.77
-39.46
-31.36
-25.51
-23.14
-24.30
-27.95
-32.67
-37.31
-41.43
-45.12
-48.58
-51.73
-54.21
-55.56
-55.57
-54.42
-52.53
-50.33
-48.05
-45.62
-42.77
-39.29
-35.11
-30.26
-24.63
-17.81
-9.07
2.22
16.18
32.03
48.22
62.97
74.97
83.82
90.14
95.22
100.55
107.42
116.62
128.30
141.90
156.22
169.68
180.82
188.76
193.51
195.85
196.77
196.99
196.65
195.58
193.82
191.95
190.77
190.51
190.10
187.31
179.55
165.30
144.96
120.82
95.76
71.77
49.04
26.26
1.92
-24.37
-51.27
-76.31
-97.05
-112.21
-121.94
-127.36
-129.77
-130.09
-128.80
-126.21
-122.62
-118.41
-113.96
-109.49
-104.98
-100.28
-95.18
-89.58
-83.43
-76.83
-70.00
-63.26
-57.02
-51.63
-47.28
-43.88
-41.08
-38.35
-35.20
-31.36
-26.90
-22.19
-17.80
-14.25
-11.86
-10.68
-10.51
-11.03
-11.89
-12.78
-13.43
-13.62
-13.18
-12.06
-10.41
-8.55
-6.88
-5.74
-5.21
-5.05
-4.77
-3.87
-2.05
0.57
3.48
6.01
7.60
8.03
7.56
6.68
5.94
5.72
6.21
7.45
9.35
11.54
13.26
13.51
11.38
6.59
-0.24
-7.66
-14.03
-18.16
-19.83
-19.69
-18.82
-18.09
-17.83
-17.88
-17.94
-17.88
-17.85
-18.06
-18.49
-18.71
-17.97
-15.51
-10.91
-4.43
3.02
10.11
15.61
18.85
19.86
19.31
18.09
16.87
15.85
14.82
13.45
11.58
9.39
7.25
5.54
4.41
3.78
3.46
3.38
3.55
4.02
4.64
5.06
4.79
3.50
1.24
-1.55
-4.23
-6.20
-7.19
-7.25
-6.67
-5.80
-4.91
-4.18
-3.70
-3.56
-3.76
-4.25
-4.89
-5.49
-5.85
-5.86
-5.56
-5.09
-4.76
-4.86
-5.53
-6.63
-7.71
-8.13
-7.33
-5.11
-1.78
1.87
4.90
6.55
6.50
4.95
2.41
-0.56
-3.52
-6.29
-8.78
-10.87
-12.38
-13.08
-12.83
-11.71
-10.05
-8.31
-6.92
-6.11
-5.85
-5.87
-5.79
-5.25
-4.07
-2.26
-0.08
2.13
4.01
5.34
6.08
6.38
6.45
6.47
6.45
6.31
5.88
5.08
3.97
2.77
1.73
1.03
0.66
0.42
0.02
-0.81
-2.17
-3.98
-5.92
-7.60
-8.67
-8.86
-8.13
-6.63
-4.65
-2.60
-0.97
-0.19
-0.62
-2.36
-5.19
-8.61
-11.85
-14.19
-15.08
-14.38
-12.43
-9.91
-7.59
-6.09
-5.60
-5.85
-6.25
-6.10
-4.99
-2.89
-0.18
2.59
4.95
6.70
7.91
8.77
9.38
9.64
9.29
8.01
5.61
2.15
-2.06
-6.57
-10.91
-14.73
-17.87
-20.44
-22.76
-25.27
-28.45
-32.60
-37.82
-43.85
-50.11
-55.89
-60.57
-63.90
-66.17
-68.10
-70.63
-74.57
-80.25
-87.49
-95.52
-103.33
-109.97
-114.92
-118.38
-121.35
-125.43
-132.13
-141.98
-153.73
-164.18
-168.92
-163.64
-145.66
-114.62
-72.48
-22.79
30.18
82.21
129.63
169.70
200.91
223.02
236.90
244.02
245.95
244.14
240.23
236.29
234.81
238.04
246.89
260.42
275.89
289.73
298.58
299.99
292.49
275.26
247.96
210.77
164.65
111.24
52.57
-9.32
-72.51
-134.83
-193.55
-245.34
-287.00
-316.62
-334.51
-343.34
-347.17
-349.91
-353.92
-359.54
-365.56
-370.49
-373.43
-374.24
-372.83
-368.32
-358.76
-341.69
-315.54
-280.59
-239.35
-195.61
-152.93
-113.26
-76.46
-40.70
-3.55
37.00
81.74
129.73
178.30
223.51
261.01
287.33
301.02
303.10
296.60
285.39
272.91
261.38
251.71
243.98
238.00
233.54
230.27
227.65
225.00
221.83
218.21
214.81
212.63
212.51
214.76
219.02
224.47
230.20
235.58
240.49
245.39
251.27
259.47
271.18
286.81
305.32
323.90
338.41
344.62
339.66
323.21
297.55
266.67
234.60
203.99
175.57
148.50
121.46
93.59
64.94
36.08
7.60
-20.46
-48.64
-77.74
-108.42
-140.99
-175.61
-212.47
-251.73
-293.00
-334.66
-373.60
-405.75
-427.38
-436.54
-433.86
-422.33
-406.09
-388.95
-373.45
-360.74
-351.01
-344.09
-339.71
-337.44
-336.65
-336.59
-336.74
-337.13
-338.43
-341.60
-347.38
-355.61
-364.79
-372.15
-374.25
-368.12
-352.27
-327.27
-295.47
-260.00
-223.53
-187.44
-151.78
-116.00
-79.77
-43.51
-8.21
25.28
56.88
87.52
118.82
152.51
189.86
231.19
275.40
319.98
361.27
395.32
419.05
431.29
433.16
427.50
417.71
406.46
395.07
383.73
372.34
361.31
351.74
345.15
342.82
345.16
351.39
359.52
366.54
368.85
363.12
347.27
321.09
286.41
246.32
203.77
160.35
115.84
69.07
19.61
-30.83
-78.03
-116.55
-141.77
-151.80
-148.15
-134.75
-116.43
-97.55
-81.64
-71.75
-70.75
-80.85
-102.36
-132.72
-166.59
-197.37
-219.52
-230.42
-230.72
-223.35
-211.81
-198.94
-186.53
-175.68
-167.30
-162.03
-159.92
-160.03
-160.62
-159.82
-156.59
-151.32
-145.62
-141.67
-141.05
-143.99
-149.24
-154.75
-158.53
-159.70
-158.78
-157.36
-157.42
-160.52
-167.51
-178.28
-191.70
-205.37
-215.66
-218.39
-210.32
-190.94
-163.46
-134.31
-110.71
-97.62
-95.46
-100.10
-105.00
-104.42
-95.85
-80.25
-60.43
-38.73
-15.39
11.42
44.15
84.10
130.13
178.56
224.23
262.05
288.56
302.85
306.48
302.67
294.96
285.99
276.84
267.38
257.02
245.68
234.25
224.20
216.89
212.73
211.08
210.46
209.30
206.45
201.38
194.09
184.85
173.95
161.58
147.75
132.32
115.07
95.73
73.81
48.54
18.98
-15.50
-54.53
-96.13
-136.79
-172.17
-198.43
-213.42
-217.43
-212.97
-203.69
-193.27
-184.44
-178.70
-176.68
-178.65
-184.65
-194.03
-204.99
-214.03
-216.36
-207.20
-183.67
-146.16
-98.63
-47.18
2.11
45.28
81.23
111.08
136.50
158.37
176.35
189.49
197.34
200.66
201.37
201.86
204.05
208.85
216.00
224.44
232.90
240.35
246.28
250.67
253.84
256.09
257.69
258.97
260.39
262.44
265.26
268.18
269.52
266.87
258.00
241.74
218.43
189.56
156.83
121.23
82.77
41.21
-2.72
-46.40
-85.53
-115.37
-132.65
-136.96
-131.23
-120.94
-112.61
-112.04
-122.79
-145.13
-176.01
-209.86
-240.24
-261.79
-271.79
-270.59
-260.91
-246.28
-229.57
-212.39
-195.40
-179.08
-164.24
-151.92
-142.71
-136.20
-130.99
-125.27
-117.76
-108.33
-97.98
-88.36
-80.90
-76.19
-73.79
-72.58
-71.27
-69.06
-65.86
-62.23
-59.00
-56.81
-55.81
-55.59
-55.39
-54.42
-52.20
-48.75
-44.62
-40.81
-38.44
-38.52
-41.56
-47.46
-55.42
-64.25
-72.73
-80.09
-86.19
-91.43
-96.48
-101.88
-107.89
-114.42
-121.14
-127.59
-133.31
-138.04
-141.93
-145.73
-150.75
-158.52
-170.09
-185.29
-202.28
-217.75
-227.76
-228.94
-219.57
-199.95
-172.15
-139.08
-103.53
-67.43
-31.56
4.30
41.08
79.84
121.13
164.24
206.90
245.41
275.66
294.39
300.41
294.97
281.22
262.95
243.37
224.42
206.89
190.92
176.52
163.74
152.46
142.26
132.43
122.27
111.49
100.38
89.69
80.33
72.89
67.42
63.36
59.81
55.86
50.96
45.08
38.70
32.52
27.17
22.95
19.81
17.38
15.21
12.96
10.50
7.95
5.61
3.73
2.43
1.63
1.10
0.58
-0.04
-0.70
-1.25
-1.54
-1.56
-1.40
-1.23
-1.14
-1.12
-1.08
-0.91
-0.59
-0.18
0.19
0.44
0.52
0.49
0.45
0.49
0.61
0.80
1.00
1.15
1.23
1.25
1.23
1.21
1.18
1.18
1.28
1.55
2.04
2.72
3.46
4.01
4.16
3.83
3.16
2.46
2.07
2.22
2.89
3.80
4.62
5.06
5.04
4.79
4.61
4.81
5.54
6.69
8.01
9.17
9.99
10.36
10.41
10.31
10.28
10.55
11.36
12.94
15.25
17.80
19.56
19.26
15.88
9.34
0.67
-8.26
-15.49
-19.82
-21.14
-20.35
-18.67
-17.01
-15.68
-14.47
-13.10
-11.51
-9.95
-8.75
-8.08
-7.81
-7.60
-7.14
-6.21
-4.94
-3.62
-2.62
-2.17
-2.30
-2.80
-3.33
-3.62
-3.52
-3.12
-2.66
-2.42
-2.56
-3.08
-3.78
-4.34
-4.47
-4.03
-3.09
-1.89
-0.74
0.16
0.74
1.12
1.50
2.04
2.78
3.61
4.34
4.81
4.97
4.90
4.82
4.93
5.38
6.21
7.34
8.65
9.99
11.25
12.33
13.22
13.97
14.75
15.77
17.23
19.22
21.66
24.27
26.75
28.91
30.85
32.92
35.58
39.17
43.74
48.95
54.26
59.17
63.54
67.69
72.29
78.09
85.55
94.62
104.69
114.96
124.69
133.57
141.84
150.14
159.31
170.22
183.69
200.25
219.76
240.87
260.74
275.42
280.89
274.42
255.60
226.44
190.52
151.53
112.11
73.38
35.25
-2.70
-40.63
-78.27
-115.26
-151.68
-188.45
-227.28
-270.12
-318.19
-370.84
-424.98
-475.48
-516.64
-543.98
-555.57
-552.39
-537.43
-514.26
-486.10
-455.69
-425.76
-399.38
-379.42
-367.30
-361.81
-358.88
-352.87
-338.67
-313.62
-278.28
-235.69
-189.89
-144.26
-100.77
-59.92
-21.40
15.49
51.52
87.83
125.92
167.31
212.70
260.99
308.91
351.56
384.00
403.10
408.86
404.34
394.34
383.45
374.48
368.00
363.07
358.48
353.78
349.51
346.73
346.41
348.99
354.44
362.29
371.58
380.62
387.01
387.85
380.62
363.91
338.01
304.69
266.58
226.28
185.84
146.59
109.31
74.38
41.77
10.94
-19.33
-50.76
-85.23
-124.10
-167.41
-213.30
-257.90
-296.18
-323.38
-336.70
-336.30
-325.21
-307.94
-288.79
-270.36
-253.34
-237.13
-221.08
-205.26
-190.54
-177.88
-167.65
-159.25
-151.41
-142.92
-133.24
-122.76
-112.69
-104.33
-98.53
-95.26
-93.63
-92.27
-90.01
-86.37
-81.85
-77.71
-75.39
-75.86
-79.13
-84.18
-89.44
-93.45
-95.60
-96.35
-97.04
-99.29
-104.35
-112.64
-123.68
-136.17
-148.07
-156.80
-159.78
-155.47
-144.37
-129.66
-116.46
-109.97
-113.05
-124.53
-139.35
-150.48
-151.65
-139.47
-113.91
-77.50
-33.88
12.92
58.82
99.45
130.54
148.77
152.84
143.69
123.83
96.38
64.39
30.90
-0.39
-24.92
-37.93
-35.78
-17.17
16.60
62.27
115.59
172.00
226.77
275.08
312.52
336.09
345.44
343.33
335.01
326.46
322.44
325.01
333.18
343.35
350.49
349.72
337.59
313.23
278.38
236.74
192.43
148.35
105.03
60.65
12.10
-42.77
-103.06
-163.65
-215.89
-249.87
-257.43
-234.87
-184.27
-113.23
-33.00
43.98
106.63
147.13
161.85
151.27
119.06
70.75
12.54
-49.34
-108.86
-160.39
-199.18
-222.47
-230.60
-227.17
-217.77
-207.81
-200.35
-195.28
-190.26
-182.62
-171.31
-157.68
-144.79
-135.83
-132.69
-135.19
-141.41
-148.65
-154.52
-157.93
-159.40
-160.64
-163.72
-170.12
-180.04
-192.19
-204.15
-212.97
-215.89
-210.92
-197.09
-174.50
-144.17
-107.60
-66.48
-22.13
24.77
74.23
126.58
181.75
238.42
293.76
343.94
385.23
415.40
434.56
445.07
450.35
453.17
454.12
451.36
441.62
421.99
391.67
352.33
307.48
260.68
214.12
167.98
121.00
71.50
18.46
-37.89
-96.01
-153.38
-207.02
-254.02
-292.16
-320.46
-339.30
-350.16
-354.83
-354.87
-351.31
-344.93
-336.77
-328.31
-321.34
-317.31
-316.80
-319.29
-323.29
-326.66
-327.00
-321.97
-309.64
-289.08
-260.58
-225.56
-186.09
-144.01
-100.26
-54.66
-6.48
44.57
97.31
148.70
194.43
230.19
253.19
263.12
262.12
253.71
241.41
227.53
212.98
197.79
182.03
166.39
152.07
140.09
130.66
122.94
115.50
107.06
97.13
86.17
75.31
65.82
58.43
53.17
49.40
46.17
42.64
38.40
33.55
28.56
24.03
20.39
17.74
15.86
14.32
12.68
10.71
8.45
6.24
4.44
3.30
2.84
2.77
2.73
2.44
1.82
1.02
0.33
-0.05
-0.04
0.26
0.66
0.98
1.14
1.14
1.08
1.02
1.00
1.07
1.22
1.48
1.81
2.13
2.26
2.04
1.38
0.34
-0.88
-1.99
-2.79
-3.23
-3.41
-3.48
-3.53
-3.54
-3.39
-2.95
-2.25
-1.44
-0.79
-0.48
-0.58
-0.97
-1.45
-1.79
-1.89
-1.77
-1.53
-1.29
-1.14
-1.10
-1.13
-1.17
-1.17
-1.08
-0.89
-0.61
-0.29
-0.00
0.20
0.30
0.32
0.30
0.27
0.24
0.18
0.09
-0.00
-0.05
0.01
0.16
0.35
0.48
0.46
0.28
0.01
-0.24
-0.37
-0.34
-0.17
0.07
0.30
0.45
0.49
0.39
0.17
-0.12
-0.44
-0.69
-0.81
-0.74
-0.49
-0.12
0.28
0.60
0.80
0.87
0.86
0.80
0.71
0.54
0.24
-0.21
-0.75
-1.24
-1.58
-1.69
-1.59
-1.40
-1.22
-1.11
-1.09
-1.07
-1.00
-0.83
-0.58
-0.27
0.03
0.28
0.42
0.45
0.36
0.22
0.13
0.18
0.38
0.69
0.99
1.16
1.12
0.88
0.51
0.13
-0.11
-0.15
0.03
0.40
0.87
1.32
1.63
1.72
1.56
1.18
0.66
0.13
-0.28
-0.50
-0.49
-0.33
-0.09
0.12
0.26
0.31
0.27
0.15
-0.06
-0.34
-0.65
-0.91
-1.04
-0.99
-0.79
-0.51
-0.27
-0.17
-0.21
-0.37
-0.54
-0.67
-0.73
-0.72
-0.68
-0.62
-0.52
-0.39
-0.22
-0.03
0.16
0.30
0.44
0.61
0.84
1.13
1.41
1.56
1.48
1.15
0.63
0.08
-0.32
-0.48
-0.40
-0.19
0.00
0.10
0.08
-0.01
-0.10
-0.12
-0.06
0.03
0.12
0.13
0.05
-0.14
-0.43
-0.77
-1.07
-1.24
-1.24
-1.07
-0.80
-0.55
-0.39
-0.37
-0.44
-0.54
-0.61
-0.60
-0.51
-0.36
-0.19
-0.05
0.05
0.12
0.15
0.18
0.22
0.26
0.29
0.29
0.24
0.12
-0.04
-0.22
-0.41
-0.56
-0.65
-0.65
-0.53
-0.28
0.07
0.46
0.78
0.96
0.98
0.86
0.67
0.47
0.32
0.22
0.17
0.12
0.08
0.06
0.07
0.09
0.08
0.02
-0.08
-0.17
-0.16
-0.01
0.23
0.46
0.55
0.39
-0.01
-0.52
-0.95
-1.15
-1.06
-0.76
-0.38
-0.08
0.07
0.10
0.11
0.18
0.35
0.58
0.79
0.86
0.76
0.52
0.23
0.03
0.01
0.16
0.39
0.56
0.54
0.31
-0.03
-0.35
-0.49
-0.42
-0.21
0.02
0.16
0.15
0.05
-0.09
-0.17
-0.17
-0.06
0.14
0.41
0.71
0.97
1.09
1.01
0.71
0.29
-0.12
-0.38
-0.45
-0.36
-0.19
-0.05
0.03
0.05
0.07
0.11
0.18
0.26
0.33
0.40
0.45
0.47
0.40
0.22
-0.06
-0.38
-0.65
-0.79
-0.76
-0.56
-0.28
0.04
0.31
0.47
0.48
0.34
0.08
-0.26
-0.57
-0.77
-0.82
-0.73
-0.53
-0.29
-0.05
0.15
0.27
0.30
0.18
-0.05
-0.32
-0.53
-0.58
-0.43
-0.13
0.19
0.42
0.50
0.46
0.40
0.41
0.53
0.70
0.86
0.91
0.82
0.64
0.41
0.22
0.08
-0.03
-0.15
-0.34
-0.57
-0.75
-0.77
-0.53
-0.11
0.36
0.67
0.69
0.42
0.00
-0.38
-0.61
-0.66
-0.61
-0.58
-0.60
-0.67
-0.72
-0.67
-0.54
-0.37
-0.23
-0.17
-0.17
-0.19
-0.19
-0.15
-0.11
-0.09
-0.13
-0.21
-0.31
-0.42
-0.56
-0.75
-0.98
-1.18
-1.26
-1.15
-0.87
-0.51
-0.24
-0.16
-0.26
-0.42
-0.49
-0.34
0.01
0.44
0.76
0.86
0.69
0.33
-0.07
-0.36
-0.47
-0.40
-0.23
-0.03
0.13
0.19
0.13
-0.05
-0.31
-0.58
-0.75
-0.71
-0.44
-0.05
0.32
0.50
0.39
0.09
-0.21
-0.31
-0.08
0.40
0.93
1.28
1.34
1.13
0.81
0.56
0.47
0.53
0.61
0.58
0.38
0.09
-0.17
-0.24
-0.10
0.19
0.46
0.58
0.51
0.32
0.12
-0.02
-0.12
-0.23
-0.38
-0.52
-0.54
-0.33
0.09
0.59
0.96
1.05
0.84
0.46
0.10
-0.14
-0.21
-0.21
-0.20
-0.22
-0.19
-0.05
0.27
0.74
1.22
1.57
1.69
1.58
1.37
1.26
1.40
1.85
2.50
3.14
3.55
3.61
3.41
3.24
3.43
4.22
5.63
7.37
9.00
10.08
10.37
10.05
9.61
9.70
10.84
13.16
16.27
19.38
21.69
22.74
22.72
22.40
22.83
24.80
28.45
33.08
37.51
40.58
41.70
41.06
39.60
38.52
38.97
41.79
47.41
55.58
64.94
72.65
74.77
67.45
48.84
20.46
-12.77
-44.12
-67.68
-80.60
-83.79
-80.77
-75.54
-70.71
-66.89
-63.36
-59.40
-55.14
-51.55
-49.72
-50.01
-51.75
-53.58
-54.12
-52.68
-49.56
-45.86
-42.97
-41.93
-43.06
-45.91
-49.52
-52.89
-55.33
-56.67
-57.24
-57.69
-58.74
-60.95
-64.60
-69.59
-75.48
-81.71
-87.72
-93.01
-97.26
-100.19
-101.61
-101.55
-100.52
-99.36
-98.87
-98.93
-97.85
-92.36
-78.61
-53.90
-18.20
25.19
70.48
111.18
142.19
161.13
168.49
166.84
159.49
149.48
139.02
129.41
121.32
114.89
110.03
106.41
103.66
101.39
99.36
97.56
96.13
95.18
94.62
93.78
91.31
85.24
73.53
54.84
29.41
-0.65
-31.68
-59.53
-80.90
-94.34
-100.45
-101.25
-99.14
-95.95
-92.61
-89.38
-86.42
-84.11
-82.90
-82.82
-82.82
-80.96
-74.89
-63.07
-45.56
-24.41
-2.86
15.86
29.71
38.43
43.18
45.58
46.81
47.17
46.32
43.91
40.06
35.54
31.32
28.15
26.21
25.09
24.13
22.69
20.51
17.69
14.62
11.72
9.28
7.37
5.81
4.35
2.87
1.47
0.44
0.10
0.57
1.63
2.80
3.59
3.72
3.32
2.83
2.78
3.49
4.95
6.83
8.70
10.23
11.26
11.83
12.04
11.99
11.76
11.43
11.15
11.09
11.42
12.15
13.17
14.24
15.13
15.72
16.05
16.30
16.64
17.14
17.76
18.41
19.00
19.50
19.97
20.44
20.93
21.42
21.88
22.34
22.83
23.33
23.74
23.86
23.46
22.43
20.89
19.15
17.65
16.70
16.30
16.16
15.81
14.94
13.64
12.32
11.50
11.44
11.81
11.81
10.50
7.30
2.28
-3.93
-10.48
-16.85
-23.09
-29.88
-38.25
-49.14
-63.12
-80.13
-99.42
-119.50
-138.10
-152.35
-159.21
-156.26
-142.53
-119.03
-88.75
-55.89
-24.74
1.41
20.91
33.77
41.08
44.38
45.07
44.22
42.60
40.82
39.34
38.41
38.00
37.81
37.42
36.45
34.72
32.43
30.07
28.23
27.38
27.73
29.09
30.99
32.83
34.15
34.74
34.73
34.43
34.20
34.25
34.61
35.13
35.56
35.70
35.47
34.90
34.14
33.44
33.08
33.37
34.57
36.79
39.95
43.76
47.86
52.02
56.28
60.86
65.99
71.55
76.99
81.46
84.28
85.39
85.59
86.26
88.80
93.98
101.70
111.19
121.50
131.88
141.91
151.16
159.09
165.11
169.12
172.11
176.18
183.89
196.92
214.77
234.29
250.48
258.26
254.37
238.47
212.99
181.84
148.67
115.77
83.75
52.12
20.22
-12.21
-44.92
-77.59
-110.22
-143.30
-177.59
-213.65
-251.63
-291.46
-333.20
-377.32
-424.48
-474.80
-526.98
-577.74
-622.07
-654.34
-669.88
-666.29
-644.11
-606.40
-557.64
-502.63
-445.79
-390.96
-341.27
-298.90
-264.54
-236.97
-213.24
-189.54
-162.53
-130.46
-93.49
-53.17
-11.25
31.24
74.07
117.15
159.70
199.87
235.29
264.00
285.33
300.00
309.55
315.45
318.43
318.38
315.07
308.71
300.34
291.53
283.60
277.01
271.20
265.08
257.81
249.38
240.53
232.27
224.97
217.99
209.68
197.87
180.48
155.85
123.16
82.70
36.39
-12.07
-57.72
-95.64
-122.63
-138.28
-144.91
-146.20
-145.38
-144.08
-142.34
-139.78
-136.74
-134.55
-134.96
-138.99
-146.37
-155.78
-165.48
-173.57
-177.82
-175.38
-163.27
-139.63
-105.47
-65.41
-26.75
3.06
19.23
21.13
11.79
-4.18
-22.47
-39.86
-53.51
-60.00
-55.41
-36.82
-4.44
37.29
80.61
117.36
142.33
155.21
160.11
162.98
168.38
177.58
188.57
197.90
202.91
203.04
199.84
195.81
193.10
192.54
193.37
193.49
189.98
179.62
159.42
127.51
84.05
31.92
-23.34
-74.84
-116.23
-143.61
-156.51
-157.54
-151.01
-141.21
-131.24
-122.62
-115.73
-110.47
-106.79
-104.69
-104.07
-104.43
-104.96
-104.75
-103.16
-100.00
-95.57
-90.52
-85.56
-81.22
-77.67
-74.79
-72.28
-69.92
-67.68
-65.68
-64.09
-62.86
-61.74
-60.32
-58.28
-55.69
-53.03
-51.12
-50.44
-50.50
-49.44
-44.40
-32.57
-12.70
13.94
43.60
71.25
92.48
105.06
109.40
107.83
103.18
97.55
91.87
86.22
80.58
75.25
70.79
67.66
65.84
64.72
63.47
61.42
58.45
55.01
51.89
49.81
48.94
48.86
48.63
47.18
43.79
38.41
31.70
24.79
18.82
14.53
12.05
11.00
10.76
10.79
10.77
10.57
10.10
9.20
7.67
5.48
2.86
0.33
-1.51
-2.30
-2.07
-1.26
-0.50
-0.40
-1.39
-3.74
-7.53
-12.65
-18.69
-24.97
-30.61
-34.80
-37.08
-37.53
-36.65
-35.12
-33.51
-32.09
-30.87
-29.75
-28.64
-27.55
-26.50
-25.47
-24.43
-23.32
-22.12
-20.91
-19.84
-19.06
-18.67
-18.67
-18.95
-19.36
-19.68
-19.68
-19.23
-18.27
-16.89
-15.28
-13.62
-12.04
-10.45
-8.56
-5.97
-2.30
2.61
8.60
15.10
21.38
26.72
30.68
33.20
34.57
35.21
35.47
35.49
35.29
34.86
34.32
33.94
34.03
34.81
36.29
38.22
40.28
42.14
43.62
44.73
45.66
46.68
48.06
49.99
52.44
55.16
57.63
59.20
59.29
57.63
54.38
50.19
46.00
42.78
41.19
41.38
42.89
44.81
45.99
45.43
42.56
37.46
30.77
23.42
16.30
9.99
4.72
0.56
-2.31
-3.51
-2.55
0.85
6.51
13.71
21.33
28.07
32.69
34.13
31.57
24.60
13.42
-1.01
-17.05
-32.72
-46.34
-56.99
-64.65
-69.94
-73.66
-76.36
-78.22
-79.16
-79.15
-78.35
-77.02
-75.44
-73.64
-71.46
-68.68
-65.23
-61.28
-57.20
-53.38
-50.02
-47.11
-44.44
-41.77
-38.94
-35.94
-32.88
-29.96
-27.33
-25.03
-23.00
-21.12
-19.23
-17.23
-15.11
-12.90
-10.72
-8.64
-6.74
-5.05
-3.62
-2.47
-1.64
-1.14
-0.90
-0.84
-0.80
-0.69
-0.44
-0.09
0.29
0.62
0.85
1.04
1.23
1.49
1.80
2.03
2.05
1.76
1.20
0.54
0.02
-0.19
-0.07
0.22
0.47
0.50
0.26
-0.14
-0.57
-0.90
-1.12
-1.28
-1.42
-1.53
-1.55
-1.40
-1.12
-0.79
-0.55
-0.47
-0.53
-0.57
-0.47
-0.18
0.21
0.51
0.55
0.28
-0.24
-0.83
-1.31
-1.55
-1.55
-1.39
-1.16
-0.97
-0.87
-0.89
-1.01
-1.16
-1.29
-1.35
-1.31
-1.20
-1.07
-0.93
-0.72
-0.38
0.15
0.85
1.57
2.13
2.37
2.30
2.02
1.77
1.68
1.78
1.97
2.09
2.02
1.75
1.36
0.92
0.50
0.11
-0.24
-0.49
-0.60
-0.50
-0.22
0.17
0.55
0.85
1.03
1.10
1.10
1.04
0.95
0.82
0.69
0.59
0.52
0.49
0.43
0.30
0.08
-0.21
-0.49
-0.71
-0.80
-0.76
-0.63
-0.49
-0.40
-0.38
-0.43
-0.49
-0.50
-0.44
-0.35
-0.27
-0.26
-0.34
-0.51
-0.73
-0.98
-1.24
-1.52
-1.79
-2.00
-2.10
-2.06
-1.87
-1.56
-1.17
-0.74
-0.28
0.17
0.61
0.98
1.27
1.45
1.48
1.37
1.12
0.79
0.48
0.29
0.24
0.32
0.42
0.44
0.34
0.15
0.00
0.01
0.23
0.59
0.98
1.26
1.32
1.15
0.82
0.41
-0.02
-0.38
-0.67
-0.86
-0.95
-0.97
-0.94
-0.88
-0.83
-0.81
-0.82
-0.87
-0.90
-0.89
-0.80
-0.61
-0.34
-0.02
0.31
0.62
0.88
1.06
1.15
1.12
0.97
0.72
0.42
0.11
-0.16
-0.35
-0.46
-0.47
-0.38
-0.20
0.01
0.19
0.28
0.26
0.14
-0.01
-0.12
-0.13
-0.04
0.14
0.37
0.60
0.77
0.84
0.77
0.54
0.17
-0.29
-0.72
-0.99
-1.00
-0.73
-0.25
0.24
0.58
0.63
0.40
0.03
-0.31
-0.45
-0.33
0.02
0.44
0.81
1.03
1.08
0.97
0.76
0.50
0.26
0.10
0.04
0.10
0.25
0.37
0.39
0.21
-0.12
-0.51
-0.80
-0.88
-0.74
-0.50
-0.28
-0.18
-0.19
-0.24
-0.27
-0.23
-0.14
-0.03
0.08
0.20
0.31
0.41
0.43
0.34
0.14
-0.11
-0.30
-0.39
-0.35
-0.23
-0.08
0.04
0.11
0.15
0.17
0.18
0.21
0.29
0.43
0.62
0.81
0.96
1.02
0.98
0.86
0.68
0.47
0.26
0.11
0.06
0.18
0.46
0.82
1.11
1.20
1.04
0.69
0.28
-0.03
-0.16
-0.14
-0.04
0.05
0.12
0.15
0.16
0.12
-0.02
-0.29
-0.64
-0.97
-1.14
-1.07
-0.78
-0.40
-0.08
0.04
-0.08
-0.41
-0.87
-1.34
-1.71
-1.91
-1.91
-1.71
-1.41
-1.11
-0.91
-0.84
-0.91
-1.05
-1.18
-1.25
-1.19
-0.99
-0.65
-0.22
0.18
0.45
0.49
0.28
-0.08
-0.45
-0.71
-0.80
-0.77
-0.71
-0.72
-0.81
-0.90
-0.92
-0.81
-0.58
-0.31
-0.09
0.01
-0.01
-0.06
-0.03
0.16
0.53
0.98
1.37
1.59
1.57
1.38
1.12
0.92
0.84
0.90
1.04
1.19
1.26
1.21
1.02
0.67
0.19
-0.38
-0.97
-1.52
-1.98
-2.35
-2.65
-2.96
-3.34
-3.81
-4.33
-4.81
-5.20
-5.53
-5.90
-6.44
-7.21
-8.17
-9.16
-10.01
-10.68
-11.25
-11.98
-13.16
-14.93
-17.22
-19.74
-22.12
-24.07
-25.60
-26.98
-28.75
-31.40
-35.23
-40.10
-45.51
-50.80
-55.44
-59.34
-62.92
-66.98
-72.31
-79.31
-87.77
-96.91
-105.76
-113.53
-120.03
-125.78
-131.78
-139.18
-148.95
-161.64
-177.21
-194.72
-212.19
-226.63
-234.54
-232.85
-219.96
-196.28
-164.03
-126.28
-85.67
-43.47
0.46
46.82
95.47
144.46
190.07
227.88
254.43
268.58
271.80
267.33
258.71
248.50
237.75
226.51
214.80
203.27
193.22
185.86
181.51
179.26
177.44
174.31
168.82
160.76
150.74
139.89
129.61
121.42
116.40
114.63
114.77
114.28
110.48
102.06
90.02
77.51
68.48
65.75
69.71
78.37
88.61
98.00
105.88
113.29
121.99
133.23
147.06
162.42
177.67
191.17
201.34
206.55
205.21
196.02
178.58
153.82
123.79
90.94
57.16
23.25
-10.97
-46.03
-81.92
-117.62
-151.15
-180.12
-202.56
-217.38
-224.73
-225.79
-222.42
-216.64
-210.15
-203.93
-198.11
-192.12
-185.13
-176.52
-166.28
-155.12
-144.31
-135.19
-128.72
-125.00
-123.18
-121.84
-119.70
-116.33
-112.45
-109.70
-109.74
-113.23
-119.20
-125.16
-128.13
-125.99
-118.74
-108.85
-100.50
-98.27
-105.23
-121.42
-143.38
-164.55
-176.78
-172.52
-147.14
-101.25
-41.67
19.08
65.96
86.47
75.59
38.53
-10.35
-52.56
-72.41
-62.78
-27.35
21.95
70.46
106.69
125.65
128.72
120.70
106.48
89.07
69.71
49.30
29.55
13.21
2.67
-1.60
-1.79
-2.20
-7.02
-18.19
-34.34
-51.47
-65.05
-72.23
-73.08
-70.53
-68.81
-71.52
-80.26
-94.13
-110.33
-125.29
-135.57
-138.72
-133.76
-121.38
-103.81
-84.12
-64.85
-46.58
-27.41
-3.88
26.87
64.78
105.97
143.87
171.99
186.73
188.76
182.14
172.01
162.06
153.50
145.60
137.17
127.90
118.65
110.83
105.42
102.34
100.50
98.53
95.52
91.40
86.90
82.95
80.12
78.39
77.51
77.53
79.25
84.11
93.46
107.79
126.12
146.25
165.56
182.00
194.80
204.57
212.73
220.93
230.53
242.47
257.20
274.43
292.76
309.55
321.27
324.47
316.94
298.53
271.14
237.93
202.13
166.17
131.29
97.81
65.68
34.78
4.97
-24.14
-53.40
-84.15
-117.92
-155.83
-197.81
-241.97
-284.57
-320.82
-346.38
-358.93
-359.04
-349.87
-335.79
-320.66
-306.66
-294.24
-282.86
-272.11
-262.28
-254.19
-248.56
-245.39
-243.86
-242.78
-241.28
-239.25
-237.44
-237.10
-239.40
-244.90
-253.35
-263.87
-275.38
-287.02
-298.20
-308.36
-316.49
-320.88
-319.28
-309.51
-290.33
-262.02
-226.43
-186.42
-145.05
-104.66
-66.51
-30.72
3.41
37.01
71.32
107.63
147.07
190.33
237.08
285.47
332.09
372.67
403.28
421.75
428.35
425.59
417.17
406.57
396.11
386.86
379.15
373.25
369.83
369.84
374.02
382.29
393.27
404.30
411.85
412.42
403.48
384.29
355.95
320.88
281.81
240.88
199.35
157.72
116.32
75.65
36.33
-1.28
-37.53
-73.76
-111.95
-154.06
-200.92
-251.38
-301.94
-347.48
-382.79
-404.51
-412.35
-409.25
-400.02
-389.38
-380.30
-373.48
-368.12
-363.18
-358.41
-354.39
-351.94
-351.22
-351.41
-351.02
-348.69
-343.71
-336.05
-325.86
-312.84
-295.92
-273.61
-244.70
-208.92
-167.29
-121.71
-74.40
-27.18
18.91
63.60
107.26
150.75
195.37
242.66
293.92
349.34
407.38
464.74
517.08
560.20
591.01
607.98
610.97
600.64
578.06
544.74
502.76
454.84
404.08
353.27
304.30
257.85
213.61
170.77
128.43
85.81
42.06
-3.67
-52.04
-102.85
-154.44
-203.51
-245.64
-276.72
-294.39
-298.96
-293.27
-281.46
-267.42
-253.59
-240.80
-228.85
-217.52
-207.02
-198.02
-191.00
-185.85
-181.77
-177.66
-172.64
-166.40
-159.27
-151.99
-145.33
-139.75
-135.27
-131.50
-127.91
-124.10
-119.99
-115.97
-112.79
-111.22
-111.77
-114.42
-118.67
-123.84
-129.42
-135.37
-142.06
-149.96
-159.27
-169.74
-180.90
-192.45
-204.42
-217.00
-229.92
-241.79
-249.96
-251.20
-242.85
-224.04
-196.09
-162.04
-125.38
-88.84
-53.77
-20.15
12.74
45.75
79.78
115.93
155.40
198.99
245.98
293.41
336.22
368.68
386.51
388.73
378.16
360.35
341.28
325.32
314.05
306.66
301.24
296.23
291.24
286.93
284.21
283.60
284.90
287.31
289.67
290.61
288.64
282.19
269.95
251.51
228.07
202.76
180.24
165.23
160.59
165.72
176.39
186.21
189.11
181.70
164.05
139.04
110.32
80.52
50.43
19.33
-13.87
-49.82
-88.31
-128.52
-169.12
-208.16
-243.03
-270.66
-288.41
-295.00
-291.19
-279.44
-263.05
-245.00
-227.35
-211.15
-196.85
-184.63
-174.42
-165.76
-157.72
-149.21
-139.39
-128.14
-116.08
-104.25
-93.72
-85.05
-78.17
-72.47
-67.15
-61.50
-55.25
-48.55
-41.87
-35.83
-30.87
-27.11
-24.29
-21.97
-19.62
-16.93
-13.82
-10.44
-7.11
-4.15
-1.80
-0.21
0.64
0.90
0.82
0.68
0.71
0.98
1.41
1.84
2.11
2.15
2.02
1.86
1.78
1.87
2.10
2.42
2.79
3.15
3.48
3.74
3.88
3.84
3.58
3.05
2.28
1.37
0.47
-0.28
-0.76
-0.93
-0.89
-0.76
-0.68
-0.66
-0.62
-0.40
0.13
1.00
2.07
3.12
3.94
4.42
4.64
4.76
5.00
5.46
6.10
6.81
7.38
7.72
7.79
7.68
7.49
7.31
7.17
7.04
6.89
6.75
6.68
6.72
6.87
6.98
6.84
6.25
5.16
3.68
2.09
0.68
-0.35
-0.92
-1.05
-0.84
-0.37
0.19
0.63
0.69
0.16
-1.04
-2.79
-4.79
-6.70
-8.27
-9.36
-9.96
-10.14
-9.94
-9.40
-8.58
-7.57
-6.53
-5.65
-5.08
-4.92
-5.20
-5.85
-6.73
-7.64
-8.38
-8.81
-8.85
-8.54
-7.98
-7.34
-6.80
-6.47
-6.43
-6.62
-6.92
-7.19
-7.32
-7.35
-7.42
-7.72
-8.39
-9.34
-10.25
-10.66
-10.12
-8.40
-5.52
-1.77
2.40
6.53
10.16
12.96
14.73
15.46
15.31
14.60
13.71
12.90
12.31
11.87
11.49
11.10
10.77
10.63
10.77
11.15
11.57
11.75
11.49
10.74
9.64
8.40
7.17
6.02
4.91
3.83
2.87
2.20
1.98
2.26
2.87
3.49
3.79
3.62
3.07
2.42
2.01
2.03
2.50
3.25
4.03
4.63
4.92
4.86
4.47
3.78
2.83
1.68
0.39
-0.94
-2.23
-3.43
-4.49
-5.40
-6.14
-6.71
-7.10
-7.29
-7.32
-7.24
-7.10
-6.91
-6.70
-6.44
-6.15
-5.85
-5.57
-5.34
-5.16
-4.96
-4.73
-4.43
-4.10
-3.76
-3.46
-3.22
-3.01
-2.78
-2.46
-1.99
-1.33
-0.49
0.47
1.45
2.32
2.95
3.28
3.30
3.07
2.71
2.31
1.99
1.77
1.67
1.63
1.63
1.63
1.62
1.62
1.59
1.50
1.28
0.89
0.34
-0.31
-0.95
-1.46
-1.75
-1.80
-1.64
-1.38
-1.16
-1.10
-1.23
-1.52
-1.85
-2.12
-2.24
-2.25
-2.19
-2.19
-2.27
-2.45
-2.66
-2.81
-2.85
-2.79
-2.68
-2.60
-2.59
-2.68
-2.81
-2.90
-2.90
-2.79
-2.63
-2.51
-2.55
-2.76
-3.11
-3.49
-3.79
-3.97
-4.09
-4.26
-4.62
-5.24
-6.10
-7.15
-8.25
-9.34
-10.40
-11.44
-12.50
-13.59
-14.69
-15.76
-16.84
-18.04
-19.55
-21.47
-23.63
-25.58
-26.69
-26.45
-24.80
-22.25
-19.79
-18.45
-18.88
-21.00
-23.97
-26.61
-27.84
-27.21
-24.96
-21.96
-19.27
-17.70
-17.50
-18.19
-18.58
-17.08
-12.10
-2.64
11.32
28.59
46.91
63.43
75.31
80.37
77.71
67.92
53.00
35.89
19.74
7.04
-0.90
-4.19
-3.98
-1.91
0.56
2.48
3.42
3.27
2.06
-0.09
-2.83
-5.61
-7.79
-8.82
-8.56
-7.36
-5.94
-5.13
-5.49
-7.12
-9.63
-12.41
-14.89
-16.83
-18.39
-19.96
-21.94
-24.47
-27.40
-30.34
-32.86
-34.68
-35.79
-36.42
-36.91
-37.57
-38.55
-39.81
-41.14
-42.29
-43.11
-43.63
-44.21
-45.34
-47.60
-51.30
-56.26
-61.59
-65.70
-66.54
-62.08
-50.99
-33.13
-9.87
16.19
41.84
64.03
80.66
90.93
95.28
94.99
91.63
86.61
80.95
75.28
69.98
65.28
61.28
57.98
55.18
52.55
49.76
46.62
43.21
39.80
36.75
34.34
32.61
31.43
30.54
29.74
28.90
28.00
27.04
26.01
24.90
23.80
22.95
22.69
23.29
24.79
26.88
28.99
30.57
31.34
31.51
31.77
33.00
35.86
40.46
46.22
52.07
56.88
59.98
61.47
62.18
63.35
66.18
71.44
79.19
88.57
97.56
102.92
100.61
87.05
60.68
23.37
-19.61
-60.94
-93.79
-114.18
-121.99
-120.29
-113.41
-104.95
-96.80
-89.37
-82.51
-76.34
-71.47
-68.57
-67.73
-68.26
-68.86
-68.27
-65.87
-61.90
-57.31
-53.04
-49.34
-45.33
-39.22
-29.12
-14.10
5.01
25.59
44.04
57.07
62.98
62.29
57.46
51.74
47.81
46.77
47.83
49.03
48.31
44.36
37.01
27.13
16.35
6.67
0.12
-1.63
2.19
10.82
21.90
32.00
37.76
37.05
29.59
16.73
0.63
-16.59
-33.27
-48.06
-59.60
-66.45
-67.39
-61.96
-51.00
-36.58
-21.64
-9.25
-1.82
-0.46
-4.88
-13.56
-24.17
-34.23
-41.65
-45.21
-44.58
-40.28
-33.35
-25.01
-16.30
-8.07
-1.06
3.93
6.19
5.26
1.20
-5.21
-12.83
-20.40
-26.63
-29.98
-28.77
-21.84
-9.63
5.08
17.62
23.20
19.22
6.74
-9.94
-25.50
-36.22
-41.47
-43.23
-44.18
-45.88
-48.10
-49.68
-49.91
-49.29
-49.09
-50.29
-52.55
-54.13
-52.56
-45.50
-31.76
-11.91
11.80
35.86
56.41
70.29
76.00
74.01
66.47
56.26
45.96
37.14
30.29
25.17
21.40
18.82
17.52
17.72
19.46
22.60
26.85
31.88
37.44
43.44
49.91
56.81
63.87
70.52
75.98
79.56
80.90
80.07
77.43
73.33
67.84
60.78
51.91
41.28
29.36
16.93
4.81
-6.31
-15.99
-23.83
-29.41
-32.32
-32.42
-30.08
-26.21
-21.99
-18.36
-15.72
-13.74
-11.69
-8.82
-4.67
0.79
7.22
13.83
19.33
22.05
20.39
13.51
1.96
-12.28
-26.39
-37.84
-45.39
-49.34
-50.96
-51.54
-51.53
-50.52
-47.83
-43.31
-37.70
-32.33
-28.38
-26.22
-25.28
-24.41
-22.60
-19.44
-15.28
-10.91
-7.06
-4.14
-2.07
-0.56
0.75
2.04
3.35
4.62
5.78
6.76
7.39
7.47
6.83
5.46
3.58
1.63
0.03
-1.00
-1.53
-1.85
-2.23
-2.68
-3.01
-2.92
-2.26
-1.15
0.08
1.10
1.75
2.07
2.24
2.42
2.64
2.85
2.97
3.00
3.01
3.13
3.36
3.59
3.58
3.07
1.91
0.13
-2.01
-4.15
-5.97
-7.28
-8.13
-8.73
-9.37
-10.27
-11.49
-12.94
-14.48
-15.99
-17.44
-18.79
-20.00
-20.89
-21.23
-20.90
-19.91
-18.43
-16.69
-14.83
-12.86
-10.75
-8.62
-6.75
-5.56
-5.30
-5.88
-6.69
-6.85
-5.54
-2.47
1.97
6.80
10.84
13.23
13.65
12.38
10.01
7.04
3.59
-0.60
-6.02
-12.93
-21.13
-29.93
-38.38
-45.77
-51.84
-56.87
-61.46
-66.13
-71.16
-76.49
-81.98
-87.59
-93.46
-99.80
-106.72
-114.09
-121.62
-128.99
-135.96
-142.48
-148.59
-154.47
-160.49
-167.31
-175.70
-185.95
-197.20
-206.99
-211.62
-207.29
-191.55
-164.39
-128.18
-86.69
-43.48
-0.70
41.21
83.02
125.84
170.53
217.51
266.74
317.65
368.77
417.78
461.86
498.62
526.66
545.58
555.31
555.31
544.43
521.59
486.98
442.93
393.51
343.13
294.91
249.65
206.19
162.62
117.59
70.82
22.71
-26.34
-76.08
-125.99
-174.49
-218.66
-254.84
-279.86
-292.42
-293.73
-287.01
-276.32
-265.27
-256.12
-249.71
-245.85
-243.75
-242.36
-240.52
-237.10
-231.38
-223.41
-214.16
-205.35
-198.85
-196.07
-197.31
-201.40
-205.80
-207.33
-203.34
-192.87
-177.49
-161.04
-148.44
-143.72
-148.14
-159.39
-172.09
-179.79
-177.24
-162.09
-135.24
-99.74
-58.92
-14.79
32.39
83.10
136.85
190.87
240.07
278.62
302.34
310.55
306.46
295.70
284.01
275.14
270.03
267.33
265.00
261.69
257.38
253.13
250.27
249.63
251.34
255.11
260.68
267.97
276.79
286.18
293.94
296.79
291.25
275.02
247.84
211.61
169.59
124.95
79.55
33.59
-13.77
-63.00
-112.98
-160.54
-201.25
-230.98
-247.55
-251.59
-246.24
-235.81
-224.22
-213.85
-205.47
-199.01
-194.40
-192.04
-192.45
-195.65
-200.69
-205.74
-208.93
-209.16
-206.75
-203.25
-200.85
-201.35
-205.40
-212.26
-220.19
-227.29
-232.35
-235.36
-237.40
-240.15
-245.07
-252.69
-262.17
-271.27
-276.84
-275.71
-265.67
-246.21
-218.75
-186.08
-151.27
-116.60
-82.85
-49.35
-14.51
23.26
64.67
108.85
153.22
193.74
225.79
245.64
251.84
246.10
232.97
218.30
207.15
202.14
202.89
206.86
210.95
212.99
212.29
209.40
205.20
200.19
194.26
186.95
177.95
167.48
156.32
145.57
136.25
129.03
124.08
121.00
119.01
117.19
114.78
111.40
107.21
102.68
98.51
95.57
94.91
97.62
104.27
113.91
123.33
127.20
119.68
97.16
60.46
15.47
-28.56
-62.06
-78.21
-74.43
-52.09
-15.08
31.77
83.62
136.00
184.91
227.03
259.92
282.06
292.57
291.09
277.90
254.16
222.26
185.38
146.62
107.95
69.78
31.40
-7.99
-48.68
-90.45
-133.10
-176.81
-221.85
-267.69
-312.16
-351.64
-382.08
-400.72
-407.24
-404.02
-395.17
-384.99
-376.69
-371.82
-370.47
-371.87
-374.75
-377.41
-377.62
-372.74
-360.23
-338.50
-307.54
-268.94
-225.40
-179.68
-133.42
-86.76
-38.75
11.35
62.66
112.07
154.80
186.10
203.11
206.08
198.12
183.87
167.68
152.26
138.37
125.60
113.34
101.45
90.31
80.33
71.41
62.90
54.07
44.71
35.59
28.39
25.23
27.74
36.36
49.96
66.07
81.57
93.67
100.70
102.41
99.83
94.60
88.27
81.86
75.70
69.76
63.94
58.36
53.30
49.04
45.66
42.87
40.26
37.42
34.19
30.71
27.31
24.32
21.88
19.87
18.01
16.00
13.72
11.28
8.92
6.90
5.39
4.41
3.87
3.63
3.55
3.47
3.28
2.91
2.34
1.65
0.98
0.47
0.17
0.11
0.28
0.69
1.35
2.20
3.09
3.80
4.13
3.98
3.45
2.71
1.95
1.33
0.93
0.73
0.71
0.80
0.92
0.95
0.81
0.49
0.11
-0.18
-0.25
-0.07
0.25
0.59
0.80
0.83
0.73
0.58
0.43
0.32
0.25
0.16
0.05
-0.12
-0.32
-0.51
-0.63
-0.66
-0.58
-0.42
-0.23
-0.05
0.12
0.27
0.37
0.37
0.20
-0.18
-0.73
-1.32
-1.79
-2.02
-1.97
-1.74
-1.47
-1.30
-1.30
-1.42
-1.54
-1.53
-1.38
-1.14
-0.96
-0.93
-1.08
-1.30
-1.46
-1.45
-1.26
-0.94
-0.61
-0.35
-0.19
-0.11
-0.10
-0.13
-0.19
-0.23
-0.21
-0.07
0.20
0.53
0.84
1.01
0.98
0.76
0.42
0.08
-0.11
-0.09
0.10
0.34
0.46
0.35
0.01
-0.41
-0.71
-0.74
-0.47
-0.03
0.39
0.63
0.59
0.32
-0.06
-0.43
-0.71
-0.83
-0.77
-0.53
-0.15
0.30
0.71
0.96
0.98
0.79
0.45
0.08
-0.22
-0.40
-0.50
-0.55
-0.61
-0.71
-0.81
-0.90
-0.92
-0.86
-0.70
-0.50
-0.28
-0.10
-0.02
-0.05
-0.18
-0.39
-0.60
-0.70
-0.62
-0.27
0.30
0.99
1.62
2.02
2.06
1.75
1.20
0.61
0.15
-0.10
-0.16
-0.14
-0.15
-0.24
-0.38
-0.49
-0.52
-0.46
-0.39
-0.36
-0.44
-0.61
-0.82
-0.98
-1.07
-1.05
-0.94
-0.75
-0.52
-0.26
-0.03
0.16
0.33
0.50
0.68
0.84
0.94
0.91
0.75
0.50
0.26
0.15
0.21
0.42
0.71
1.01
1.26
1.48
1.64
1.74
1.72
1.51
1.10
0.59
0.10
-0.20
-0.26
-0.11
0.15
0.38
0.47
0.39
0.17
-0.14
-0.47
-0.76
-0.96
-1.02
-0.93
-0.73
-0.50
-0.32
-0.27
-0.34
-0.51
-0.71
-0.87
-0.91
-0.77
-0.45
-0.03
0.33
0.43
0.16
-0.44
-1.20
-1.84
-2.15
-2.03
-1.56
-0.90
-0.22
0.37
0.80
1.04
1.05
0.86
0.54
0.22
0.08
0.17
0.45
0.74
0.87
0.74
0.38
-0.07
-0.43
-0.62
-0.61
-0.48
-0.37
-0.34
-0.43
-0.62
-0.84
-1.03
-1.15
-1.22
-1.25
-1.27
-1.29
-1.25
-1.15
-1.01
-0.90
-0.86
-0.91
-0.98
-0.96
-0.76
-0.36
0.16
0.63
0.92
0.91
0.61
0.12
-0.44
-0.93
-1.25
-1.37
-1.27
-1.00
-0.68
-0.42
-0.31
-0.41
-0.65
-0.94
-1.14
-1.21
-1.20
-1.25
-1.50
-2.02
-2.75
-3.56
-4.26
-4.72
-4.87
-4.75
-4.46
-4.14
-4.00
-4.20
-4.82
-5.78
-6.88
-7.87
-8.56
-8.95
-9.20
-9.54
-10.19
-11.22
-12.53
-13.84
-14.58
-14.07
-11.68
-7.14
-0.83
6.28
12.86
17.72
20.30
20.76
19.85
18.43
17.12
16.08
15.15
14.05
12.60
10.84
8.91
6.99
5.18
3.52
1.98
0.52
-0.85
-2.01
-2.82
-3.17
-3.05
-2.61
-2.11
-1.81
-1.89
-2.31
-2.91
-3.45
-3.74
-3.75
-3.57
-3.43
-3.53
-3.97
-4.67
-5.40
-5.87
-5.90
-5.46
-4.78
-4.14
-3.85
-4.03
-4.62
-5.41
-6.12
-6.48
-6.22
-5.13
-3.05
0.01
3.86
8.04
11.98
15.10
17.02
17.65
17.13
15.81
14.02
12.05
10.07
8.18
6.46
4.96
3.69
2.67
1.84
1.18
0.62
0.15
-0.23
-0.49
-0.59
-0.52
-0.33
-0.09
0.11
0.19
0.17
0.10
0.09
0.23
0.56
1.00
1.42
1.67
1.66
1.36
0.85
0.23
-0.39
-0.89
-1.19
-1.26
-1.11
-0.79
-0.41
-0.05
0.20
0.32
0.32
0.24
0.13
0.03
-0.02
-0.03
-0.01
0.01
-0.02
-0.14
-0.35
-0.59
-0.79
-0.86
-0.79
-0.59
-0.34
-0.12
-0.01
-0.02
-0.12
-0.22
-0.28
-0.30
-0.30
-0.32
-0.35
-0.34
-0.19
0.08
0.42
0.66
0.63
0.30
-0.25
-0.78
-1.07
-0.99
-0.59
-0.06
0.38
0.58
0.53
0.33
0.10
-0.08
-0.20
-0.28
-0.38
-0.51
-0.63
-0.73
-0.76
-0.72
-0.59
-0.37
-0.07
0.28
0.58
0.73
0.66
0.40
0.09
-0.13
-0.13
0.06
0.30
0.45
0.41
0.22
-0.01
-0.14
-0.12
0.01
0.15
0.23
0.21
0.16
0.12
0.15
0.22
0.26
0.20
0.00
-0.32
-0.69
-0.96
-1.04
-0.88
-0.53
-0.09
0.29
0.53
0.61
0.58
0.50
0.41
0.29
0.12
-0.06
-0.22
-0.27
-0.17
0.06
0.33
0.51
0.51
0.33
0.05
-0.20
-0.32
-0.31
-0.23
-0.19
-0.23
-0.35
-0.49
-0.61
-0.66
-0.68
-0.71
-0.75
-0.76
-0.68
-0.42
0.02
0.55
1.01
1.26
1.21
0.93
0.55
0.28
0.26
0.47
0.76
0.96
0.95
0.79
0.64
0.66
0.88
1.19
1.41
1.40
1.14
0.78
0.48
0.34
0.35
0.40
0.34
0.11
-0.24
-0.60
-0.84
-0.92
-0.85
-0.76
-0.74
-0.83
-1.01
-1.18
-1.25
-1.18
-1.04
-0.91
-0.89
-0.98
-1.11
-1.17
-1.11
-0.98
-0.88
-0.91
-1.07
-1.26
-1.32
-1.18
-0.86
-0.51
-0.32
-0.36
-0.59
-0.88
-1.09
-1.14
-1.05
-0.89
-0.69
-0.45
-0.18
0.10
0.31
0.40
0.36
0.26
0.21
0.28
0.47
0.68
0.79
0.70
0.42
0.08
-0.18
-0.21
0.00
0.35
0.67
0.81
0.71
0.46
0.18
0.00
-0.04
0.01
0.04
-0.03
-0.21
-0.44
-0.59
-0.59
-0.44
-0.19
0.08
0.29
0.43
0.50
0.50
0.44
0.32
0.15
-0.01
-0.10
-0.08
0.03
0.12
0.09
-0.11
-0.46
-0.86
-1.19
-1.38
-1.41
-1.30
-1.06
-0.71
-0.27
0.18
0.54
0.74
0.71
0.47
0.12
-0.26
-0.57
-0.77
-0.80
-0.68
-0.45
-0.21
-0.04
-0.03
-0.17
-0.37
-0.52
-0.53
-0.39
-0.13
0.16
0.43
0.69
0.92
1.13
1.24
1.19
0.99
0.69
0.39
0.20
0.11
0.08
0.01
-0.14
-0.35
-0.54
-0.62
-0.57
-0.45
-0.34
-0.31
-0.36
-0.47
-0.57
-0.62
-0.61
-0.54
-0.41
-0.18
0.14
0.55
0.95
1.22
1.27
1.07
0.69
0.26
-0.08
-0.25
-0.24
-0.11
0.07
0.22
0.32
0.32
0.22
0.03
-0.21
-0.44
-0.60
-0.68
-0.68
-0.63
-0.55
-0.44
-0.31
-0.19
-0.14
-0.20
-0.34
-0.48
-0.55
-0.51
-0.40
-0.28
-0.22
-0.21
-0.18
-0.09
0.10
0.33
0.53
0.67
0.73
0.74
0.70
0.63
0.50
0.33
0.18
0.10
0.13
0.26
0.43
0.58
0.64
0.60
0.49
0.32
0.13
-0.09
-0.33
-0.58
-0.80
-0.95
-0.96
-0.83
-0.55
-0.20
0.17
0.46
0.65
0.72
0.72
0.73
0.78
0.86
0.92
0.90
0.77
0.51
0.18
-0.14
-0.35
-0.37
-0.16
0.26
0.76
1.21
1.48
1.47
1.21
0.82
0.46
0.25
0.25
0.40
0.58
0.68
0.68
0.62
0.60
0.67
0.84
1.06
1.23
1.34
1.42
1.54
1.72
1.91
2.00
1.85
1.48
0.98
0.55
0.35
0.40
0.63
0.85
0.94
0.85
0.65
0.44
0.30
0.27
0.32
0.38
0.39
0.34
0.24
0.12
0.03
0.03
0.14
0.38
0.70
1.03
1.29
1.43
1.44
1.36
1.21
1.05
0.86
0.62
0.31
-0.04
-0.37
-0.59
-0.66
-0.57
-0.39
-0.21
-0.11
-0.14
-0.31
-0.58
-0.90
-1.22
-1.49
-1.71
-1.87
-1.99
-2.09
-2.19
-2.26
-2.28
-2.26
-2.24
-2.28
-2.42
-2.65
-2.87
-2.98
-2.90
-2.63
-2.23
-1.77
-1.29
-0.82
-0.39
-0.04
0.19
0.25
0.20
0.11
0.06
0.13
0.28
0.47
0.66
0.80
0.90
0.97
0.97
0.87
0.66
0.37
0.11
-0.03
0.02
0.25
0.59
0.90
1.10
1.13
1.06
0.97
0.94
1.00
1.12
1.25
1.39
1.58
1.85
2.16
2.46
2.62
2.60
2.45
2.27
2.20
2.28
2.45
2.60
2.61
2.46
2.23
2.01
1.86
1.78
1.75
1.73
1.72
1.72
1.74
1.79
1.84
1.88
1.88
1.86
1.81
1.77
1.80
1.97
2.34
2.90
3.58
4.24
4.73
4.99
5.04
5.00
4.99
5.07
5.20
5.27
5.13
4.71
4.04
3.17
2.20
1.21
0.20
-0.83
-1.89
-2.98
-4.01
-4.88
-5.56
-6.03
-6.33
-6.54
-6.72
-6.87
-6.95
-6.93
-6.79
-6.58
-6.33
-6.07
-5.78
-5.43
-4.98
-4.48
-4.05
-3.78
-3.66
-3.64
-3.55
-3.29
-2.85
-2.33
-1.87
-1.56
-1.38
-1.24
-1.03
-0.70
-0.26
0.17
0.51
0.68
0.68
0.58
0.48
0.50
0.71
1.13
1.71
2.34
2.84
3.10
3.06
2.80
2.51
2.46
2.91
4.01
5.76
7.94
10.22
12.22
13.68
14.56
15.08
15.58
16.46
17.94
20.01
22.43
24.80
26.77
28.18
29.18
30.11
31.43
33.56
36.54
40.01
43.24
45.39
45.98
45.45
45.31
47.64
54.01
64.14
75.19
82.19
79.48
62.49
28.97
-20.57
-83.07
-153.08
-223.10
-284.14
-327.19
-345.42
-336.38
-303.02
-252.66
-194.56
-136.96
-85.27
-41.93
-7.48
18.17
35.32
44.67
47.87
47.42
46.09
45.85
47.40
50.19
52.91
54.28
53.59
50.90
46.93
42.70
39.13
36.64
35.07
33.71
31.67
28.21
23.12
16.74
9.98
3.99
-0.11
-1.50
0.05
4.19
10.05
16.41
22.10
26.26
28.54
29.13
28.52
27.26
25.76
24.18
22.55
20.88
19.28
17.91
16.91
16.29
15.88
15.43
14.75
13.81
12.78
11.92
11.42
11.29
11.31
11.21
10.72
9.78
8.52
7.18
5.97
4.98
4.17
3.43
2.63
1.68
0.64
-0.39
-1.20
-1.52
-1.14
0.08
2.05
4.50
6.97
8.97
10.16
10.44
9.92
8.85
7.49
6.06
4.67
3.40
2.37
1.68
1.40
1.58
2.15
2.94
3.74
4.37
4.68
4.64
4.35
3.94
3.60
3.40
3.33
3.27
3.06
2.63
2.02
1.35
0.76
0.36
0.13
0.03
-0.01
0.03
0.19
0.50
0.97
1.56
2.17
2.71
3.17
3.59
4.02
4.53
5.16
5.87
6.62
7.37
8.10
8.81
9.47
10.03
10.39
10.45
10.16
9.58
8.83
8.01
7.17
6.20
4.95
3.27
1.15
-1.33
-3.94
-6.44
-8.63
-10.35
-11.52
-12.10
-12.16
-11.81
-11.18
-10.43
-9.66
-8.93
-8.25
-7.63
-7.11
-6.67
-6.27
-5.81
-5.19
-4.30
-3.16
-1.93
-0.81
-0.06
0.21
0.03
-0.42
-0.86
-1.09
-1.04
-0.77
-0.45
-0.21
-0.10
-0.09
-0.11
-0.16
-0.29
-0.60
-1.11
-1.75
-2.33
-2.65
-2.59
-2.16
-1.54
-0.94
-0.52
-0.35
-0.35
-0.46
-0.54
-0.56
-0.51
-0.40
-0.26
-0.10
0.05
0.14
0.16
0.10
0.02
-0.03
-0.01
0.08
0.23
0.42
0.64
0.89
1.14
1.34
1.43
1.39
1.21
0.93
0.57
0.17
-0.24
-0.59
-0.78
-0.71
-0.34
0.22
0.76
1.06
0.99
0.59
0.05
-0.40
-0.59
-0.49
-0.19
0.18
0.51
0.76
0.92
0.97
0.88
0.63
0.24
-0.18
-0.54
-0.73
-0.74
-0.60
-0.38
-0.12
0.15
0.41
0.60
0.64
0.47
0.08
-0.43
-0.91
-1.22
-1.25
-1.03
-0.62
-0.17
0.23
0.48
0.52
0.39
0.12
-0.18
-0.45
-0.63
-0.76
-0.84
-0.89
-0.88
-0.73
-0.46
-0.14
0.12
0.20
0.08
-0.14
-0.34
-0.41
-0.36
-0.26
-0.18
-0.11
0.03
0.35
0.86
1.50
2.08
2.43
2.50
2.31
2.01
1.69
1.44
1.24
1.04
0.80
0.51
0.19
-0.11
-0.33
-0.49
-0.59
-0.71
-0.88
-1.14
-1.49
-1.89
-2.35
-2.86
-3.45
-4.10
-4.75
-5.32
-5.74
-5.97
-6.03
-5.98
-5.87
-5.71
-5.49
-5.19
-4.82
-4.42
-4.02
-3.64
-3.25
-2.82
-2.29
-1.68
-1.02
-0.38
0.14
0.47
0.58
0.50
0.29
0.08
0.01
0.21
0.76
1.65
2.75
3.82
4.65
5.07
5.03
4.62
4.03
3.45
3.05
2.85
2.78
2.75
2.65
2.46
2.19
1.88
1.58
1.27
0.97
0.67
0.45
0.38
0.51
0.83
1.25
1.64
1.88
1.90
1.72
1.43
1.15
0.98
0.94
1.00
1.09
1.14
1.13
1.07
1.04
1.09
1.23
1.42
1.58
1.64
1.60
1.49
1.36
1.28
1.27
1.31
1.34
1.27
1.03
0.57
-0.05
-0.71
-1.23
-1.50
-1.50
-1.34
-1.19
-1.18
-1.33
-1.54
-1.66
-1.60
-1.41
-1.20
-1.11
-1.20
-1.41
-1.62
-1.69
-1.60
-1.37
-1.11
-0.91
-0.83
-0.87
-0.99
-1.09
-1.12
-1.02
-0.79
-0.47
-0.12
0.19
0.43
0.57
0.61
0.56
0.45
0.29
0.13
-0.02
-0.13
-0.17
-0.15
-0.08
0.00
0.05
0.04
-0.04
-0.14
-0.20
-0.17
-0.02
0.20
0.42
0.60
0.70
0.71
0.65
0.54
0.40
0.23
0.04
-0.18
-0.45
-0.81
-1.25
-1.71
-2.09
-2.25
-2.11
-1.70
-1.15
-0.62
-0.21
0.03
0.17
0.26
0.31
0.32
0.28
0.21
0.20
0.31
0.51
0.72
0.82
0.74
0.51
0.25
0.07
0.02
0.02
0.00
-0.12
-0.33
-0.58
-0.82
-1.00
-1.11
-1.18
-1.20
-1.20
-1.15
-1.06
-0.92
-0.75
-0.55
-0.37
-0.23
-0.16
-0.15
-0.15
-0.08
0.10
0.39
0.70
0.94
1.03
0.97
0.77
0.51
0.25
0.03
-0.13
-0.24
-0.33
-0.43
-0.53
-0.63
-0.66
-0.56
-0.31
0.06
0.48
0.85
1.10
1.20
1.17
1.08
0.99
0.91
0.85
0.78
0.63
0.40
0.09
-0.22
-0.44
-0.49
-0.36
-0.12
0.12
0.24
0.23
0.11
-0.05
-0.18
-0.29
-0.40
-0.55
-0.71
-0.81
-0.76
-0.53
-0.16
0.20
0.41
0.42
0.26
0.08
0.04
0.22
0.58
0.99
1.30
1.43
1.35
1.13
0.84
0.50
0.13
-0.26
-0.63
-0.92
-1.06
-1.02
-0.83
-0.57
-0.36
-0.27
-0.33
-0.45
-0.50
-0.35
0.05
0.61
1.14
1.41
1.32
0.87
0.28
-0.21
-0.44
-0.36
-0.10
0.20
0.41
0.51
0.50
0.41
0.22
-0.10
-0.54
-1.04
-1.44
-1.62
-1.52
-1.18
-0.74
-0.38
-0.23
-0.33
-0.58
-0.85
-0.98
-0.88
-0.55
-0.09
0.38
0.77
1.03
1.21
1.38
1.62
1.99
2.49
3.06
3.64
4.13
4.47
4.64
4.68
4.74
4.96
5.49
6.37
7.54
8.84
10.06
11.06
11.84
12.56
13.48
14.84
16.74
19.04
21.46
23.68
25.57
27.31
29.31
32.03
35.74
40.36
45.48
50.51
55.04
58.98
62.69
66.85
72.16
79.07
87.53
96.99
106.66
115.77
123.96
131.40
138.74
146.82
156.55
168.79
184.13
202.53
222.74
241.98
256.29
261.59
255.11
236.52
207.94
172.80
134.13
93.53
51.38
8.13
-34.21
-71.63
-99.25
-113.23
-112.56
-99.67
-79.66
-58.73
-42.75
-36.32
-42.41
-62.06
-94.06
-134.61
-177.69
-216.19
-243.78
-256.63
-254.44
-240.10
-218.51
-194.91
-173.49
-156.64
-144.87
-137.28
-132.19
-127.80
-122.67
-115.97
-107.59
-98.03
-88.11
-78.72
-70.57
-64.06
-59.18
-55.51
-52.40
-49.14
-45.15
-40.22
-34.59
-28.83
-23.68
-19.69
-17.05
-15.51
-14.55
-13.54
-12.11
-10.18
-7.99
-5.94
-4.36
-3.42
-3.05
-3.05
-3.11
-3.02
-2.64
-2.00
-1.26
-0.60
-0.19
-0.05
-0.06
-0.06
0.07
0.37
0.73
1.03
1.15
1.07
0.84
0.53
0.24
0.03
-0.05
-0.02
0.11
0.27
0.38
0.38
0.27
0.10
-0.08
-0.20
-0.26
-0.28
-0.28
-0.26
-0.18
-0.04
0.13
0.28
0.36
0.36
0.32
0.28
0.29
0.34
0.39
0.41
0.38
0.35
0.36
0.39
0.38
0.26
0.01
-0.31
-0.59
-0.75
-0.74
-0.61
-0.42
-0.22
-0.02
0.18
0.36
0.49
0.47
0.30
0.01
-0.28
-0.47
-0.46
-0.29
-0.06
0.08
0.06
-0.16
-0.49
-0.82
-0.99
-0.94
-0.65
-0.18
0.36
0.85
1.18
1.28
1.12
0.78
0.39
0.11
0.05
0.23
0.55
0.83
0.95
0.86
0.66
0.47
0.42
0.54
0.73
0.88
0.88
0.72
0.46
0.22
0.10
0.13
0.26
0.38
0.39
0.26
0.05
-0.11
-0.09
0.18
0.65
1.18
1.59
1.72
1.50
1.00
0.38
-0.20
-0.60
-0.80
-0.84
-0.81
-0.75
-0.69
-0.62
-0.54
-0.48
-0.44
-0.42
-0.39
-0.32
-0.25
-0.23
-0.31
-0.46
-0.60
-0.62
-0.49
-0.27
-0.10
-0.08
-0.26
-0.56
-0.86
-1.05
-1.09
-1.00
-0.82
-0.58
-0.31
-0.05
0.15
0.23
0.16
-0.03
-0.26
-0.44
-0.52
-0.51
-0.48
-0.50
-0.59
-0.75
-0.87
-0.89
-0.73
-0.43
-0.07
0.24
0.40
0.38
0.23
0.04
-0.10
-0.14
-0.04
0.18
0.50
0.87
1.22
1.47
1.51
1.31
0.87
0.27
-0.34
-0.82
-1.05
-1.05
-0.88
-0.68
-0.56
-0.57
-0.67
-0.80
-0.86
-0.82
-0.68
-0.50
-0.31
-0.11
0.09
0.29
0.45
0.53
0.49
0.32
0.09
-0.11
-0.15
-0.03
0.20
0.41
0.46
0.33
0.15
0.11
0.33
0.79
1.31
1.63
1.59
1.22
0.73
0.35
0.19
0.19
0.15
-0.09
-0.53
-1.00
-1.31
-1.33
-1.11
-0.83
-0.67
-0.68
-0.79
-0.83
-0.69
-0.37
-0.00
0.24
0.26
0.12
-0.04
-0.03
0.20
0.59
0.94
1.08
0.90
0.48
-0.04
-0.47
-0.71
-0.76
-0.70
-0.57
-0.40
-0.19
0.05
0.27
0.36
0.26
-0.03
-0.44
-0.83
-1.05
-1.05
-0.80
-0.37
0.14
0.59
0.86
0.87
0.61
0.18
-0.26
-0.56
-0.64
-0.52
-0.31
-0.13
-0.00
0.10
0.27
0.55
0.89
1.16
1.24
1.09
0.78
0.43
0.20
0.19
0.36
0.60
0.78
0.78
0.61
0.31
-0.01
-0.26
-0.40
-0.42
-0.36
-0.24
-0.09
0.06
0.20
0.32
0.46
0.61
0.81
1.02
1.17
1.16
0.96
0.59
0.16
-0.20
-0.40
-0.45
-0.43
-0.44
-0.56
-0.78
-1.01
-1.17
-1.20
-1.09
-0.90
-0.73
-0.63
-0.62
-0.69
-0.81
-0.96
-1.14
-1.33
-1.49
-1.55
-1.46
-1.18
-0.78
-0.37
-0.04
0.15
0.23
0.29
0.40
0.59
0.83
1.00
1.04
0.92
0.71
0.53
0.49
0.59
0.73
0.80
0.72
0.49
0.23
0.07
0.02
0.05
0.04
-0.06
-0.24
-0.37
-0.33
-0.09
0.27
0.64
0.92
1.07
1.11
1.08
0.99
0.85
0.68
0.53
0.43
0.40
0.39
0.34
0.19
-0.07
-0.36
-0.59
-0.70
-0.66
-0.50
-0.28
-0.07
0.08
0.13
0.06
-0.11
-0.33
-0.54
-0.68
-0.73
-0.68
-0.55
-0.35
-0.12
0.09
0.23
0.25
0.11
-0.13
-0.38
-0.52
-0.53
-0.40
-0.21
-0.02
0.13
0.22
0.30
0.35
0.37
0.36
0.30
0.22
0.17
0.17
0.21
0.25
0.22
0.06
-0.22
-0.55
-0.80
-0.86
-0.67
-0.27
0.24
0.70
0.98
0.99
0.74
0.27
-0.27
-0.74
-0.99
-0.94
-0.60
-0.12
0.32
0.53
0.48
0.22
-0.08
-0.29
-0.37
-0.34
-0.28
-0.20
-0.09
0.08
0.33
0.61
0.83
0.94
0.93
0.84
0.72
0.63
0.56
0.50
0.45
0.41
0.39
0.39
0.38
0.34
0.26
0.13
-0.04
-0.21
-0.36
-0.43
-0.40
-0.25
-0.04
0.15
0.18
-0.04
-0.49
-1.02
-1.45
-1.61
-1.45
-1.06
-0.64
-0.37
-0.33
-0.52
-0.81
-1.08
-1.24
-1.28
-1.23
-1.13
-0.99
-0.78
-0.52
-0.23
0.03
0.19
0.25
0.26
0.28
0.37
0.55
0.77
0.96
1.09
1.17
1.24
1.36
1.59
1.91
2.35
2.91
3.67
4.68
5.98
7.50
9.08
10.49
11.44
11.65
10.90
9.11
6.39
3.09
-0.26
-3.05
-4.83
-5.41
-4.92
-3.72
-2.25
-0.89
0.15
0.80
1.05
0.98
0.66
0.21
-0.23
-0.55
-0.69
-0.67
-0.51
-0.22
0.22
0.83
1.61
2.48
3.28
3.85
4.10
4.03
3.75
3.41
3.15
3.05
3.09
3.21
3.30
3.25
3.00
2.52
1.85
1.05
0.21
-0.62
-1.42
-2.22
-3.04
-3.88
-4.67
-5.34
-5.82
-6.08
-6.14
-6.09
-6.01
-5.94
-5.90
-5.86
-5.78
-5.65
-5.48
-5.31
-5.12
-4.87
-4.50
-3.98
-3.36
-2.72
-2.17
-1.77
-1.52
-1.36
-1.25
-1.15
-1.08
-1.04
-1.02
-0.96
-0.84
-0.67
-0.50
-0.42
-0.45
-0.54
-0.62
-0.60
-0.46
-0.26
-0.08
0.00
0.00
-0.05
-0.12
-0.16
-0.17
-0.17
-0.16
-0.16
-0.16
-0.15
-0.14
-0.11
-0.03
0.10
0.30
0.52
0.71
0.80
0.74
0.51
0.16
-0.22
-0.53
-0.72
-0.79
-0.78
-0.77
-0.79
-0.82
-0.81
-0.68
-0.42
-0.10
0.17
0.26
0.07
-0.37
-0.97
-1.57
-2.03
-2.30
-2.39
-2.38
-2.34
-2.34
-2.37
-2.39
-2.36
-2.30
-2.27
-2.36
-2.59
-2.94
-3.26
-3.41
-3.30
-2.94
-2.45
-1.98
-1.67
-1.54
-1.54
-1.57
-1.60
-1.61
-1.66
-1.73
-1.79
-1.73
-1.44
-0.85
0.05
1.22
2.53
3.84
4.99
5.82
6.27
6.35
6.15
5.82
5.49
5.26
5.15
5.13
5.15
5.16
5.07
4.83
4.37
3.72
2.95
2.15
1.46
0.94
0.63
0.49
0.49
0.57
0.68
0.74
0.73
0.63
0.47
0.33
0.27
0.30
0.42
0.55
0.63
0.59
0.42
0.15
-0.16
-0.42
-0.54
-0.48
-0.24
0.13
0.52
0.89
1.19
1.44
1.67
1.88
2.06
2.20
2.30
2.37
2.45
2.59
2.80
3.08
3.40
3.71
3.97
4.11
4.09
3.91
3.60
3.20
2.75
2.29
1.85
1.42
1.02
0.61
0.11
-0.52
-1.29
-2.11
-2.86
-3.41
-3.71
-3.84
-3.96
-4.20
-4.59
-5.02
-5.30
-5.27
-4.91
-4.28
-3.55
-2.84
-2.24
-1.77
-1.43
-1.24
-1.21
-1.29
-1.43
-1.50
-1.44
-1.22
-0.92
-0.63
-0.45
-0.41
-0.48
-0.59
-0.70
-0.82
-0.96
-1.17
-1.44
-1.70
-1.90
-1.96
-1.87
-1.69
-1.51
-1.40
-1.38
-1.39
-1.34
-1.21
-1.00
-0.82
-0.75
-0.83
-0.99
-1.12
-1.12
-0.93
-0.66
-0.41
-0.30
-0.37
-0.54
-0.72
-0.80
-0.73
-0.52
-0.23
0.07
0.32
0.49
0.57
0.54
0.42
0.25
0.10
0.05
0.17
0.44
0.78
1.06
1.16
1.05
0.82
0.64
0.64
0.87
1.23
1.53
1.62
1.43
1.04
0.63
0.33
0.24
0.33
0.52
0.71
0.85
0.91
0.91
0.86
0.81
0.77
0.74
0.71
0.64
0.52
0.34
0.11
-0.15
-0.43
-0.71
-1.00
-1.27
-1.45
-1.45
-1.22
-0.80
-0.34
-0.02
-0.00
-0.28
-0.74
-1.20
-1.50
-1.58
-1.50
-1.36
-1.23
-1.15
-1.05
-0.87
-0.55
-0.12
0.33
0.68
0.82
0.69
0.35
-0.05
-0.34
-0.37
-0.11
0.34
0.80
1.07
1.06
0.81
0.46
0.19
0.08
0.13
0.23
0.27
0.21
0.08
-0.03
-0.07
-0.03
0.05
0.13
0.19
0.23
0.28
0.32
0.34
0.30
0.22
0.09
-0.02
-0.11
-0.15
-0.13
-0.04
0.10
0.27
0.40
0.42
0.30
0.05
-0.27
-0.57
-0.79
-0.87
-0.81
-0.63
-0.37
-0.11
0.08
0.11
-0.04
-0.32
-0.64
-0.88
-1.00
-1.01
-0.98
-0.98
-1.03
-1.08
-1.04
-0.86
-0.55
-0.20
0.05
0.13
0.03
-0.19
-0.39
-0.50
-0.47
-0.34
-0.21
-0.16
-0.24
-0.39
-0.53
-0.56
-0.47
-0.27
-0.05
0.11
0.17
0.17
0.21
0.38
0.70
1.16
1.64
2.03
2.25
2.28
2.16
1.97
1.77
1.62
1.52
1.44
1.31
1.07
0.69
0.22
-0.28
-0.74
-1.09
-1.30
-1.38
-1.33
-1.17
-0.91
-0.60
-0.29
-0.06
-0.01
-0.15
-0.45
-0.79
-1.05
-1.13
-0.99
-0.65
-0.20
0.26
0.63
0.85
0.87
0.75
0.56
0.39
0.30
0.28
0.30
0.30
0.27
0.23
0.28
0.45
0.77
1.16
1.52
1.77
1.90
1.90
1.78
1.54
1.15
0.61
-0.03
-0.66
-1.12
-1.28
-1.12
-0.74
-0.31
-0.03
-0.02
-0.27
-0.70
-1.19
-1.66
-2.09
-2.49
-2.82
-2.98
-2.84
-2.33
-1.50
-0.56
0.25
0.71
0.76
0.51
0.13
-0.17
-0.31
-0.27
-0.08
0.21
0.54
0.87
1.12
1.23
1.15
0.87
0.47
0.05
-0.28
-0.40
-0.30
-0.00
0.40
0.80
1.08
1.16
1.05
0.79
0.45
0.07
-0.34
-0.81
-1.29
-1.66
-1.78
-1.54
-0.99
-0.26
0.42
0.87
1.07
1.08
1.04
1.02
1.00
0.88
0.61
0.24
-0.09
-0.22
-0.10
0.20
0.49
0.58
0.37
-0.10
-0.64
-1.04
-1.15
-0.91
-0.42
0.16
0.63
0.84
0.74
0.37
-0.14
-0.58
-0.83
-0.82
-0.61
-0.34
-0.15
-0.08
-0.10
-0.14
-0.12
-0.03
0.08
0.12
0.05
-0.10
-0.22
-0.23
-0.09
0.18
0.48
0.70
0.78
0.72
0.59
0.49
0.48
0.55
0.66
0.71
0.68
0.56
0.41
0.25
0.09
-0.08
-0.26
-0.40
-0.45
-0.37
-0.18
0.01
0.09
-0.03
-0.30
-0.64
-0.91
-1.02
-0.96
-0.76
-0.51
-0.26
-0.10
-0.05
-0.13
-0.29
-0.45
-0.47
-0.28
0.12
0.64
1.08
1.30
1.19
0.81
0.32
-0.11
-0.35
-0.39
-0.31
-0.19
-0.09
-0.01
0.06
0.11
0.09
-0.06
-0.36
-0.72
-1.01
-1.09
-0.90
-0.49
0.01
0.45
0.74
0.85
0.81
0.65
0.42
0.20
0.08
0.15
0.46
0.95
1.52
1.96
2.15
2.02
1.65
1.13
0.61
0.14
-0.23
-0.54
-0.77
-0.90
-0.93
-0.85
-0.73
-0.64
-0.64
-0.74
-0.90
-1.07
-1.19
-1.23
-1.16
-0.99
-0.74
-0.45
-0.20
-0.06
-0.09
-0.25
-0.47
-0.62
-0.61
-0.40
0.00
0.51
1.00
1.35
1.49
1.41
1.14
0.82
0.51
0.27
0.06
-0.14
-0.33
-0.46
-0.50
-0.43
-0.34
-0.32
-0.40
-0.56
-0.66
-0.58
-0.27
0.18
0.60
0.83
0.80
0.52
0.09
-0.37
-0.75
-0.98
-1.03
-0.88
-0.57
-0.16
0.26
0.60
0.77
0.74
0.55
0.26
-0.02
-0.19
-0.22
-0.12
0.09
0.34
0.60
0.82
0.97
1.03
0.97
0.82
0.61
0.40
0.24
0.16
0.16
0.19
0.20
0.16
0.10
0.05
0.07
0.20
0.37
0.52
0.55
0.44
0.23
0.02
-0.09
-0.05
0.12
0.30
0.37
0.24
-0.08
-0.50
-0.86
-1.05
-1.01
-0.79
-0.52
-0.34
-0.33
-0.52
-0.80
-1.04
-1.14
-1.07
-0.87
-0.62
-0.36
-0.11
0.14
0.37
0.52
0.55
0.43
0.21
0.01
-0.02
0.17
0.54
0.97
1.30
1.47
1.46
1.33
1.14
0.92
0.68
0.40
0.11
-0.17
-0.44
-0.71
-0.98
-1.19
-1.24
-1.06
-0.65
-0.14
0.23
0.28
-0.05
-0.63
-1.22
-1.55
-1.51
-1.17
-0.70
-0.30
-0.13
-0.20
-0.43
-0.71
-0.91
-0.96
-0.85
-0.60
-0.31
-0.02
0.23
0.47
0.74
1.06
1.37
1.55
1.50
1.22
0.81
0.47
0.32
0.40
0.60
0.81
0.94
0.97
0.94
0.89
0.81
0.65
0.42
0.15
-0.07
-0.20
-0.22
-0.19
-0.16
-0.14
-0.13
-0.08
0.01
0.12
0.25
0.38
0.55
0.72
0.85
0.86
0.70
0.42
0.12
-0.08
-0.12
-0.01
0.16
0.31
0.37
0.31
0.13
-0.16
-0.52
-0.87
-1.14
-1.28
-1.28
-1.21
-1.13
-1.09
-1.05
-0.97
-0.86
-0.75
-0.71
-0.74
-0.79
-0.76
-0.58
-0.29
-0.01
0.18
0.24
0.26
0.32
0.51
0.77
0.96
0.97
0.74
0.31
-0.21
-0.67
-1.00
-1.19
-1.28
-1.27
-1.19
-1.02
-0.77
-0.44
-0.07
0.32
0.75
1.23
1.80
2.42
2.93
3.15
2.92
2.20
1.17
0.10
-0.68
-0.97
-0.77
-0.23
0.42
0.97
1.32
1.41
1.28
0.94
0.44
-0.17
-0.80
-1.37
-1.84
-2.20
-2.48
-2.63
-2.58
-2.22
-1.55
-0.65
0.26
0.97
1.35
1.41
1.28
1.13
1.03
0.96
0.86
0.64
0.30
-0.15
-0.65
-1.16
-1.67
-2.16
-2.60
-2.98
-3.28
-3.56
-3.82
-4.08
-4.31
-4.45
-4.47
-4.37
-4.22
-4.05
-3.88
-3.63
-3.23
-2.62
-1.83
-0.95
-0.09
0.66
1.28
1.81
2.32
2.86
3.45
4.11
4.83
5.60
6.37
7.07
7.62
7.96
8.08
8.04
7.87
7.57
7.09
6.36
5.33
4.07
2.74
1.53
0.57
-0.14
-0.64
-1.03
-1.34
-1.55
-1.63
-1.54
-1.32
-1.06
-0.84
-0.74
-0.76
-0.88
-1.03
-1.20
-1.36
-1.52
-1.69
-1.84
-1.93
-1.91
-1.74
-1.43
-1.05
-0.70
-0.44
-0.33
-0.33
-0.41
-0.49
-0.52
-0.50
-0.46
-0.43
-0.40
-0.37
-0.28
-0.15
0.00
0.10
0.09
-0.04
-0.20
-0.31
-0.27
-0.09
0.17
0.39
0.50
0.50
0.43
0.33
0.22
0.06
-0.18
-0.45
-0.67
-0.73
-0.59
-0.32
-0.05
0.07
-0.03
-0.31
-0.63
-0.83
-0.85
-0.71
-0.53
-0.43
-0.46
-0.61
-0.81
-0.97
-1.00
-0.83
-0.45
0.11
0.75
1.32
1.66
1.71
1.47
1.06
0.60
0.18
-0.18
-0.51
-0.81
-1.11
-1.35
-1.50
-1.57
-1.55
-1.47
-1.31
-1.02
-0.60
-0.12
0.32
0.58
0.58
0.35
-0.01
-0.36
-0.60
-0.66
-0.59
-0.42
-0.24
-0.09
0.02
0.06
0.03
-0.07
-0.24
-0.45
-0.63
-0.71
-0.61
-0.32
0.13
0.65
1.13
1.46
1.59
1.51
1.29
1.08
1.03
1.23
1.67
2.16
2.47
2.42
1.97
1.29
0.62
0.14
-0.09
-0.17
-0.22
-0.29
-0.32
-0.20
0.12
0.55
0.92
1.06
0.91
0.53
0.06
-0.33
-0.61
-0.79
-0.91
-1.03
-1.15
-1.28
-1.42
-1.56
-1.71
-1.84
-1.89
-1.86
-1.76
-1.66
-1.60
-1.59
-1.62
-1.62
-1.56
-1.42
-1.25
-1.09
-0.98
-0.92
-0.89
-0.82
-0.68
-0.45
-0.15
0.17
0.46
0.69
0.84
0.92
0.93
0.87
0.76
0.64
0.55
0.52
0.51
0.45
0.27
-0.08
-0.53
-1.00
-1.39
-1.62
-1.70
-1.69
-1.62
-1.52
-1.36
-1.12
-0.79
-0.40
0.03
0.50
0.99
1.50
1.99
2.37
2.57
2.54
2.29
1.89
1.48
1.19
1.11
1.27
1.60
1.98
2.28
2.38
2.27
2.00
1.69
1.42
1.23
1.11
1.00
0.89
0.78
0.74
0.79
0.90
0.99
0.97
0.79
0.53
0.31
0.26
0.40
0.66
0.86
0.87
0.65
0.27
-0.15
-0.50
-0.76
-0.96
-1.13
-1.28
-1.39
-1.42
-1.36
-1.22
-1.06
-0.91
-0.77
-0.62
-0.45
-0.26
-0.06
0.07
0.09
-0.05
-0.38
-0.85
-1.37
-1.79
-1.97
-1.82
-1.40
-0.83
-0.32
-0.02
0.01
-0.16
-0.38
-0.51
-0.49
-0.37
-0.25
-0.21
-0.26
-0.32
-0.28
-0.14
0.06
0.20
0.21
0.13
0.05
0.09
0.30
0.59
0.83
0.93
0.87
0.72
0.60
0.56
0.58
0.59
0.54
0.43
0.28
0.12
-0.06
-0.29
-0.60
-0.99
-1.36
-1.60
-1.63
-1.46
-1.16
-0.85
-0.65
-0.57
-0.61
-0.72
-0.85
-1.00
-1.14
-1.23
-1.20
-1.01
-0.65
-0.20
0.19
0.40
0.37
0.14
-0.16
-0.40
-0.48
-0.35
-0.07
0.28
0.55
0.66
0.57
0.32
0.01
-0.28
-0.50
-0.63
-0.70
-0.70
-0.66
-0.57
-0.44
-0.33
-0.24
-0.19
-0.13
-0.04
0.06
0.09
-0.07
-0.47
-1.05
-1.67
-2.12
-2.28
-2.17
-1.87
-1.50
-1.16
-0.88
-0.66
-0.55
-0.59
-0.83
-1.22
-1.66
-2.01
-2.18
-2.17
-2.06
-1.94
-1.85
-1.77
-1.64
-1.47
-1.27
-1.13
-1.05
-1.00
-0.87
-0.56
-0.05
0.58
1.23
1.80
2.26
2.65
3.02
3.38
3.73
4.02
4.21
4.27
4.23
4.13
4.05
4.03
4.09
4.16
4.18
4.07
3.82
3.46
3.07
2.73
2.43
2.15
1.81
1.39
0.92
0.46
0.07
-0.25
-0.54
-0.86
-1.28
-1.75
-2.17
-2.45
-2.51
-2.34
-2.05
-1.74
-1.53
-1.46
-1.50
-1.56
-1.58
-1.51
-1.38
-1.23
-1.11
-1.08
-1.16
-1.34
-1.57
-1.79
-1.92
-1.88
-1.66
-1.29
-0.83
-0.34
0.11
0.48
0.74
0.85
0.79
0.56
0.24
-0.12
-0.40
-0.55
-0.53
-0.38
-0.15
0.11
0.34
0.53
0.70
0.86
1.01
1.13
1.22
1.23
1.16
1.01
0.79
0.54
0.30
0.13
0.10
0.23
0.51
0.83
1.05
1.05
0.83
0.46
0.11
-0.08
-0.04
0.16
0.41
0.61
0.70
0.69
0.64
0.58
0.55
0.55
0.61
0.75
0.99
1.28
1.56
1.74
1.79
1.72
1.61
1.51
1.47
1.48
1.49
1.44
1.30
1.09
0.87
0.74
0.74
0.84
0.96
1.00
0.88
0.60
0.24
-0.08
-0.25
-0.23
-0.08
0.08
0.14
0.06
-0.13
-0.37
-0.57
-0.66
-0.64
-0.54
-0.42
-0.38
-0.48
-0.72
-1.05
-1.33
-1.44
-1.35
-1.11
-0.82
-0.60
-0.49
-0.44
-0.39
-0.27
-0.10
0.02
-0.01
-0.22
-0.56
-0.89
-1.06
-1.03
-0.82
-0.54
-0.32
-0.22
-0.23
-0.28
-0.27
-0.17
-0.02
0.11
0.15
0.07
-0.08
-0.24
-0.37
-0.50
-0.68
-0.95
-1.31
-1.69
-1.96
-2.00
-1.80
-1.40
-0.96
-0.59
-0.36
-0.26
-0.23
-0.19
-0.13
-0.08
-0.10
-0.23
-0.46
-0.74
-0.98
-1.13
-1.16
-1.09
-0.96
-0.79
-0.56
-0.27
0.06
0.35
0.55
0.60
0.52
0.38
0.27
0.23
0.24
0.19
0.02
-0.28
-0.61
-0.83
-0.83
-0.62
-0.28
0.06
0.29
0.42
0.50
0.60
0.75
0.92
1.05
1.12
1.15
1.20
1.35
1.57
1.81
1.92
1.82
1.44
0.83
0.13
-0.49
-0.90
-1.03
-0.94
-0.71
-0.49
-0.38
-0.38
-0.42
-0.41
-0.27
-0.02
0.25
0.39
0.31
0.03
-0.33
-0.62
-0.73
-0.67
-0.52
-0.43
-0.45
-0.55
-0.59
-0.46
-0.08
0.46
1.01
1.38
1.46
1.26
0.88
0.51
0.30
0.31
0.51
0.77
0.95
0.94
0.70
0.28
-0.18
-0.54
-0.66
-0.49
-0.07
0.45
0.88
1.04
0.87
0.45
-0.06
-0.45
-0.62
-0.55
-0.33
-0.15
-0.11
-0.27
-0.59
-0.95
-1.24
-1.36
-1.28
-1.03
-0.70
-0.36
-0.09
0.09
0.23
0.34
0.46
0.55
0.57
0.45
0.21
-0.09
-0.33
-0.40
-0.26
0.04
0.37
0.59
0.64
0.52
0.33
0.19
0.18
0.31
0.51
0.68
0.74
0.61
0.30
-0.14
-0.60
-0.95
-1.09
-1.00
-0.71
-0.32
0.05
0.30
0.38
0.28
0.04
-0.27
-0.57
-0.80
-0.90
-0.81
-0.56
-0.18
0.21
0.48
0.52
0.32
-0.05
-0.44
-0.69
-0.68
-0.43
-0.04
0.32
0.52
0.49
0.30
0.05
-0.15
-0.27
-0.35
-0.45
-0.63
-0.88
-1.10
-1.20
-1.09
-0.76
-0.28
0.21
0.58
0.71
0.60
0.33
0.05
-0.09
-0.02
0.20
0.43
0.54
0.46
0.28
0.12
0.10
0.23
0.40
0.49
0.43
0.25
0.06
-0.02
0.05
0.21
0.36
0.41
0.36
0.24
0.11
0.03
0.00
-0.01
-0.05
-0.16
-0.34
-0.60
-0.88
-1.09
-1.17
-1.04
-0.73
-0.30
0.10
0.37
0.46
0.37
0.18
-0.06
-0.27
-0.42
-0.42
-0.24
0.11
0.56
0.96
1.15
1.05
0.69
0.19
-0.27
-0.56
-0.60
-0.40
-0.05
0.36
0.68
0.84
0.77
0.53
0.21
-0.05
-0.18
-0.15
-0.03
0.11
0.22
0.29
0.34
0.38
0.37
0.28
0.11
-0.09
-0.23
-0.24
-0.15
-0.05
-0.05
-0.20
-0.44
-0.61
-0.59
-0.30
0.17
0.66
1.01
1.10
0.92
0.55
0.11
-0.30
-0.58
-0.68
-0.61
-0.39
-0.07
0.26
0.54
0.68
0.66
0.46
0.09
-0.37
-0.80
-1.06
-1.09
-0.90
-0.64
-0.53
-0.74
-1.31
-2.12
-2.96
-3.61
-3.96
-3.99
-3.83
-3.63
-3.53
-3.60
-3.83
-4.17
-4.54
-4.88
-5.17
-5.44
-5.75
-6.23
-6.96
-8.00
-9.32
-10.82
-12.31
-13.58
-14.41
-14.67
-14.31
-13.42
-12.15
-10.64
-8.99
-7.23
-5.33
-3.22
-0.84
1.82
4.72
7.73
10.65
13.19
15.05
15.99
15.98
15.18
13.95
12.67
11.62
10.89
10.41
10.00
9.50
8.82
8.00
7.08
6.14
5.23
4.37
3.63
3.10
2.85
2.86
3.03
3.13
2.98
2.45
1.65
0.77
0.09
-0.20
-0.09
0.32
0.84
1.32
1.69
1.91
1.98
1.85
1.51
0.97
0.36
-0.13
-0.36
-0.24
0.15
0.67
1.18
1.55
1.77
1.83
1.72
1.47
1.10
0.65
0.20
-0.18
-0.45
-0.59
-0.59
-0.44
-0.15
0.24
0.62
0.82
0.73
0.31
-0.36
-1.05
-1.55
-1.69
-1.42
-0.87
-0.25
0.21
0.34
0.09
-0.47
-1.17
-1.83
-2.32
-2.56
-2.54
-2.29
-1.86
-1.35
-0.88
-0.55
-0.45
-0.56
-0.75
-0.87
-0.82
-0.59
-0.25
0.04
0.15
0.03
-0.28
-0.68
-1.03
-1.21
-1.14
-0.86
-0.44
-0.03
0.23
0.27
0.07
-0.27
-0.64
-0.91
-1.03
-0.95
-0.70
-0.29
0.26
0.90
1.55
2.11
2.48
2.57
2.37
1.98
1.52
1.18
1.08
1.24
1.61
2.04
2.37
2.49
2.37
2.03
1.53
0.95
0.39
-0.06
-0.31
-0.33
-0.17
0.08
0.29
0.39
0.38
0.30
0.24
0.21
0.21
0.14
-0.03
-0.31
-0.65
-0.98
-1.22
-1.33
-1.32
-1.21
-1.08
-0.98
-0.93
-0.91
-0.84
-0.65
-0.33
0.07
0.47
0.77
0.94
0.97
0.91
0.76
0.54
0.27
-0.02
-0.23
-0.28
-0.14
0.13
0.39
0.55
0.56
0.51
0.47
0.50
0.58
0.64
0.63
0.50
0.32
0.12
-0.04
-0.14
-0.19
-0.21
-0.24
-0.26
-0.30
-0.32
-0.33
-0.32
-0.30
-0.27
-0.26
-0.27
-0.28
-0.30
-0.30
-0.31
-0.31
-0.29
-0.22
-0.07
0.15
0.40
0.59
0.65
0.53
0.26
-0.12
-0.53
-0.89
-1.14
-1.24
-1.22
-1.15
-1.11
-1.12
-1.16
-1.11
-0.87
-0.39
0.25
0.90
1.36
1.54
1.41
1.09
0.71
0.37
0.11
-0.10
-0.30
-0.51
-0.69
-0.78
-0.73
-0.52
-0.20
0.16
0.42
0.50
0.37
0.06
-0.32
-0.66
-0.84
-0.83
-0.62
-0.28
0.09
0.38
0.51
0.45
0.25
-0.01
-0.21
-0.30
-0.27
-0.14
0.04
0.25
0.46
0.65
0.76
0.75
0.58
0.32
0.04
-0.15
-0.17
-0.05
0.13
0.27
0.35
0.38
0.42
0.50
0.57
0.54
0.36
0.04
-0.29
-0.50
-0.50
-0.32
-0.06
0.12
0.14
-0.02
-0.27
-0.49
-0.61
-0.64
-0.61
-0.56
-0.49
-0.38
-0.22
-0.04
0.10
0.12
-0.02
-0.31
-0.66
-0.96
-1.09
-1.00
-0.70
-0.30
0.10
0.41
0.59
0.64
0.58
0.44
0.24
0.00
-0.20
-0.29
-0.19
0.08
0.41
0.65
0.71
0.57
0.32
0.12
0.03
0.06
0.11
0.10
0.02
-0.07
-0.04
0.18
0.56
0.97
1.21
1.18
0.85
0.35
-0.13
-0.43
-0.49
-0.36
-0.20
-0.12
-0.21
-0.40
-0.55
-0.52
-0.26
0.16
0.57
0.78
0.71
0.40
0.00
-0.29
-0.31
-0.06
0.39
0.86
1.17
1.23
1.00
0.55
-0.02
-0.58
-1.01
-1.23
-1.19
-0.90
-0.41
0.19
0.79
1.27
1.52
1.47
1.14
0.62
0.05
-0.40
-0.61
-0.58
-0.35
-0.07
0.16
0.28
0.28
0.22
0.15
0.09
0.02
-0.04
-0.13
-0.22
-0.27
-0.26
-0.19
-0.09
0.03
0.14
0.22
0.27
0.30
0.32
0.33
0.34
0.33
0.33
0.32
0.29
0.22
0.09
-0.05
-0.14
-0.09
0.11
0.44
0.79
1.04
1.10
0.94
0.59
0.11
-0.42
-0.92
-1.28
-1.43
-1.32
-0.96
-0.40
0.22
0.80
1.25
1.53
1.65
1.66
1.63
1.65
1.76
1.98
2.26
2.51
2.64
2.55
2.20
1.63
0.94
0.27
-0.28
-0.66
-0.90
-1.11
-1.35
-1.69
-2.09
-2.52
-2.94
-3.30
-3.57
-3.70
-3.61
-3.28
-2.71
-2.06
-1.49
-1.19
-1.18
-1.35
-1.50
-1.41
-1.03
-0.41
0.25
0.76
1.02
1.02
0.84
0.54
0.17
-0.23
-0.62
-0.91
-1.02
-0.89
-0.56
-0.14
0.22
0.42
0.41
0.23
-0.06
-0.42
-0.81
-1.16
-1.42
-1.47
-1.26
-0.81
-0.26
0.20
0.37
0.18
-0.32
-0.93
-1.43
-1.62
-1.43
-0.95
-0.34
0.19
0.53
0.65
0.60
0.47
0.32
0.18
0.07
-0.01
-0.01
0.11
0.37
0.72
1.05
1.20
1.09
0.74
0.25
-0.26
-0.66
-0.89
-0.93
-0.79
-0.49
-0.06
0.38
0.70
0.75
0.48
-0.07
-0.76
-1.40
-1.84
-2.02
-1.96
-1.74
-1.44
-1.15
-0.95
-0.88
-1.00
-1.29
-1.66
-2.01
-2.24
-2.37
-2.45
-2.61
-2.91
-3.30
-3.58
-3.53
-2.92
-1.64
0.27
2.67
5.32
7.91
10.16
11.78
12.62
12.66
12.06
11.07
9.96
8.87
7.82
6.74
5.57
4.34
3.22
2.40
2.00
1.99
2.18
2.36
2.37
2.16
1.84
1.49
1.13
0.72
0.13
-0.69
-1.70
-2.78
-3.74
-4.44
-4.81
-4.87
-4.73
-4.50
-4.30
-4.20
-4.19
-4.20
-4.19
-4.14
-4.06
-4.00
-3.96
-3.91
-3.77
-3.49
-3.05
-2.51
-1.92
-1.38
-0.96
-0.68
-0.55
-0.53
-0.58
-0.63
-0.60
-0.45
-0.20
0.08
0.29
0.37
0.30
0.14
-0.05
-0.21
-0.31
-0.38
-0.43
-0.45
-0.41
-0.26
0.02
0.38
0.74
1.00
1.14
1.17
1.19
1.23
1.31
1.34
1.22
0.90
0.43
-0.06
-0.37
-0.38
-0.09
0.39
0.86
1.15
1.17
0.95
0.58
0.20
-0.11
-0.31
-0.41
-0.44
-0.41
-0.34
-0.25
-0.19
-0.23
-0.42
-0.75
-1.13
-1.41
-1.45
-1.18
-0.68
-0.11
0.33
0.51
0.41
0.13
-0.19
-0.43
-0.52
-0.48
-0.36
-0.24
-0.19
-0.27
-0.44
-0.65
-0.83
-0.92
-0.90
-0.77
-0.54
-0.21
0.21
0.66
1.05
1.25
1.20
0.91
0.50
0.09
-0.22
-0.42
-0.56
-0.64
-0.65
-0.52
-0.26
0.07
0.33
0.42
0.27
-0.05
-0.36
-0.54
-0.54
-0.40
-0.22
-0.10
-0.06
-0.06
-0.03
0.08
0.26
0.46
0.60
0.63
0.52
0.34
0.17
0.07
0.06
0.08
0.06
-0.05
-0.24
-0.43
-0.53
-0.51
-0.37
-0.19
0.00
0.20
0.44
0.71
0.96
1.07
0.94
0.55
-0.01
-0.55
-0.90
-0.98
-0.82
-0.49
-0.12
0.20
0.43
0.55
0.54
0.40
0.15
-0.15
-0.39
-0.51
-0.46
-0.34
-0.23
-0.22
-0.28
-0.31
-0.21
0.02
0.27
0.41
0.33
0.05
-0.26
-0.44
-0.36
-0.06
0.31
0.59
0.65
0.50
0.22
-0.07
-0.26
-0.31
-0.26
-0.15
-0.09
-0.13
-0.30
-0.56
-0.84
-1.05
-1.08
-0.89
-0.51
-0.01
0.45
0.76
0.84
0.71
0.44
0.17
-0.01
-0.04
0.08
0.29
0.51
0.67
0.73
0.69
0.59
0.46
0.31
0.14
-0.04
-0.21
-0.32
-0.34
-0.30
-0.23
-0.19
-0.21
-0.27
-0.31
-0.27
-0.17
-0.03
0.06
0.08
0.05
0.00
0.00
0.06
0.15
0.22
0.26
0.32
0.46
0.70
0.98
1.20
1.22
0.99
0.55
0.07
-0.29
-0.41
-0.27
0.02
0.30
0.44
0.37
0.15
-0.13
-0.34
-0.36
-0.18
0.18
0.64
1.06
1.31
1.28
0.96
0.45
-0.11
-0.55
-0.79
-0.86
-0.85
-0.89
-1.04
-1.26
-1.45
-1.55
-1.53
-1.46
-1.39
-1.33
-1.23
-1.01
-0.64
-0.15
0.36
0.81
1.14
1.34
1.44
1.45
1.35
1.12
0.78
0.40
0.09
-0.09
-0.13
-0.11
-0.07
-0.06
-0.10
-0.15
-0.20
-0.24
-0.28
-0.29
-0.30
-0.30
-0.30
-0.32
-0.37
-0.42
-0.41
-0.30
-0.08
0.22
0.48
0.64
0.65
0.53
0.34
0.17
0.06
0.03
0.09
0.21
0.36
0.47
0.50
0.41
0.22
-0.03
-0.26
-0.40
-0.43
-0.40
-0.39
-0.47
-0.64
-0.84
-1.01
-1.06
-0.99
-0.83
-0.62
-0.39
-0.15
0.11
0.37
0.59
0.74
0.79
0.76
0.70
0.66
0.66
0.68
0.70
0.71
0.68
0.62
0.52
0.36
0.18
0.00
-0.09
-0.05
0.09
0.25
0.30
0.18
-0.07
-0.35
-0.54
-0.56
-0.46
-0.34
-0.29
-0.35
-0.48
-0.62
-0.70
-0.72
-0.68
-0.60
-0.48
-0.30
-0.09
0.10
0.21
0.20
0.10
-0.03
-0.09
-0.05
0.10
0.28
0.43
0.48
0.39
0.20
-0.02
-0.17
-0.17
-0.04
0.18
0.39
0.56
0.69
0.80
0.94
1.06
1.05
0.83
0.38
-0.22
-0.81
-1.21
-1.35
-1.28
-1.08
-0.86
-0.66
-0.49
-0.31
-0.11
0.10
0.31
0.49
0.62
0.71
0.75
0.72
0.62
0.43
0.20
-0.06
-0.25
-0.34
-0.29
-0.12
0.10
0.29
0.38
0.36
0.25
0.12
0.02
-0.04
-0.06
-0.06
-0.04
0.03
0.15
0.30
0.44
0.51
0.51
0.46
0.41
0.36
0.31
0.19
-0.02
-0.29
-0.56
-0.73
-0.77
-0.69
-0.54
-0.36
-0.16
0.06
0.31
0.55
0.73
0.81
0.76
0.62
0.42
0.21
0.03
-0.08
-0.13
-0.11
-0.05
0.02
0.06
0.06
0.01
-0.10
-0.28
-0.51
-0.77
-0.98
-1.06
-0.95
-0.65
-0.25
0.09
0.25
0.20
0.01
-0.20
-0.30
-0.25
-0.09
0.11
0.26
0.36
0.41
0.47
0.53
0.53
0.43
0.19
-0.14
-0.46
-0.69
-0.77
-0.72
-0.58
-0.43
-0.29
-0.17
-0.07
0.01
0.08
0.12
0.16
0.23
0.33
0.47
0.61
0.73
0.79
0.77
0.71
0.61
0.50
0.40
0.32
0.25
0.21
0.19
0.19
0.22
0.24
0.21
0.13
-0.04
-0.30
-0.60
-0.87
-1.05
-1.07
-0.92
-0.66
-0.34
-0.05
0.17
0.32
0.39
0.42
0.41
0.35
0.24
0.11
-0.04
-0.17
-0.27
-0.34
-0.36
-0.34
-0.27
-0.18
-0.10
-0.06
-0.11
-0.23
-0.39
-0.52
-0.53
-0.39
-0.12
0.21
0.48
0.62
0.63
0.57
0.50
0.47
0.44
0.33
0.08
-0.30
-0.66
-0.82
-0.66
-0.19
0.43
0.94
1.14
0.98
0.54
0.00
-0.42
-0.63
-0.63
-0.49
-0.33
-0.20
-0.13
-0.11
-0.12
-0.13
-0.16
-0.20
-0.26
-0.36
-0.47
-0.56
-0.60
-0.55
-0.42
-0.24
-0.05
0.10
0.18
0.18
0.13
0.07
0.01
-0.04
-0.13
-0.31
-0.58
-0.92
-1.23
-1.45
-1.54
-1.55
-1.55
-1.61
-1.72
-1.81
-1.79
-1.64
-1.41
-1.19
-1.08
-1.11
-1.25
-1.45
-1.68
-1.92
-2.23
-2.64
-3.13
-3.70
-4.29
-4.88
-5.46
-5.99
-6.47
-6.86
-7.14
-7.28
-7.35
-7.42
-7.57
-7.81
-8.02
-7.98
-7.41
-6.12
-4.15
-1.82
0.36
1.89
2.51
2.30
1.67
1.16
1.15
1.72
2.65
3.57
4.16
4.28
3.99
3.47
2.89
2.35
1.93
1.73
1.88
2.52
3.69
5.34
7.26
9.20
10.90
12.20
13.05
13.51
13.71
13.75
13.69
13.50
13.05
12.24
11.02
9.47
7.75
6.05
4.50
3.11
1.80
0.42
-1.11
-2.79
-4.50
-6.08
-7.37
-8.30
-8.87
-9.11
-9.08
-8.81
-8.36
-7.81
-7.25
-6.78
-6.40
-6.06
-5.65
-5.09
-4.39
-3.63
-2.90
-2.25
-1.69
-1.19
-0.77
-0.45
-0.30
-0.28
-0.26
-0.10
0.32
0.97
1.69
2.29
2.65
2.81
2.89
3.06
3.34
3.69
3.96
4.07
4.04
3.92
3.76
3.57
3.29
2.91
2.47
2.08
1.84
1.77
1.82
1.86
1.80
1.59
1.28
0.98
0.72
0.53
0.40
0.33
0.31
0.37
0.52
0.73
0.96
1.12
1.14
0.97
0.64
0.24
-0.13
-0.39
-0.51
-0.49
-0.39
-0.26
-0.15
-0.05
0.01
0.03
-0.00
-0.06
-0.13
-0.14
-0.07
0.11
0.40
0.77
1.20
1.60
1.87
1.91
1.63
1.06
0.33
-0.42
-1.03
-1.44
-1.65
-1.74
-1.76
-1.76
-1.73
-1.66
-1.55
-1.46
-1.45
-1.55
-1.72
-1.89
-1.92
-1.74
-1.34
-0.85
-0.41
-0.18
-0.18
-0.35
-0.53
-0.61
-0.52
-0.35
-0.22
-0.25
-0.45
-0.75
-1.01
-1.11
-1.04
-0.83
-0.60
-0.42
-0.32
-0.25
-0.14
0.01
0.19
0.32
0.32
0.13
-0.22
-0.66
-1.09
-1.40
-1.54
-1.46
-1.15
-0.63
0.02
0.70
1.28
1.63
1.74
1.65
1.51
1.48
1.61
1.89
2.18
2.31
2.14
1.64
0.90
0.13
-0.45
-0.67
-0.53
-0.13
0.29
0.56
0.57
0.35
0.00
-0.34
-0.59
-0.71
-0.73
-0.65
-0.47
-0.20
0.16
0.54
0.85
0.98
0.90
0.62
0.26
-0.05
-0.18
-0.07
0.22
0.58
0.85
0.90
0.69
0.26
-0.27
-0.77
-1.15
-1.34
-1.34
-1.17
-0.87
-0.47
-0.03
0.40
0.77
0.99
1.01
0.80
0.44
0.03
-0.25
-0.29
-0.07
0.34
0.78
1.06
1.10
0.88
0.49
0.06
-0.30
-0.54
-0.67
-0.73
-0.77
-0.78
-0.75
-0.66
-0.50
-0.30
-0.10
0.07
0.17
0.17
0.09
-0.08
-0.31
-0.60
-0.88
-1.08
-1.13
-0.95
-0.58
-0.08
0.37
0.66
0.68
0.47
0.14
-0.16
-0.30
-0.23
-0.03
0.18
0.30
0.28
0.18
0.11
0.15
0.36
0.68
1.01
1.22
1.23
1.05
0.78
0.50
0.29
0.13
-0.04
-0.25
-0.49
-0.70
-0.80
-0.72
-0.47
-0.10
0.28
0.58
0.75
0.74
0.58
0.35
0.12
0.02
0.08
0.28
0.47
0.50
0.28
-0.17
-0.72
-1.18
-1.42
-1.39
-1.15
-0.78
-0.41
-0.08
0.19
0.39
0.51
0.53
0.46
0.31
0.11
-0.09
-0.23
-0.27
-0.20
-0.05
0.10
0.19
0.18
0.12
0.06
0.08
0.19
0.36
0.53
0.62
0.59
0.44
0.22
-0.02
-0.23
-0.37
-0.45
-0.46
-0.44
-0.42
-0.41
-0.38
-0.32
-0.22
-0.09
0.04
0.12
0.14
0.12
0.11
0.15
0.26
0.38
0.45
0.41
0.25
0.06
-0.08
-0.11
-0.05
0.00
0.00
-0.08
-0.15
-0.14
-0.01
0.23
0.45
0.58
0.56
0.45
0.29
0.15
0.04
-0.05
-0.12
-0.15
-0.13
-0.08
-0.02
-0.01
-0.04
-0.08
-0.08
-0.05
-0.00
-0.02
-0.14
-0.36
-0.62
-0.82
-0.91
-0.86
-0.69
-0.48
-0.29
-0.17
-0.15
-0.21
-0.31
-0.37
-0.35
-0.19
0.09
0.40
0.65
0.78
0.76
0.61
0.41
0.25
0.18
0.21
0.29
0.31
0.21
-0.01
-0.26
-0.42
-0.40
-0.20
0.07
0.29
0.40
0.40
0.36
0.31
0.26
0.15
-0.05
-0.30
-0.52
-0.63
-0.60
-0.49
-0.38
-0.35
-0.41
-0.50
-0.55
-0.52
-0.43
-0.29
-0.11
0.13
0.45
0.83
1.21
1.54
1.79
1.99
2.19
2.44
2.72
2.96
3.04
2.87
2.45
1.89
1.33
0.95
0.85
1.03
1.43
1.96
2.49
2.97
3.34
3.58
3.68
3.67
3.59
3.51
3.47
3.53
3.70
3.97
4.36
4.83
5.37
5.90
6.34
6.65
6.81
6.86
6.86
6.87
6.92
6.98
7.05
7.07
7.02
6.82
6.38
5.65
4.58
3.23
1.68
0.03
-1.60
-3.15
-4.50
-5.59
-6.36
-6.81
-6.99
-7.02
-7.02
-7.10
-7.29
-7.58
-7.89
-8.12
-8.22
-8.17
-8.00
-7.76
-7.49
-7.15
-6.73
-6.22
-5.67
-5.20
-4.90
-4.78
-4.75
-4.68
-4.43
-3.97
-3.36
-2.75
-2.26
-1.96
-1.85
-1.82
-1.79
-1.68
-1.50
-1.30
-1.14
-1.04
-0.99
-0.93
-0.82
-0.67
-0.56
-0.53
-0.61
-0.74
-0.82
-0.79
-0.62
-0.39
-0.17
-0.02
0.05
0.09
0.15
0.24
0.36
0.48
0.59
0.67
0.70
0.65
0.52
0.32
0.11
-0.02
-0.06
-0.03
-0.00
-0.05
-0.16
-0.29
-0.35
-0.35
-0.35
-0.46
-0.73
-1.05
-1.24
-1.14
-0.68
0.02
0.73
1.23
1.40
1.27
0.94
0.55
0.18
-0.11
-0.32
-0.45
-0.51
-0.56
-0.65
-0.83
-1.11
-1.43
-1.68
-1.79
-1.77
-1.70
-1.71
-1.89
-2.23
-2.59
-2.79
-2.72
-2.34
-1.76
-1.15
-0.66
-0.39
-0.32
-0.38
-0.50
-0.60
-0.68
-0.75
-0.81
-0.84
-0.80
-0.59
-0.14
0.53
1.36
2.22
3.00
3.62
4.08
4.45
4.81
5.26
5.86
6.59
7.36
7.98
8.23
7.88
6.78
4.97
2.67
0.28
-1.71
-2.86
-2.96
-2.12
-0.73
0.62
1.42
1.35
0.47
-0.88
-2.27
-3.34
-3.96
-4.18
-4.11
-3.86
-3.45
-2.88
-2.17
-1.44
-0.81
-0.45
-0.43
-0.67
-1.01
-1.24
-1.24
-0.98
-0.55
-0.10
0.23
0.38
0.39
0.36
0.38
0.46
0.56
0.59
0.52
0.37
0.19
0.08
0.09
0.22
0.42
0.60
0.65
0.53
0.26
-0.08
-0.34
-0.41
-0.25
0.07
0.41
0.65
0.75
0.78
0.86
1.02
1.22
1.27
1.04
0.48
-0.27
-1.00
-1.51
-1.68
-1.53
-1.18
-0.77
-0.43
-0.24
-0.24
-0.47
-0.87
-1.37
-1.81
-2.09
-2.09
-1.81
-1.34
-0.82
-0.39
-0.14
-0.10
-0.20
-0.36
-0.48
-0.50
-0.41
-0.23
0.04
0.38
0.77
1.15
1.44
1.53
1.37
1.02
0.58
0.19
-0.05
-0.11
-0.04
0.12
0.33
0.59
0.86
1.11
1.26
1.24
1.04
0.71
0.35
0.06
-0.10
-0.11
-0.01
0.16
0.34
0.51
0.64
0.71
0.75
0.79
0.86
0.93
0.91
0.72
0.31
-0.22
-0.71
-0.97
-0.90
-0.53
-0.03
0.43
0.74
0.86
0.85
0.72
0.48
0.08
-0.48
-1.12
-1.71
-2.11
-2.23
-2.06
-1.66
-1.13
-0.54
0.04
0.53
0.85
0.94
0.77
0.43
0.04
-0.24
-0.30
-0.15
0.10
0.32
0.41
0.35
0.20
0.06
-0.02
-0.03
0.03
0.12
0.25
0.37
0.44
0.38
0.15
-0.21
-0.61
-0.87
-0.87
-0.56
-0.05
0.49
0.85
0.93
0.73
0.34
-0.09
-0.46
-0.68
-0.76
-0.69
-0.51
-0.27
-0.02
0.13
0.10
-0.13
-0.50
-0.88
-1.13
-1.16
-0.96
-0.62
-0.25
0.03
0.17
0.18
0.10
-0.02
-0.12
-0.12
0.00
0.25
0.56
0.79
0.80
0.53
0.04
-0.53
-0.99
-1.22
-1.20
-1.02
-0.77
-0.55
-0.37
-0.20
0.01
0.27
0.54
0.77
0.87
0.79
0.54
0.19
-0.16
-0.44
-0.62
-0.70
-0.71
-0.69
-0.62
-0.51
-0.35
-0.17
-0.01
0.07
0.04
-0.13
-0.42
-0.76
-1.08
-1.27
-1.24
-0.98
-0.57
-0.15
0.13
0.18
-0.00
-0.37
-0.84
-1.33
-1.80
-2.25
-2.71
-3.18
-3.66
-4.12
-4.55
-4.92
-5.17
-5.26
-5.10
-4.62
-3.74
-2.50
-0.99
0.59
1.98
2.92
3.30
3.13
2.58
1.89
1.26
0.82
0.59
0.59
0.82
1.31
2.05
2.92
3.74
4.32
4.53
4.41
4.06
3.64
3.25
2.91
2.60
2.32
2.07
1.87
1.67
1.37
0.93
0.34
-0.27
-0.76
-1.05
-1.17
-1.26
-1.48
-1.87
-2.38
-2.87
-3.24
-3.44
-3.56
-3.71
-3.99
-4.43
-5.02
-5.68
-6.35
-7.02
-7.64
-8.23
-8.79
-9.37
-10.06
-10.97
-12.22
-13.87
-15.84
-18.01
-20.20
-22.34
-24.52
-26.96
-29.94
-33.62
-37.88
-42.37
-46.62
-50.36
-53.70
-57.21
-61.72
-67.89
-75.89
-85.19
-94.73
-103.38
-110.41
-115.85
-120.52
-125.66
-132.47
-141.65
-153.28
-166.86
-181.37
-195.37
-206.81
-213.23
-212.12
-201.64
-181.22
-151.88
-115.75
-75.09
-31.40
14.82
63.39
113.17
161.19
202.88
233.42
249.68
251.61
242.26
226.45
208.90
192.70
178.80
166.61
155.12
143.83
132.90
122.88
114.08
106.29
98.92
91.33
83.23
74.84
66.81
59.87
54.48
50.62
47.77
45.13
41.97
37.90
33.06
28.04
23.58
20.25
18.19
17.08
16.27
15.12
13.31
10.95
8.48
6.43
5.13
4.55
4.38
4.20
3.76
3.07
2.35
1.92
1.89
2.17
2.44
2.34
1.65
0.40
-1.18
-2.75
-4.05
-4.98
-5.60
-6.05
-6.46
-6.84
-7.15
-7.28
-7.20
-6.95
-6.64
-6.34
-6.11
-5.92
-5.69
-5.38
-5.01
-4.65
-4.38
-4.24
-4.18
-4.08
-3.87
-3.48
-2.97
-2.45
-2.00
-1.70
-1.51
-1.40
-1.34
-1.32
-1.35
-1.47
-1.66
-1.87
-2.04
-2.15
-2.19
-2.19
-2.18
-2.20
-2.27
-2.35
-2.41
-2.42
-2.36
-2.25
-2.14
-2.09
-2.12
-2.22
-2.33
-2.40
-2.40
-2.34
-2.28
-2.29
-2.37
-2.48
-2.53
-2.49
-2.39
-2.33
-2.40
-2.61
-2.89
-3.07
-2.96
-2.46
-1.59
-0.47
0.74
1.92
3.02
4.05
5.04
6.02
6.93
7.71
8.30
8.70
8.95
9.12
9.27
9.42
9.53
9.54
9.42
9.19
8.94
8.81
8.95
9.50
10.50
11.86
13.39
14.82
15.88
16.39
16.33
15.87
15.27
14.80
14.63
14.83
15.35
16.20
17.46
19.34
21.98
25.36
29.14
32.72
35.50
37.07
37.34
36.49
34.85
32.69
30.20
27.49
24.63
21.47
17.53
12.04
4.24
-6.04
-18.03
-30.01
-39.89
-46.08
-48.12
-46.76
-43.48
-39.76
-36.49
-33.85
-31.63
-29.62
-27.79
-26.31
-25.29
-24.64
-24.03
-23.09
-21.60
-19.55
-17.15
-14.77
-12.73
-11.25
-10.34
-9.81
-9.34
-8.64
-7.55
-6.13
-4.67
-3.48
-2.79
-2.62
-2.76
-2.91
-2.81
-2.36
-1.67
-0.96
-0.44
-0.21
-0.24
-0.42
-0.59
-0.64
-0.51
-0.20
0.24
0.72
1.14
1.39
1.40
1.14
0.66
0.03
-0.63
-1.22
-1.69
-2.01
-2.20
-2.31
-2.39
-2.51
-2.68
-2.94
-3.30
-3.77
-4.34
-4.97
-5.58
-6.11
-6.56
-6.98
-7.50
-8.20
-9.06
-9.97
-10.74
-11.25
-11.49
-11.60
-11.79
-12.20
-12.82
-13.47
-13.76
-13.26
-11.58
-8.52
-4.23
0.83
6.00
10.61
14.16
16.45
17.52
17.53
16.70
15.22
13.32
11.31
9.51
8.24
7.64
7.66
8.06
8.51
8.68
8.38
7.58
6.40
5.10
3.95
3.16
2.75
2.57
2.41
2.10
1.60
1.01
0.51
0.21
0.14
0.23
0.40
0.59
0.76
0.88
0.86
0.60
0.02
-0.84
-1.84
-2.76
-3.39
-3.63
-3.48
-3.01
-2.32
-1.49
-0.59
0.34
1.23
1.96
2.40
2.47
2.15
1.53
0.79
0.15
-0.21
-0.24
-0.04
0.19
0.27
0.10
-0.24
-0.58
-0.77
-0.76
-0.61
-0.51
-0.58
-0.85
-1.23
-1.59
-1.83
-1.93
-1.90
-1.81
-1.70
-1.59
-1.51
-1.46
-1.46
-1.49
-1.48
-1.41
-1.22
-0.92
-0.49
0.06
0.76
1.57
2.43
3.21
3.78
4.03
3.91
3.43
2.67
1.70
0.62
-0.46
-1.41
-2.12
-2.52
-2.63
-2.51
-2.25
-1.91
-1.48
-0.94
-0.26
0.48
1.18
1.75
2.13
2.37
2.51
2.60
2.60
2.46
2.16
1.76
1.37
1.07
0.90
0.77
0.59
0.29
-0.10
-0.44
-0.57
-0.41
-0.00
0.50
0.90
1.06
0.92
0.55
0.07
-0.37
-0.67
-0.81
-0.80
-0.71
-0.62
-0.60
-0.70
-0.92
-1.18
-1.36
-1.39
-1.23
-0.93
-0.59
-0.30
-0.12
-0.05
-0.08
-0.18
-0.34
-0.56
-0.83
-1.14
-1.45
-1.73
-1.90
-1.92
-1.75
-1.45
-1.14
-0.98
-1.10
-1.52
-2.12
-2.70
-3.06
-3.12
-2.94
-2.69
-2.53
-2.50
-2.56
-2.60
-2.53
-2.33
-2.04
-1.70
-1.31
-0.82
-0.25
0.33
0.77
0.91
0.68
0.18
-0.37
-0.71
-0.66
-0.17
0.67
1.68
2.71
3.64
4.38
4.90
5.14
5.08
4.73
4.17
3.49
2.84
2.33
2.04
1.99
2.14
2.42
2.74
3.01
3.13
3.04
2.73
2.24
1.65
1.05
0.51
0.06
-0.29
-0.53
-0.67
-0.70
-0.61
-0.44
-0.26
-0.08
0.04
0.10
0.11
0.04
-0.09
-0.27
-0.45
-0.58
-0.61
-0.56
-0.48
-0.44
-0.45
-0.49
-0.49
-0.42
-0.32
-0.27
-0.32
-0.45
-0.54
-0.47
-0.18
0.26
0.68
0.91
0.88
0.67
0.40
0.18
0.02
-0.18
-0.50
-0.95
-1.43
-1.79
-1.95
-1.94
-1.93
-2.08
-2.47
-3.03
-3.60
-4.03
-4.27
-4.39
-4.54
-4.83
-5.24
-5.67
-5.98
-6.14
-6.19
-6.26
-6.42
-6.66
-6.91
-7.09
-7.23
-7.45
-7.87
-8.53
-9.24
-9.63
-9.27
-7.83
-5.22
-1.64
2.44
6.46
9.83
12.12
13.17
13.06
12.06
10.57
8.92
7.37
6.06
5.08
4.49
4.27
4.33
4.49
4.50
4.19
3.52
2.62
1.72
1.02
0.56
0.27
0.00
-0.36
-0.82
-1.26
-1.49
-1.37
-0.83
0.10
1.34
2.75
4.19
5.54
6.69
7.54
8.03
8.18
8.04
7.71
7.29
6.83
6.37
5.88
5.33
4.68
3.90
2.98
1.95
0.86
-0.22
-1.20
-2.01
-2.62
-3.04
-3.34
-3.58
-3.80
-4.03
-4.24
-4.42
-4.54
-4.60
-4.61
-4.60
-4.57
-4.52
-4.41
-4.27
-4.09
-3.91
-3.76
-3.66
-3.58
-3.47
-3.25
-2.87
-2.30
-1.61
-0.87
-0.21
0.30
0.60
0.72
0.68
0.54
0.34
0.12
-0.11
-0.30
-0.44
-0.52
-0.57
-0.64
-0.75
-0.90
-1.03
-1.08
-0.99
-0.77
-0.45
-0.07
0.31
0.65
0.93
1.14
1.33
1.57
1.95
2.51
3.17
3.78
4.14
4.12
3.72
3.00
2.11
1.13
0.15
-0.77
-1.56
-2.15
-2.49
-2.60
-2.57
-2.51
-2.52
-2.62
-2.79
-3.01
-3.21
-3.41
-3.61
-3.84
-4.15
-4.52
-4.92
-5.31
-5.65
-5.97
-6.34
-6.84
-7.47
-8.16
-8.78
-9.28
-9.70
-10.14
-10.70
-11.36
-11.98
-12.39
-12.41
-12.00
-11.21
-10.10
-8.72
-7.08
-5.15
-2.94
-0.46
2.30
5.32
8.56
11.88
15.01
17.62
19.34
19.98
19.56
18.33
16.68
14.96
13.38
12.00
10.75
9.61
8.62
7.90
7.52
7.48
7.63
7.73
7.61
7.21
6.66
6.14
5.85
5.85
6.07
6.35
6.50
6.47
6.27
6.05
6.01
6.29
6.90
7.74
8.56
9.06
9.00
8.31
7.18
6.03
5.35
5.59
6.96
9.42
12.61
15.94
18.51
19.23
17.02
11.16
1.62
-10.81
-24.73
-38.50
-50.87
-61.18
-69.36
-75.68
-80.41
-83.65
-85.39
-85.63
-84.51
-82.33
-79.56
-76.78
-74.60
-73.43
-73.20
-73.08
-71.56
-66.94
-58.15
-45.47
-30.72
-16.75
-6.43
-1.61
-2.63
-8.46
-17.20
-26.66
-34.74
-39.54
-39.62
-34.20
-23.58
-9.26
6.38
20.82
32.29
40.42
46.25
51.56
58.01
66.26
75.69
84.75
91.63
95.03
94.63
91.02
85.28
78.48
71.30
64.07
56.95
50.19
44.13
39.10
35.17
32.12
29.54
26.99
24.27
21.44
18.72
16.38
14.57
13.28
12.33
11.53
10.69
9.74
8.70
7.69
6.81
6.08
5.45
4.78
3.95
2.92
1.78
0.72
-0.08
-0.48
-0.44
-0.06
0.49
1.04
1.42
1.55
1.44
1.19
0.97
0.92
1.14
1.58
2.14
2.68
3.09
3.33
3.42
3.41
3.36
3.25
3.02
2.57
1.79
0.70
-0.60
-1.88
-2.91
-3.51
-3.64
-3.37
-2.91
-2.44
-2.11
-2.00
-2.08
-2.33
-2.69
-3.11
-3.54
-3.91
-4.16
-4.26
-4.22
-4.10
-3.93
-3.72
-3.47
-3.15
-2.73
-2.23
-1.69
-1.19
-0.78
-0.51
-0.41
-0.49
-0.76
-1.15
-1.56
-1.85
-1.93
-1.78
-1.53
-1.34
-1.35
-1.56
-1.86
-2.11
-2.19
-2.07
-1.83
-1.59
-1.45
-1.43
-1.51
-1.64
-1.73
-1.71
-1.55
-1.29
-0.99
-0.74
-0.57
-0.43
-0.22
0.14
0.61
1.04
1.25
1.16
0.87
0.58
0.49
0.66
0.98
1.28
1.43
1.43
1.35
1.32
1.34
1.34
1.22
0.94
0.58
0.26
0.10
0.15
0.32
0.53
0.68
0.73
0.69
0.59
0.44
0.28
0.11
-0.04
-0.16
-0.21
-0.17
-0.03
0.17
0.38
0.50
0.47
0.24
-0.16
-0.66
-1.17
-1.59
-1.86
-1.95
-1.85
-1.58
-1.17
-0.70
-0.22
0.16
0.39
0.46
0.39
0.22
0.01
-0.16
-0.25
-0.19
0.01
0.35
0.76
1.15
1.43
1.51
1.37
1.06
0.67
0.34
0.19
0.25
0.45
0.65
0.71
0.57
0.26
-0.08
-0.34
-0.43
-0.37
-0.23
-0.11
-0.09
-0.18
-0.33
-0.49
-0.59
-0.62
-0.60
-0.54
-0.44
-0.29
-0.07
0.17
0.40
0.51
0.47
0.27
0.02
-0.17
-0.22
-0.13
0.04
0.19
0.22
0.12
-0.11
-0.38
-0.61
-0.75
-0.74
-0.60
-0.37
-0.15
0.00
0.04
-0.00
-0.05
-0.04
0.03
0.11
0.12
0.01
-0.18
-0.37
-0.47
-0.45
-0.36
-0.28
-0.29
-0.38
-0.47
-0.47
-0.30
0.04
0.43
0.74
0.82
0.65
0.31
-0.05
-0.30
-0.32
-0.14
0.18
0.53
0.82
1.01
1.09
1.03
0.82
0.47
0.02
-0.41
-0.70
-0.76
-0.59
-0.26
0.11
0.44
0.68
0.84
0.93
0.96
0.88
0.67
0.31
-0.15
-0.61
-0.97
-1.14
-1.11
-0.94
-0.72
-0.54
-0.45
-0.47
-0.53
-0.57
-0.52
-0.34
-0.09
0.19
0.41
0.52
0.51
0.39
0.20
-0.04
-0.26
-0.44
-0.56
-0.60
-0.55
-0.43
-0.29
-0.15
-0.05
-0.04
-0.12
-0.30
-0.52
-0.72
-0.81
-0.78
-0.66
-0.55
-0.50
-0.57
-0.72
-0.86
-0.94
-0.95
-0.95
-1.04
-1.28
-1.65
-2.06
-2.41
-2.64
-2.77
-2.88
-3.03
-3.25
-3.52
-3.80
-4.05
-4.28
-4.44
-4.48
-4.33
-3.94
-3.34
-2.67
-2.08
-1.66
-1.37
-1.09
-0.65
0.02
0.88
1.78
2.58
3.16
3.52
3.70
3.83
3.99
4.25
4.63
5.11
5.69
6.33
7.03
7.73
8.37
8.86
9.12
9.12
8.91
8.59
8.23
7.83
7.33
6.64
5.70
4.57
3.36
2.23
1.33
0.67
0.18
-0.24
-0.71
-1.25
-1.83
-2.37
-2.79
-3.02
-3.11
-3.09
-3.05
-3.03
-3.03
-2.99
-2.87
-2.67
-2.44
-2.26
-2.20
-2.27
-2.42
-2.59
-2.69
-2.70
-2.59
-2.36
-2.01
-1.53
-0.97
-0.41
0.02
0.24
0.26
0.12
-0.07
-0.24
-0.38
-0.50
-0.60
-0.68
-0.72
-0.72
-0.73
-0.82
-0.98
-1.18
-1.31
-1.30
-1.15
-0.94
-0.79
-0.77
-0.85
-0.92
-0.90
-0.74
-0.50
-0.29
-0.17
-0.15
-0.15
-0.10
0.05
0.28
0.52
0.69
0.75
0.67
0.49
0.25
-0.00
-0.24
-0.42
-0.54
-0.60
-0.59
-0.54
-0.44
-0.29
-0.10
0.13
0.35
0.52
0.63
0.65
0.58
0.43
0.25
0.10
0.02
0.05
0.14
0.19
0.09
-0.20
-0.62
-1.02
-1.26
-1.24
-1.00
-0.66
-0.38
-0.22
-0.19
-0.24
-0.30
-0.34
-0.37
-0.41
-0.45
-0.45
-0.34
-0.09
0.27
0.63
0.87
0.90
0.69
0.30
-0.13
-0.48
-0.68
-0.71
-0.62
-0.47
-0.31
-0.16
-0.02
0.08
0.13
0.10
-0.00
-0.18
-0.39
-0.57
-0.65
-0.60
-0.41
-0.12
0.19
0.43
0.56
0.56
0.47
0.37
0.31
0.34
0.45
0.60
0.72
0.76
0.72
0.63
0.56
0.57
0.65
0.76
0.83
0.78
0.63
0.41
0.19
0.01
-0.09
-0.13
-0.15
-0.18
-0.25
-0.36
-0.50
-0.65
-0.73
-0.70
-0.55
-0.31
-0.07
0.11
0.19
0.20
0.15
0.07
-0.05
-0.20
-0.39
-0.56
-0.68
-0.72
-0.65
-0.50
-0.28
-0.02
0.24
0.43
0.49
0.43
0.27
0.07
-0.08
-0.16
-0.19
-0.21
-0.22
-0.20
-0.11
0.08
0.28
0.42
0.37
0.14
-0.19
-0.47
-0.57
-0.42
-0.10
0.25
0.49
0.51
0.31
-0.04
-0.38
-0.60
-0.60
-0.43
-0.17
0.08
0.22
0.28
0.31
0.36
0.46
0.57
0.64
0.65
0.63
0.63
0.69
0.78
0.84
0.80
0.61
0.31
-0.02
-0.30
-0.49
-0.58
-0.59
-0.51
-0.36
-0.18
-0.02
0.06
-0.02
-0.25
-0.57
-0.82
-0.88
-0.66
-0.24
0.23
0.58
0.70
0.60
0.39
0.20
0.10
0.07
0.07
0.04
0.01
0.01
0.03
0.04
-0.03
-0.19
-0.39
-0.52
-0.52
-0.39
-0.26
-0.24
-0.41
-0.68
-0.88
-0.87
-0.60
-0.18
0.21
0.42
0.43
0.32
0.22
0.21
0.30
0.43
0.53
0.58
0.56
0.49
0.36
0.20
0.02
-0.12
-0.17
-0.11
0.04
0.17
0.21
0.16
0.07
0.06
0.18
0.37
0.51
0.51
0.33
0.07
-0.18
-0.32
-0.39
-0.48
-0.67
-0.98
-1.32
-1.59
-1.69
-1.65
-1.51
-1.31
-1.09
-0.85
-0.61
-0.39
-0.20
-0.06
0.10
0.28
0.47
0.59
0.56
0.36
0.07
-0.16
-0.23
-0.11
0.10
0.28
0.37
0.41
0.49
0.68
0.95
1.17
1.21
1.02
0.65
0.24
-0.05
-0.13
-0.01
0.24
0.50
0.68
0.70
0.56
0.28
-0.07
-0.39
-0.60
-0.64
-0.55
-0.43
-0.36
-0.38
-0.48
-0.55
-0.52
-0.36
-0.14
0.02
0.04
-0.09
-0.27
-0.36
-0.29
-0.05
0.25
0.47
0.55
0.48
0.35
0.29
0.33
0.41
0.42
0.23
-0.16
-0.66
-1.04
-1.14
-0.91
-0.43
0.10
0.48
0.60
0.49
0.25
0.00
-0.19
-0.30
-0.34
-0.31
-0.16
0.11
0.48
0.88
1.18
1.31
1.25
1.04
0.80
0.62
0.56
0.60
0.65
0.63
0.50
0.31
0.16
0.16
0.33
0.63
0.90
1.02
0.90
0.58
0.15
-0.28
-0.64
-0.92
-1.14
-1.28
-1.31
-1.24
-1.09
-0.97
-0.97
-1.16
-1.53
-2.01
-2.48
-2.84
-3.02
-2.97
-2.68
-2.17
-1.46
-0.63
0.22
0.99
1.57
1.91
2.00
1.90
1.69
1.46
1.30
1.25
1.30
1.39
1.44
1.41
1.26
1.01
0.75
0.54
0.45
0.48
0.56
0.60
0.53
0.33
0.06
-0.17
-0.28
-0.23
-0.07
0.12
0.24
0.27
0.21
0.15
0.11
0.08
0.03
-0.05
-0.13
-0.14
-0.02
0.21
0.43
0.50
0.33
-0.08
-0.60
-1.04
-1.28
-1.26
-1.04
-0.73
-0.46
-0.30
-0.26
-0.30
-0.34
-0.30
-0.18
-0.01
0.13
0.18
0.11
-0.08
-0.30
-0.50
-0.61
-0.62
-0.53
-0.35
-0.10
0.18
0.46
0.70
0.86
0.89
0.79
0.59
0.33
0.09
-0.09
-0.20
-0.26
-0.34
-0.44
-0.54
-0.59
-0.56
-0.46
-0.36
-0.29
-0.29
-0.31
-0.32
-0.25
-0.12
0.04
0.20
0.35
0.50
0.67
0.85
1.01
1.08
1.03
0.83
0.54
0.24
0.05
0.06
0.26
0.60
0.94
1.17
1.21
1.07
0.82
0.52
0.25
-0.01
-0.25
-0.50
-0.71
-0.81
-0.73
-0.48
-0.12
0.22
0.38
0.28
-0.03
-0.42
-0.74
-0.88
-0.81
-0.62
-0.43
-0.34
-0.37
-0.44
-0.48
-0.43
-0.30
-0.14
-0.02
0.01
-0.05
-0.16
-0.26
-0.33
-0.36
-0.38
-0.41
-0.47
-0.52
-0.50
-0.39
-0.17
0.11
0.38
0.58
0.69
0.74
0.75
0.74
0.66
0.49
0.21
-0.15
-0.48
-0.72
-0.81
-0.78
-0.67
-0.53
-0.40
-0.27
-0.15
-0.03
0.06
0.10
0.09
0.07
0.07
0.11
0.18
0.26
0.31
0.32
0.32
0.33
0.33
0.32
0.27
0.17
0.02
-0.16
-0.37
-0.59
-0.84
-1.10
-1.31
-1.43
-1.38
-1.16
-0.79
-0.33
0.12
0.49
0.74
0.86
0.90
0.90
0.91
0.94
0.99
1.00
0.97
0.91
0.88
0.91
1.00
1.10
1.10
0.94
0.62
0.22
-0.11
-0.27
-0.21
-0.02
0.20
0.31
0.27
0.13
-0.06
-0.24
-0.39
-0.52
-0.62
-0.65
-0.59
-0.43
-0.22
-0.02
0.10
0.15
0.14
0.11
0.06
-0.03
-0.17
-0.34
-0.50
-0.58
-0.58
-0.53
-0.51
-0.56
-0.67
-0.80
-0.88
-0.88
-0.80
-0.69
-0.58
-0.51
-0.46
-0.40
-0.32
-0.21
-0.10
-0.00
0.07
0.15
0.28
0.46
0.71
0.94
1.06
1.01
0.77
0.41
0.07
-0.12
-0.09
0.15
0.49
0.79
0.93
0.88
0.69
0.47
0.32
0.25
0.23
0.18
0.06
-0.08
-0.19
-0.16
-0.01
0.23
0.44
0.50
0.36
0.07
-0.31
-0.64
-0.85
-0.89
-0.79
-0.64
-0.54
-0.57
-0.74
-0.97
-1.18
-1.23
-1.11
-0.84
-0.52
-0.24
-0.05
0.04
0.08
0.14
0.24
0.38
0.52
0.63
0.65
0.58
0.44
0.27
0.12
0.06
0.12
0.31
0.57
0.84
1.03
1.08
0.96
0.72
0.39
0.08
-0.14
-0.23
-0.17
-0.00
0.21
0.37
0.43
0.37
0.23
0.08
-0.02
-0.03
0.01
0.06
0.02
-0.16
-0.50
-0.96
-1.46
-1.91
-2.21
-2.32
-2.22
-1.97
-1.61
-1.22
-0.83
-0.46
-0.11
0.18
0.39
0.50
0.54
0.55
0.56
0.60
0.63
0.61
0.50
0.32
0.15
0.09
0.17
0.35
0.56
0.69
0.71
0.66
0.59
0.55
0.53
0.48
0.37
0.24
0.15
0.15
0.27
0.46
0.66
0.79
0.83
0.77
0.63
0.43
0.19
-0.06
-0.26
-0.37
-0.40
-0.38
-0.36
-0.40
-0.49
-0.62
-0.71
-0.73
-0.67
-0.55
-0.40
-0.28
-0.23
-0.25
-0.31
-0.32
-0.22
0.02
0.31
0.53
0.52
0.27
-0.14
-0.52
-0.70
-0.59
-0.24
0.19
0.53
0.70
0.67
0.55
0.40
0.26
0.11
-0.10
-0.35
-0.57
-0.68
-0.57
-0.26
0.14
0.48
0.62
0.55
0.39
0.26
0.25
0.34
0.44
0.42
0.23
-0.09
-0.46
-0.77
-0.95
-0.96
-0.84
-0.62
-0.36
-0.12
0.05
0.13
0.11
-0.00
-0.20
-0.45
-0.73
-0.97
-1.10
-1.06
-0.85
-0.50
-0.13
0.20
0.44
0.61
0.72
0.80
0.82
0.76
0.64
0.48
0.33
0.22
0.13
0.04
-0.03
-0.03
0.08
0.31
0.56
0.72
0.71
0.52
0.26
0.05
-0.02
0.02
0.11
0.13
0.05
-0.10
-0.23
-0.26
-0.16
0.05
0.30
0.51
0.61
0.59
0.48
0.34
0.24
0.21
0.24
0.27
0.27
0.23
0.19
0.21
0.32
0.46
0.57
0.56
0.39
0.10
-0.21
-0.43
-0.48
-0.35
-0.06
0.31
0.66
0.91
0.98
0.87
0.59
0.23
-0.12
-0.36
-0.45
-0.38
-0.21
-0.03
0.08
0.06
-0.12
-0.46
-0.90
-1.35
-1.70
-1.86
-1.75
-1.41
-0.90
-0.36
0.10
0.36
0.39
0.19
-0.19
-0.69
-1.21
-1.62
-1.77
-1.58
-1.01
-0.16
0.74
1.44
1.75
1.63
1.16
0.56
0.02
-0.33
-0.45
-0.36
-0.15
0.12
0.37
0.54
0.60
0.56
0.48
0.42
0.45
0.56
0.69
0.74
0.65
0.40
0.05
-0.27
-0.48
-0.55
-0.53
-0.51
-0.59
-0.77
-0.99
-1.15
-1.17
-1.04
-0.82
-0.58
-0.35
-0.13
0.12
0.39
0.65
0.81
0.83
0.70
0.51
0.31
0.18
0.10
0.04
0.01
0.02
0.11
0.28
0.47
0.55
0.44
0.15
-0.21
-0.49
-0.56
-0.41
-0.11
0.21
0.43
0.53
0.57
0.61
0.69
0.76
0.77
0.63
0.37
0.05
-0.20
-0.29
-0.20
-0.00
0.19
0.25
0.12
-0.15
-0.45
-0.63
-0.61
-0.36
0.04
0.50
0.89
1.13
1.18
1.03
0.72
0.32
-0.08
-0.33
-0.33
-0.03
0.53
1.15
1.63
1.77
1.52
0.96
0.29
-0.28
-0.63
-0.73
-0.65
-0.51
-0.37
-0.28
-0.24
-0.23
-0.25
-0.31
-0.42
-0.57
-0.77
-0.97
-1.11
-1.12
-0.96
-0.66
-0.33
-0.12
-0.12
-0.35
-0.67
-0.94
-1.06
-1.05
-1.00
-1.02
-1.14
-1.32
-1.45
-1.48
-1.39
-1.25
-1.09
-0.92
-0.71
-0.43
-0.11
0.20
0.40
0.44
0.32
0.10
-0.09
-0.13
0.02
0.32
0.68
0.97
1.10
1.08
1.01
0.97
1.01
1.12
1.20
1.21
1.12
0.99
0.88
0.80
0.73
0.61
0.42
0.16
-0.08
-0.24
-0.32
-0.36
-0.39
-0.43
-0.43
-0.34
-0.15
0.08
0.22
0.19
-0.03
-0.36
-0.65
-0.78
-0.71
-0.50
-0.27
-0.11
-0.05
-0.05
-0.06
-0.03
0.02
0.04
0.02
-0.01
0.03
0.21
0.51
0.83
1.04
1.04
0.85
0.60
0.46
0.53
0.75
0.96
1.00
0.76
0.29
-0.25
-0.71
-0.96
-1.02
-0.97
-0.88
-0.82
-0.77
-0.69
-0.56
-0.38
-0.22
-0.15
-0.22
-0.38
-0.54
-0.58
-0.40
-0.02
0.46
0.89
1.14
1.14
0.95
0.68
0.42
0.24
0.11
0.04
-0.00
-0.02
-0.01
0.06
0.16
0.27
0.38
0.45
0.46
0.40
0.28
0.10
-0.12
-0.38
-0.64
-0.87
-1.05
-1.15
-1.19
-1.18
-1.14
-1.04
-0.88
-0.67
-0.46
-0.29
-0.22
-0.21
-0.19
-0.06
0.20
0.54
0.85
1.03
1.05
0.97
0.91
0.92
1.00
1.11
1.17
1.14
1.00
0.74
0.36
-0.12
-0.62
-1.06
-1.35
-1.46
-1.37
-1.16
-0.87
-0.57
-0.31
-0.12
-0.04
-0.05
-0.11
-0.13
-0.07
0.07
0.26
0.40
0.45
0.37
0.20
-0.04
-0.31
-0.57
-0.82
-1.01
-1.14
-1.16
-1.06
-0.84
-0.49
-0.04
0.43
0.84
1.06
1.04
0.76
0.33
-0.09
-0.36
-0.38
-0.14
0.24
0.64
0.93
1.03
0.94
0.73
0.46
0.23
0.06
-0.02
-0.01
0.06
0.18
0.31
0.40
0.43
0.37
0.25
0.13
0.03
-0.03
-0.07
-0.14
-0.26
-0.40
-0.50
-0.52
-0.45
-0.33
-0.22
-0.16
-0.10
0.01
0.24
0.58
0.95
1.26
1.42
1.40
1.26
1.06
0.85
0.65
0.42
0.17
-0.12
-0.40
-0.63
-0.78
-0.84
-0.80
-0.71
-0.62
-0.57
-0.59
-0.71
-0.89
-1.06
-1.12
-1.02
-0.74
-0.35
0.00
0.21
0.21
0.03
-0.23
-0.42
-0.50
-0.47
-0.39
-0.32
-0.26
-0.16
0.03
0.30
0.57
0.72
0.67
0.43
0.11
-0.17
-0.33
-0.36
-0.30
-0.23
-0.20
-0.22
-0.27
-0.29
-0.22
-0.02
0.29
0.63
0.90
0.99
0.86
0.55
0.15
-0.22
-0.45
-0.51
-0.39
-0.15
0.16
0.45
0.67
0.78
0.77
0.66
0.48
0.26
0.02
-0.17
-0.27
-0.24
-0.12
0.01
0.02
-0.15
-0.49
-0.87
-1.17
-1.28
-1.17
-0.93
-0.65
-0.42
-0.29
-0.23
-0.22
-0.21
-0.17
-0.04
0.17
0.47
0.81
1.15
1.46
1.74
1.98
2.21
2.45
2.67
2.82
2.87
2.80
2.69
2.64
2.74
3.02
3.44
3.91
4.32
4.61
4.75
4.80
4.89
5.21
5.98
7.34
9.22
11.35
13.24
14.47
14.85
14.64
14.50
15.22
17.38
20.99
25.46
29.80
33.09
34.90
35.57
36.11
37.71
41.22
46.66
53.21
59.56
64.46
67.33
68.54
69.16
70.58
74.10
80.67
90.65
103.50
117.26
128.32
131.85
123.31
100.35
64.46
21.12
-21.67
-56.18
-77.54
-84.95
-81.13
-70.47
-57.02
-43.23
-30.07
-17.75
-6.47
3.35
11.40
18.11
24.86
33.54
45.37
59.81
74.20
84.67
87.93
83.24
73.27
63.37
59.33
64.79
79.36
98.58
115.53
123.37
117.46
96.33
61.49
16.61
-33.46
-83.43
-128.16
-163.32
-186.23
-196.27
-195.01
-185.66
-172.04
-157.52
-144.27
-133.16
-124.12
-116.63
-110.07
-103.92
-97.75
-91.24
-84.30
-77.09
-69.99
-63.43
-57.74
-52.97
-48.90
-45.12
-41.22
-36.98
-32.47
-28.05
-24.14
-21.09
-18.94
-17.41
-16.07
-14.47
-12.46
-10.15
-7.91
-6.12
-5.02
-4.52
-4.27
-3.92
-3.23
-2.25
-1.24
-0.53
-0.27
-0.42
-0.73
-0.95
-0.93
-0.69
-0.37
-0.08
0.11
0.22
0.31
0.40
0.45
0.39
0.20
-0.07
-0.35
-0.50
-0.44
-0.19
0.20
0.57
0.75
0.65
0.25
-0.34
-0.96
-1.44
-1.72
-1.81
-1.81
-1.82
-1.83
-1.79
-1.64
-1.32
-0.88
-0.39
0.04
0.39
0.67
0.96
1.27
1.54
1.67
1.58
1.29
0.88
0.51
0.32
0.33
0.49
0.70
0.88
0.98
1.02
1.02
0.96
0.84
0.61
0.33
0.08
-0.02
0.10
0.42
0.81
1.10
1.18
1.03
0.75
0.48
0.31
0.28
0.33
0.36
0.32
0.21
0.07
-0.05
-0.12
-0.12
-0.06
0.04
0.13
0.17
0.08
-0.18
-0.57
-0.99
-1.31
-1.42
-1.29
-0.98
-0.60
-0.26
-0.01
0.14
0.23
0.28
0.32
0.32
0.27
0.16
0.01
-0.12
-0.18
-0.13
0.02
0.22
0.39
0.43
0.33
0.12
-0.10
-0.21
-0.17
-0.02
0.14
0.23
0.20
0.07
-0.11
-0.33
-0.56
-0.80
-0.99
-1.04
-0.89
-0.54
-0.09
0.31
0.54
0.58
0.53
0.50
0.56
0.67
0.74
0.71
0.59
0.48
0.48
0.61
0.80
0.92
0.87
0.65
0.36
0.11
-0.03
-0.06
-0.02
0.00
-0.01
-0.06
-0.17
-0.35
-0.61
-0.94
-1.26
-1.44
-1.38
-1.04
-0.49
0.15
0.70
1.05
1.16
1.07
0.86
0.64
0.44
0.25
0.03
-0.24
-0.51
-0.66
-0.63
-0.40
-0.10
0.14
0.19
0.07
-0.11
-0.21
-0.15
0.02
0.18
0.23
0.14
-0.00
-0.08
-0.01
0.17
0.37
0.46
0.40
0.21
-0.01
-0.16
-0.22
-0.17
-0.08
0.01
0.09
0.14
0.20
0.26
0.31
0.35
0.37
0.38
0.39
0.41
0.42
0.39
0.30
0.17
0.05
-0.04
-0.08
-0.09
-0.11
-0.17
-0.24
-0.29
-0.25
-0.10
0.15
0.43
0.68
0.81
0.77
0.52
0.10
-0.41
-0.88
-1.22
-1.38
-1.40
-1.34
-1.29
-1.25
-1.21
-1.11
-0.95
-0.78
-0.63
-0.54
-0.50
-0.43
-0.33
-0.18
-0.05
0.02
-0.01
-0.09
-0.13
-0.04
0.22
0.63
1.09
1.44
1.59
1.49
1.22
0.90
0.64
0.49
0.43
0.40
0.34
0.28
0.28
0.40
0.68
1.06
1.43
1.63
1.57
1.25
0.78
0.27
-0.17
-0.51
-0.77
-1.00
-1.20
-1.29
-1.21
-0.89
-0.38
0.20
0.66
0.88
0.83
0.58
0.28
0.04
-0.09
-0.15
-0.19
-0.26
-0.35
-0.44
-0.46
-0.42
-0.33
-0.25
-0.24
-0.29
-0.39
-0.49
-0.59
-0.69
-0.80
-0.90
-0.94
-0.88
-0.72
-0.51
-0.32
-0.22
-0.18
-0.16
-0.08
0.10
0.35
0.57
0.65
0.53
0.22
-0.18
-0.53
-0.71
-0.68
-0.49
-0.24
-0.06
-0.01
-0.06
-0.15
-0.16
-0.02
0.28
0.69
1.11
1.41
1.49
1.30
0.85
0.28
-0.21
-0.42
-0.25
0.26
0.89
1.36
1.49
1.24
0.77
0.27
-0.11
-0.31
-0.41
-0.49
-0.61
-0.74
-0.82
-0.81
-0.73
-0.66
-0.66
-0.71
-0.77
-0.74
-0.55
-0.24
0.16
0.54
0.84
1.05
1.15
1.19
1.16
1.11
1.04
1.00
0.99
1.01
1.01
0.93
0.72
0.37
-0.07
-0.48
-0.76
-0.80
-0.59
-0.23
0.15
0.38
0.37
0.11
-0.28
-0.68
-0.92
-0.97
-0.83
-0.60
-0.34
-0.10
0.13
0.34
0.52
0.62
0.63
0.53
0.39
0.26
0.20
0.20
0.21
0.17
0.05
-0.13
-0.30
-0.37
-0.32
-0.15
0.07
0.28
0.41
0.40
0.24
-0.06
-0.41
-0.73
-0.96
-1.03
-0.96
-0.77
-0.53
-0.27
-0.05
0.11
0.19
0.19
0.10
-0.05
-0.23
-0.39
-0.49
-0.51
-0.45
-0.34
-0.21
-0.14
-0.19
-0.38
-0.67
-1.00
-1.27
-1.38
-1.29
-1.03
-0.72
-0.46
-0.33
-0.33
-0.37
-0.34
-0.16
0.16
0.53
0.85
1.06
1.13
1.12
1.07
0.97
0.78
0.48
0.15
-0.09
-0.12
0.09
0.45
0.77
0.89
0.77
0.48
0.14
-0.12
-0.29
-0.40
-0.50
-0.62
-0.74
-0.82
-0.83
-0.78
-0.69
-0.59
-0.49
-0.40
-0.30
-0.15
0.07
0.38
0.75
1.10
1.35
1.40
1.25
0.93
0.54
0.18
-0.07
-0.17
-0.15
-0.04
0.09
0.17
0.14
0.01
-0.15
-0.23
-0.14
0.13
0.50
0.83
0.95
0.82
0.47
0.03
-0.37
-0.66
-0.80
-0.81
-0.69
-0.47
-0.19
0.09
0.29
0.37
0.38
0.39
0.47
0.65
0.84
0.94
0.84
0.56
0.20
-0.09
-0.23
-0.25
-0.27
-0.40
-0.64
-0.89
-1.00
-0.86
-0.53
-0.17
0.03
-0.02
-0.23
-0.40
-0.35
0.02
0.59
1.15
1.50
1.49
1.15
0.63
0.13
-0.15
-0.14
0.12
0.50
0.84
0.98
0.89
0.61
0.24
-0.10
-0.34
-0.42
-0.35
-0.14
0.15
0.50
0.85
1.15
1.36
1.48
1.60
1.78
2.08
2.46
2.79
2.88
2.61
1.97
1.12
0.35
-0.00
0.34
1.49
3.31
5.48
7.50
8.93
9.48
9.12
8.03
6.52
4.87
3.25
1.74
0.37
-0.84
-1.91
-2.98
-4.23
-5.91
-8.16
-10.84
-13.61
-15.93
-17.36
-17.71
-17.19
-16.23
-15.37
-14.99
-15.15
-15.61
-15.99
-15.91
-15.23
-14.07
-12.73
-11.52
-10.62
-10.02
-9.47
-8.59
-6.98
-4.32
-0.59
3.90
8.53
12.49
15.05
15.84
14.93
12.80
10.08
7.38
5.03
3.13
1.57
0.16
-1.29
-2.92
-4.73
-6.65
-8.47
-9.90
-10.69
-10.70
-10.03
-9.01
-8.13
-7.80
-8.18
-9.11
-10.08
-10.45
-9.70
-7.66
-4.64
-1.33
1.40
2.86
2.68
0.97
-1.90
-5.41
-9.18
-13.05
-17.07
-21.28
-25.61
-29.75
-33.18
-35.46
-36.38
-36.17
-35.54
-35.34
-36.31
-38.64
-41.86
-44.96
-46.79
-46.53
-44.13
-40.38
-36.65
-34.39
-34.38
-36.19
-37.90
-36.24
-27.17
-6.69
28.04
77.51
138.93
205.83
268.97
318.24
345.31
345.83
320.37
273.80
213.59
147.93
84.22
28.40
-15.40
-45.06
-60.70
-64.79
-61.62
-56.07
-52.12
-51.71
-54.57
-58.96
-62.73
-64.44
-63.66
-60.96
-57.33
-53.72
-50.68
-48.28
-46.25
-44.28
-42.14
-39.83
-37.42
-34.98
-32.50
-29.91
-27.18
-24.45
-21.98
-20.11
-19.03
-18.68
-18.76
-18.79
-18.40
-17.44
-16.06
-14.59
-13.38
-12.56
-12.04
-11.55
-10.83
-9.75
-8.37
-6.90
-5.57
-4.50
-3.69
-3.03
-2.43
-1.87
-1.40
-1.08
-0.91
-0.83
-0.77
-0.75
-0.85
-1.22
-1.95
-2.98
-4.07
-4.94
-5.41
-5.53
-5.56
-5.84
-6.63
-7.91
-9.36
-10.54
-11.06
-10.81
-9.95
-8.86
-7.90
-7.27
-6.90
-6.56
-5.95
-4.82
-3.02
-0.55
2.48
5.87
9.29
12.41
14.89
16.51
17.19
17.03
16.21
15.00
13.66
12.36
11.17
9.98
8.54
6.61
4.10
1.18
-1.74
-4.09
-5.44
-5.66
-4.93
-3.69
-2.40
-1.40
-0.79
-0.49
-0.36
-0.28
-0.22
-0.20
-0.29
-0.51
-0.81
-1.14
-1.40
-1.56
-1.69
-1.87
-2.22
-2.81
-3.67
-4.79
-6.12
-7.58
-9.11
-10.63
-12.05
-13.24
-14.03
-14.17
-13.48
-11.84
-9.36
-6.39
-3.40
-0.86
0.91
1.88
2.21
2.22
2.20
2.33
2.62
2.98
3.28
3.41
3.30
2.95
2.42
1.87
1.52
1.64
2.40
3.84
5.75
7.81
9.64
10.94
11.58
11.58
11.02
9.96
8.39
6.34
3.91
1.36
-0.95
-2.67
-3.61
-3.79
-3.44
-2.86
-2.37
-2.11
-2.04
-1.98
-1.69
-1.01
0.06
1.34
2.58
3.53
4.10
4.31
4.31
4.23
4.21
4.30
4.55
4.95
5.43
5.87
6.09
5.94
5.43
4.69
3.95
3.45
3.29
3.46
3.79
4.13
4.34
4.37
4.22
3.90
3.50
3.09
2.78
2.60
2.47
2.21
1.62
0.56
-0.89
-2.47
-3.86
-4.77
-5.11
-4.97
-4.56
-4.11
-3.77
-3.59
-3.53
-3.48
-3.39
-3.21
-2.97
-2.77
-2.66
-2.65
-2.63
-2.48
-2.11
-1.53
-0.87
-0.30
0.07
0.23
0.30
0.40
0.65
1.03
1.50
1.93
2.25
2.40
2.41
2.33
2.22
2.16
2.23
2.44
2.77
3.17
3.55
3.86
4.08
4.23
4.36
4.50
4.65
4.78
4.89
4.99
5.10
5.25
5.38
5.40
5.21
4.80
4.23
3.63
3.04
2.41
1.64
0.64
-0.49
-1.55
-2.24
-2.38
-1.97
-1.22
-0.47
-0.07
-0.31
-1.30
-3.01
-5.21
-7.60
-9.78
-11.43
-12.35
-12.52
-12.09
-11.22
-10.11
-8.86
-7.58
-6.33
-5.22
-4.36
-3.87
-3.77
-4.00
-4.39
-4.70
-4.74
-4.42
-3.79
-3.00
-2.26
-1.68
-1.28
-0.99
-0.72
-0.43
-0.16
-0.01
-0.03
-0.18
-0.35
-0.39
-0.22
0.10
0.45
0.66
0.66
0.49
0.28
0.19
0.31
0.64
1.07
1.49
1.80
1.98
2.07
2.12
2.15
2.12
1.99
1.71
1.29
0.81
0.39
0.15
0.11
0.26
0.50
0.75
0.97
1.18
1.41
1.71
2.12
2.62
3.22
3.88
4.57
5.23
5.80
6.26
6.62
6.90
7.12
7.30
7.40
7.43
7.38
7.30
7.20
7.12
7.02
6.87
6.57
6.08
5.38
4.49
3.49
2.47
1.55
0.78
0.16
-0.39
-1.01
-1.84
-2.98
-4.41
-5.98
-7.50
-8.78
-9.66
-10.12
-10.25
-10.13
-9.90
-9.59
-9.22
-8.75
-8.15
-7.35
-6.29
-4.93
-3.27
-1.38
0.60
2.47
4.01
5.08
5.66
5.77
5.52
5.00
4.30
3.49
2.63
1.80
1.05
0.43
-0.05
-0.42
-0.68
-0.82
-0.82
-0.69
-0.48
-0.27
-0.16
-0.18
-0.35
-0.62
-0.96
-1.31
-1.61
-1.77
-1.75
-1.54
-1.23
-0.93
-0.75
-0.71
-0.76
-0.78
-0.71
-0.52
-0.27
-0.01
0.20
0.37
0.53
0.70
0.90
1.12
1.33
1.49
1.59
1.60
1.55
1.51
1.59
1.88
2.39
3.06
3.72
4.21
4.41
4.30
3.98
3.59
3.23
2.92
2.62
2.27
1.83
1.33
0.83
0.42
0.14
-0.01
-0.07
-0.06
0.00
0.11
0.27
0.44
0.58
0.65
0.65
0.62
0.62
0.72
0.89
1.09
1.22
1.18
0.91
0.41
-0.30
-1.13
-2.02
-2.87
-3.62
-4.25
-4.79
-5.27
-5.72
-6.12
-6.41
-6.48
-6.30
-5.87
-5.32
-4.81
-4.48
-4.37
-4.43
-4.56
-4.65
-4.66
-4.58
-4.46
-4.32
-4.16
-4.00
-3.85
-3.76
-3.82
-4.05
-4.45
-4.96
-5.51
-6.07
-6.62
-7.19
-7.73
-8.19
-8.53
-8.76
-8.97
-9.28
-9.78
-10.48
-11.31
-12.17
-12.99
-13.63
-13.88
-13.37
-11.70
-8.61
-4.10
1.42
7.33
12.90
17.58
21.07
23.33
24.45
24.63
24.06
22.92
21.42
19.76
18.09
16.52
15.08
13.73
12.34
10.80
9.09
7.36
5.94
5.23
5.50
6.72
8.53
10.36
11.62
11.94
11.31
9.97
8.23
6.36
4.32
1.93
-1.11
-4.98
-9.65
-14.88
-20.25
-25.22
-29.19
-31.61
-32.07
-30.52
-27.42
-23.71
-20.59
-19.12
-19.76
-22.28
-25.80
-29.35
-32.14
-33.90
-34.87
-35.49
-36.30
-37.75
-40.17
-43.52
-47.15
-49.53
-48.66
-42.73
-31.16
-15.20
2.20
17.50
27.90
32.39
31.92
28.60
24.56
21.04
18.22
15.59
12.62
9.16
5.31
1.14
-3.43
-8.32
-12.84
-15.60
-14.79
-9.10
1.38
14.85
28.37
38.96
44.83
45.86
43.37
39.28
35.14
31.75
29.20
27.30
25.91
25.02
24.61
24.47
24.24
23.50
22.01
19.77
17.09
14.40
12.10
10.32
8.97
7.74
6.35
4.65
2.74
0.92
-0.48
-1.24
-1.31
-0.86
-0.13
0.58
1.06
1.23
1.11
0.82
0.48
0.20
0.03
-0.05
-0.09
-0.15
-0.31
-0.58
-0.96
-1.40
-1.80
-2.03
-2.00
-1.67
-1.12
-0.50
0.05
0.45
0.74
0.97
1.20
1.44
1.61
1.65
1.57
1.40
1.21
1.02
0.77
0.41
-0.10
-0.68
-1.18
-1.48
-1.50
-1.28
-0.96
-0.65
-0.45
-0.36
-0.32
-0.25
-0.05
0.33
0.86
1.42
1.84
1.94
1.66
1.12
0.51
0.07
-0.09
-0.03
0.09
0.10
-0.03
-0.23
-0.34
-0.25
0.01
0.31
0.49
0.46
0.27
0.03
-0.12
-0.11
0.03
0.21
0.34
0.41
0.45
0.50
0.60
0.70
0.70
0.51
0.11
-0.43
-0.93
-1.26
-1.33
-1.19
-0.95
-0.75
-0.64
-0.63
-0.65
-0.67
-0.68
-0.68
-0.69
-0.68
-0.62
-0.44
-0.12
0.29
0.72
1.03
1.12
0.92
0.49
-0.03
-0.45
-0.63
-0.55
-0.29
-0.01
0.16
0.17
0.04
-0.17
-0.43
-0.72
-1.03
-1.31
-1.44
-1.33
-0.91
-0.25
0.49
1.11
1.47
1.55
1.41
1.20
0.97
0.76
0.55
0.35
0.19
0.14
0.25
0.49
0.75
0.89
0.84
0.59
0.26
-0.02
-0.13
-0.08
0.06
0.20
0.24
0.14
-0.06
-0.33
-0.60
-0.84
-0.99
-1.02
-0.90
-0.62
-0.21
0.22
0.54
0.63
0.44
0.03
-0.44
-0.81
-0.96
-0.84
-0.52
-0.10
0.32
0.66
0.87
0.96
0.94
0.86
0.78
0.74
0.74
0.74
0.68
0.53
0.28
-0.02
-0.29
-0.46
-0.53
-0.51
-0.46
-0.45
-0.49
-0.56
-0.59
-0.50
-0.29
0.00
0.25
0.33
0.18
-0.17
-0.59
-0.93
-1.04
-0.90
-0.56
-0.15
0.22
0.46
0.59
0.65
0.75
0.93
1.18
1.39
1.45
1.26
0.87
0.43
0.13
0.10
0.36
0.77
1.17
1.46
1.59
1.64
1.69
1.80
1.96
2.14
2.29
2.40
2.48
2.53
2.58
2.65
2.76
2.94
3.18
3.47
3.76
4.05
4.35
4.68
5.06
5.43
5.75
5.93
5.95
5.83
5.63
5.40
5.10
4.62
3.86
2.75
1.40
0.03
-1.06
-1.59
-1.35
-0.31
1.40
3.49
5.64
7.52
8.92
9.82
10.34
10.74
11.32
12.31
13.77
15.50
16.92
17.18
15.33
10.73
3.40
-5.80
-15.34
-23.52
-29.02
-31.34
-30.84
-28.40
-25.03
-21.47
-18.13
-15.15
-12.55
-10.34
-8.52
-7.01
-5.71
-4.48
-3.26
-2.12
-1.22
-0.76
-0.82
-1.36
-2.17
-2.94
-3.42
-3.47
-3.14
-2.64
-2.22
-2.05
-2.18
-2.50
-2.83
-3.04
-3.06
-2.91
-2.64
-2.34
-2.03
-1.71
-1.37
-1.01
-0.68
-0.43
-0.29
-0.30
-0.42
-0.61
-0.85
-1.08
-1.29
-1.48
-1.59
-1.54
-1.25
-0.70
0.06
0.91
1.66
2.19
2.44
2.40
2.16
1.82
1.45
1.16
1.03
1.14
1.53
2.13
2.81
3.36
3.60
3.44
2.96
2.31
1.71
1.30
1.14
1.17
1.26
1.31
1.26
1.14
0.99
0.86
0.77
0.67
0.56
0.40
0.22
0.09
0.04
0.08
0.15
0.16
0.07
-0.15
-0.46
-0.80
-1.09
-1.29
-1.36
-1.29
-1.11
-0.87
-0.66
-0.58
-0.71
-1.05
-1.51
-1.95
-2.22
-2.25
-2.08
-1.84
-1.69
-1.74
-2.04
-2.50
-2.99
-3.37
-3.55
-3.56
-3.49
-3.49
-3.67
-4.09
-4.67
-5.34
-5.98
-6.53
-6.94
-7.20
-7.27
-7.13
-6.80
-6.38
-6.00
-5.78
-5.76
-5.92
-6.17
-6.41
-6.57
-6.58
-6.35
-5.78
-4.79
-3.36
-1.56
0.47
2.55
4.55
6.37
7.98
9.33
10.33
10.93
11.12
10.95
10.56
10.06
9.57
9.12
8.72
8.30
7.81
7.19
6.48
5.74
5.11
4.68
4.53
4.57
4.66
4.64
4.42
4.04
3.65
3.39
3.33
3.41
3.48
3.38
3.05
2.51
1.89
1.31
0.84
0.51
0.27
0.07
-0.11
-0.31
-0.51
-0.68
-0.81
-0.88
-0.91
-0.91
-0.92
-0.96
-1.05
-1.16
-1.29
-1.41
-1.56
-1.74
-1.96
-2.20
-2.44
-2.65
-2.79
-2.89
-2.96
-3.01
-3.09
-3.20
-3.35
-3.52
-3.67
-3.80
-3.93
-4.11
-4.42
-4.87
-5.44
-6.03
-6.52
-6.84
-6.99
-7.07
-7.23
-7.59
-8.22
-9.06
-9.95
-10.73
-11.28
-11.58
-11.69
-11.71
-11.71
-11.66
-11.49
-11.14
-10.58
-9.84
-8.94
-7.82
-6.32
-4.25
-1.49
1.93
5.82
9.83
13.60
16.78
19.12
20.53
21.02
20.72
19.81
18.53
17.07
15.61
14.28
13.15
12.25
11.53
10.88
10.19
9.37
8.39
7.33
6.33
5.50
4.90
4.53
4.32
4.19
4.04
3.83
3.48
2.98
2.31
1.50
0.64
-0.16
-0.81
-1.25
-1.48
-1.57
-1.59
-1.64
-1.72
-1.81
-1.88
-1.87
-1.78
-1.63
-1.47
-1.34
-1.27
-1.25
-1.28
-1.31
-1.27
-1.13
-0.88
-0.61
-0.39
-0.34
-0.46
-0.70
-0.95
-1.09
-1.09
-0.96
-0.80
-0.70
-0.70
-0.80
-0.93
-1.04
-1.09
-1.09
-1.05
-1.01
-0.99
-0.97
-0.93
-0.86
-0.75
-0.59
-0.36
-0.06
0.30
0.66
0.98
1.20
1.28
1.23
1.12
0.99
0.91
0.92
1.02
1.17
1.33
1.43
1.39
1.22
0.93
0.60
0.35
0.23
0.22
0.25
0.18
-0.07
-0.51
-1.05
-1.53
-1.84
-1.91
-1.79
-1.56
-1.34
-1.17
-1.05
-0.93
-0.77
-0.50
-0.17
0.20
0.52
0.73
0.79
0.74
0.62
0.52
0.47
0.48
0.50
0.50
0.45
0.36
0.26
0.20
0.19
0.20
0.19
0.12
-0.02
-0.18
-0.35
-0.51
-0.61
-0.64
-0.56
-0.34
-0.00
0.35
0.61
0.68
0.55
0.25
-0.11
-0.45
-0.74
-0.95
-1.07
-1.07
-0.89
-0.56
-0.16
0.16
0.27
0.12
-0.21
-0.58
-0.86
-0.99
-0.96
-0.80
-0.55
-0.23
0.13
0.49
0.79
0.98
1.02
0.92
0.73
0.51
0.31
0.17
0.10
0.09
0.12
0.13
0.10
0.03
-0.07
-0.13
-0.09
0.09
0.37
0.68
0.91
0.97
0.82
0.54
0.26
0.12
0.22
0.53
0.90
1.17
1.20
0.98
0.59
0.19
-0.10
-0.26
-0.32
-0.36
-0.41
-0.47
-0.48
-0.42
-0.28
-0.12
-0.01
0.03
0.02
0.00
0.02
0.07
0.11
0.09
0.01
-0.11
-0.21
-0.24
-0.22
-0.20
-0.23
-0.34
-0.51
-0.67
-0.77
-0.77
-0.65
-0.47
-0.24
-0.03
0.14
0.24
0.25
0.17
0.01
-0.18
-0.34
-0.42
-0.38
-0.19
0.11
0.43
0.68
0.75
0.62
0.32
-0.03
-0.32
-0.47
-0.48
-0.40
-0.33
-0.35
-0.48
-0.71
-0.96
-1.13
-1.14
-0.92
-0.50
0.07
0.62
1.03
1.21
1.16
0.97
0.75
0.60
0.56
0.60
0.65
0.68
0.64
0.54
0.40
0.24
0.10
0.01
0.02
0.15
0.36
0.57
0.67
0.57
0.24
-0.26
-0.80
-1.21
-1.38
-1.30
-1.04
-0.73
-0.49
-0.38
-0.44
-0.59
-0.79
-0.95
-1.03
-1.02
-0.91
-0.71
-0.46
-0.20
-0.01
0.07
0.03
-0.06
-0.11
-0.07
0.12
0.39
0.66
0.85
0.91
0.88
0.81
0.76
0.70
0.62
0.48
0.31
0.20
0.20
0.34
0.54
0.69
0.68
0.50
0.20
-0.09
-0.27
-0.28
-0.16
0.01
0.14
0.19
0.12
-0.02
-0.22
-0.43
-0.62
-0.74
-0.74
-0.61
-0.39
-0.13
0.07
0.15
0.13
0.05
-0.01
-0.01
0.03
0.06
0.04
-0.02
-0.04
0.03
0.20
0.43
0.60
0.65
0.56
0.35
0.08
-0.16
-0.35
-0.46
-0.48
-0.43
-0.34
-0.23
-0.15
-0.12
-0.12
-0.13
-0.15
-0.18
-0.22
-0.27
-0.29
-0.27
-0.19
-0.12
-0.08
-0.09
-0.11
-0.06
0.11
0.37
0.64
0.78
0.71
0.43
0.02
-0.40
-0.74
-0.96
-1.05
-1.03
-0.93
-0.79
-0.66
-0.58
-0.57
-0.60
-0.62
-0.56
-0.40
-0.15
0.12
0.36
0.54
0.68
0.81
0.95
1.10
1.25
1.34
1.35
1.23
0.99
0.67
0.33
0.07
-0.05
-0.00
0.20
0.48
0.75
0.90
0.87
0.71
0.48
0.30
0.27
0.42
0.66
0.88
0.95
0.81
0.49
0.11
-0.22
-0.43
-0.55
-0.62
-0.70
-0.75
-0.72
-0.57
-0.31
-0.05
0.10
0.05
-0.18
-0.47
-0.71
-0.81
-0.77
-0.70
-0.68
-0.71
-0.76
-0.73
-0.60
-0.38
-0.18
-0.08
-0.10
-0.20
-0.31
-0.40
-0.47
-0.55
-0.65
-0.73
-0.72
-0.62
-0.48
-0.39
-0.46
-0.66
-0.87
-0.94
-0.78
-0.48
-0.17
-0.04
-0.13
-0.37
-0.61
-0.68
-0.56
-0.30
-0.02
0.18
0.28
0.31
0.34
0.41
0.51
0.60
0.66
0.65
0.61
0.57
0.55
0.57
0.60
0.60
0.53
0.36
0.09
-0.25
-0.61
-0.90
-1.04
-0.96
-0.65
-0.17
0.37
0.87
1.26
1.55
1.77
1.90
1.93
1.77
1.39
0.81
0.16
-0.43
-0.82
-0.99
-0.97
-0.85
-0.68
-0.51
-0.34
-0.23
-0.21
-0.30
-0.46
-0.58
-0.56
-0.36
-0.05
0.21
0.31
0.21
0.03
-0.06
0.09
0.50
1.03
1.45
1.55
1.26
0.67
-0.01
-0.53
-0.73
-0.59
-0.24
0.15
0.44
0.57
0.56
0.46
0.30
0.09
-0.15
-0.33
-0.37
-0.16
0.31
0.91
1.47
1.78
1.73
1.33
0.71
0.01
-0.60
-1.06
-1.32
-1.40
-1.31
-1.09
-0.78
-0.41
-0.06
0.21
0.35
0.33
0.11
-0.26
-0.74
-1.23
-1.63
-1.88
-1.97
-1.93
-1.82
-1.68
-1.51
-1.29
-0.98
-0.60
-0.17
0.22
0.53
0.71
0.79
0.81
0.83
0.88
1.01
1.19
1.38
1.51
1.50
1.32
1.02
0.69
0.44
0.36
0.44
0.62
0.78
0.81
0.65
0.31
-0.11
-0.46
-0.64
-0.61
-0.40
-0.13
0.09
0.21
0.20
0.12
0.02
-0.05
-0.07
0.00
0.17
0.43
0.74
1.02
1.15
1.06
0.76
0.34
-0.08
-0.40
-0.58
-0.62
-0.57
-0.47
-0.36
-0.27
-0.24
-0.29
-0.42
-0.59
-0.73
-0.77
-0.70
-0.56
-0.41
-0.33
-0.36
-0.52
-0.78
-1.06
-1.30
-1.44
-1.46
-1.34
-1.13
-0.86
-0.57
-0.31
-0.11
-0.01
-0.04
-0.20
-0.46
-0.73
-0.95
-1.01
-0.90
-0.63
-0.25
0.16
0.55
0.87
1.11
1.23
1.26
1.22
1.13
1.04
0.97
0.91
0.87
0.86
0.88
0.95
1.07
1.21
1.31
1.33
1.24
1.06
0.80
0.52
0.21
-0.08
-0.33
-0.50
-0.58
-0.56
-0.49
-0.43
-0.39
-0.36
-0.32
-0.25
-0.14
-0.02
0.10
0.24
0.40
0.58
0.73
0.77
0.66
0.40
0.07
-0.19
-0.26
-0.11
0.19
0.52
0.75
0.80
0.74
0.63
0.56
0.52
0.45
0.27
-0.01
-0.29
-0.38
-0.17
0.28
0.78
1.09
1.08
0.81
0.49
0.31
0.36
0.55
0.73
0.80
0.79
0.80
0.89
1.05
1.13
1.00
0.60
0.03
-0.52
-0.86
-0.88
-0.61
-0.20
0.18
0.40
0.40
0.25
0.05
-0.05
0.02
0.24
0.49
0.60
0.48
0.09
-0.49
-1.15
-1.78
-2.31
-2.69
-2.89
-2.85
-2.58
-2.15
-1.67
-1.30
-1.12
-1.14
-1.26
-1.32
-1.24
-1.02
-0.75
-0.54
-0.46
-0.53
-0.70
-0.88
-0.99
-0.99
-0.89
-0.70
-0.45
-0.16
0.14
0.43
0.69
0.88
1.00
1.06
1.07
1.03
0.90
0.64
0.23
-0.25
-0.68
-0.91
-0.87
-0.57
-0.16
0.16
0.27
0.14
-0.11
-0.32
-0.37
-0.24
-0.02
0.18
0.27
0.26
0.22
0.21
0.28
0.37
0.45
0.48
0.45
0.40
0.37
0.39
0.43
0.47
0.52
0.58
0.67
0.76
0.84
0.85
0.77
0.59
0.33
0.02
-0.29
-0.52
-0.63
-0.55
-0.31
0.02
0.33
0.50
0.49
0.33
0.11
-0.06
-0.11
-0.05
0.08
0.22
0.31
0.36
0.39
0.45
0.57
0.75
0.92
1.02
0.99
0.78
0.43
0.05
-0.25
-0.38
-0.34
-0.22
-0.16
-0.24
-0.44
-0.66
-0.75
-0.64
-0.38
-0.12
0.03
-0.00
-0.13
-0.25
-0.30
-0.29
-0.30
-0.40
-0.59
-0.80
-0.90
-0.83
-0.63
-0.38
-0.18
-0.09
-0.10
-0.16
-0.18
-0.10
0.10
0.43
0.81
1.17
1.40
1.45
1.29
0.95
0.55
0.20
0.01
0.03
0.23
0.48
0.66
0.64
0.41
0.05
-0.29
-0.53
-0.62
-0.60
-0.55
-0.53
-0.53
-0.55
-0.56
-0.56
-0.57
-0.60
-0.66
-0.72
-0.74
-0.65
-0.46
-0.16
0.16
0.43
0.56
0.52
0.31
-0.01
-0.32
-0.56
-0.70
-0.75
-0.79
-0.87
-0.99
-1.14
-1.23
-1.17
-0.91
-0.43
0.18
0.78
1.22
1.41
1.33
1.06
0.70
0.34
0.03
-0.21
-0.39
-0.50
-0.49
-0.33
-0.03
0.37
0.77
1.08
1.20
1.10
0.79
0.37
-0.05
-0.34
-0.40
-0.25
0.00
0.19
0.16
-0.13
-0.59
-1.05
-1.34
-1.38
-1.21
-0.92
-0.59
-0.27
0.03
0.33
0.64
0.94
1.17
1.25
1.16
0.91
0.59
0.29
0.11
0.05
0.04
-0.01
-0.14
-0.35
-0.52
-0.54
-0.35
0.03
0.51
0.95
1.24
1.26
0.99
0.46
-0.18
-0.69
-0.88
-0.65
-0.14
0.41
0.71
0.64
0.28
-0.14
-0.38
-0.29
0.05
0.46
0.76
0.81
0.57
0.08
-0.59
-1.35
-2.10
-2.76
-3.24
-3.50
-3.61
-3.66
-3.81
-4.13
-4.62
-5.17
-5.61
-5.83
-5.83
-5.74
-5.73
-5.95
-6.42
-7.03
-7.61
-8.04
-8.33
-8.67
-9.34
-10.55
-12.31
-14.38
-16.31
-17.69
-18.39
-18.64
-19.02
-20.25
-22.79
-26.65
-31.24
-35.70
-39.23
-41.54
-42.99
-44.47
-46.97
-51.07
-56.65
-62.88
-68.57
-72.69
-74.83
-75.41
-75.65
-77.16
-81.43
-89.32
-100.50
-113.18
-124.05
-128.81
-123.05
-103.75
-70.60
-26.72
21.77
67.41
103.69
127.01
137.40
137.90
132.79
125.74
118.73
112.07
105.24
97.87
90.32
83.53
78.35
74.97
72.70
70.26
66.37
60.28
52.01
42.20
31.63
20.85
9.99
-1.11
-12.62
-24.38
-35.84
-46.14
-54.48
-60.33
-63.72
-65.20
-65.70
-66.26
-67.81
-70.88
-75.69
-82.13
-89.75
-97.69
-104.38
-107.50
-104.38
-92.86
-72.22
-43.90
-11.23
21.61
50.94
74.71
92.68
105.90
115.67
122.91
127.96
131.02
132.57
133.43
134.48
135.94
136.96
135.71
130.05
118.54
101.37
80.61
59.61
41.91
29.97
24.41
24.07
26.72
30.03
32.38
33.18
32.72
31.63
30.59
30.02
30.19
31.22
33.32
36.59
40.83
45.09
47.60
46.11
38.74
24.99
6.22
-14.63
-34.15
-49.72
-60.35
-66.61
-69.88
-71.38
-71.64
-70.60
-68.13
-64.50
-60.40
-56.63
-53.57
-50.99
-48.25
-44.73
-40.24
-35.14
-30.21
-26.22
-23.60
-22.22
-21.54
-20.85
-19.60
-17.61
-15.08
-12.41
-9.99
-7.98
-6.37
-4.98
-3.68
-2.37
-1.11
0.05
1.02
1.80
2.41
2.88
3.24
3.48
3.63
3.69
3.70
3.68
3.69
3.75
3.88
4.07
4.27
4.40
4.42
4.34
4.19
4.05
3.94
3.84
3.72
3.56
3.37
3.26
3.31
3.55
3.93
4.35
4.70
4.95
5.08
5.16
5.20
5.21
5.15
4.99
4.73
4.42
4.12
3.86
3.64
3.41
3.14
2.82
2.47
2.13
1.79
1.41
0.92
0.28
-0.46
-1.20
-1.81
-2.21
-2.37
-2.31
-2.08
-1.70
-1.20
-0.66
-0.17
0.14
0.19
0.03
-0.21
-0.38
-0.40
-0.30
-0.19
-0.19
-0.33
-0.54
-0.70
-0.69
-0.52
-0.27
-0.09
-0.10
-0.29
-0.56
-0.73
-0.64
-0.27
0.25
0.74
1.00
0.95
0.63
0.15
-0.38
-0.86
-1.27
-1.61
-1.88
-2.07
-2.20
-2.30
-2.41
-2.56
-2.73
-2.87
-2.94
-2.93
-2.95
-3.09
-3.45
-4.02
-4.69
-5.31
-5.73
-5.94
-6.04
-6.21
-6.64
-7.46
-8.64
-10.05
-11.47
-12.69
-13.60
-14.27
-14.88
-15.73
-17.06
-18.96
-21.28
-23.70
-25.87
-27.57
-28.82
-29.83
-30.88
-32.20
-33.88
-35.95
-38.29
-40.49
-41.76
-40.93
-36.84
-28.87
-17.47
-4.21
8.72
19.34
26.63
30.79
32.87
34.06
35.10
36.09
36.78
36.95
36.64
36.13
35.63
35.14
34.40
33.04
30.87
28.00
24.83
21.89
19.59
18.10
17.26
16.71
16.07
15.07
13.68
12.04
10.43
9.09
8.15
7.60
7.30
7.06
6.71
6.17
5.50
4.80
4.22
3.85
3.72
3.76
3.85
3.85
3.69
3.30
2.75
2.12
1.58
1.29
1.30
1.57
1.94
2.21
2.27
2.11
1.85
1.65
1.59
1.67
1.77
1.75
1.56
1.21
0.77
0.30
-0.16
-0.62
-1.08
-1.48
-1.76
-1.89
-1.91
-1.95
-2.11
-2.45
-2.89
-3.28
-3.51
-3.58
-3.55
-3.55
-3.60
-3.68
-3.68
-3.55
-3.34
-3.13
-2.99
-2.91
-2.76
-2.46
-1.97
-1.37
-0.82
-0.43
-0.22
-0.13
-0.07
0.01
0.09
0.12
0.07
-0.03
-0.08
-0.02
0.18
0.45
0.73
0.91
0.98
0.93
0.82
0.69
0.59
0.56
0.63
0.81
1.06
1.34
1.54
1.58
1.41
1.05
0.60
0.19
-0.08
