1532460743.00
64.000000
-0.00
-0.00
-0.00
-0.00
-0.00
-0.00
-0.00
-0.00
-0.00
-0.00
0.00
0.01
0.01
-0.00
-0.03
-0.05
-0.05
0.00
0.13
0.36
0.66
1.01
1.37
1.72
2.06
2.40
2.79
3.25
3.81
4.44
5.09
5.72
6.32
6.89
7.52
8.25
9.14
10.24
11.46
12.67
13.76
14.71
15.60
16.61
17.97
19.80
22.29
25.22
28.31
31.27
33.99
36.60
39.44
42.95
47.41
53.14
59.72
66.61
73.29
79.50
85.45
91.74
99.06
107.83
118.42
130.14
142.13
153.61
164.25
174.41
184.93
197.16
209.59
224.09
240.89
259.92
280.13
299.02
312.83
317.31
309.14
287.07
252.84
209.68
161.61
112.05
63.09
15.70
-29.72
-72.85
-113.29
-150.65
-185.52
-219.17
-253.22
-288.74
-325.31
-360.54
-390.35
-410.33
-417.17
-410.17
-391.56
-365.60
-336.88
-308.75
-282.63
-258.33
-235.14
-212.64
-191.21
-171.60
-154.30
-139.08
-125.14
-111.48
-97.52
-83.30
-69.48
-56.94
-46.37
-37.86
-30.94
-24.82
-18.71
-12.26
-5.61
0.71
6.08
10.14
12.92
14.84
16.46
18.23
20.30
22.52
24.58
26.16
27.12
27.55
27.64
27.60
27.52
27.37
27.07
26.54
25.78
24.87
23.90
22.95
22.07
21.22
20.41
19.62
18.83
18.07
17.35
16.69
16.12
15.67
15.30
14.97
14.61
14.18
13.69
13.19
12.69
12.19
11.67
11.13
10.61
10.18
9.90
9.76
9.66
9.49
9.19
8.82
8.50
8.35
8.42
8.64
8.88
9.05
9.10
9.06
8.95
8.76
8.46
8.01
7.43
6.76
6.09
5.51
5.07
4.79
4.65
4.60
4.53
4.34
3.95
3.36
2.66
1.96
1.41
1.04
0.85
0.72
0.56
0.27
-0.19
-0.81
-1.54
-2.29
-2.96
-3.48
-3.85
-4.11
-4.33
-4.56
-4.80
-5.06
-5.36
-5.76
-6.34
-7.11
-7.99
-8.84
-9.49
-9.84
-9.91
-9.80
-9.64
-9.54
-9.50
-9.45
-9.28
-8.90
-8.29
-7.50
-6.66
-5.88
-5.26
-4.82
-4.50
-4.17
-3.71
-3.09
-2.36
-1.67
-1.16
-0.90
-0.85
-0.84
-0.73
-0.45
-0.06
0.31
0.55
0.64
0.63
0.65
0.76
0.96
1.22
1.48
1.75
2.07
2.45
2.86
3.23
3.47
3.52
3.41
3.21
3.03
2.96
3.05
3.29
3.62
3.99
4.32
4.55
4.66
4.64
4.52
4.32
4.08
3.84
3.66
3.56
3.56
3.62
3.72
3.82
3.91
4.00
4.06
4.04
3.88
3.56
3.11
2.62
2.21
2.00
2.03
2.26
2.59
2.92
3.14
3.18
3.04
2.74
2.33
1.91
1.56
1.36
1.37
1.61
2.01
2.44
2.77
2.89
2.78
2.53
2.27
2.09
1.99
1.89
1.72
1.49
1.27
1.19
1.32
1.61
1.93
2.11
2.05
1.74
1.31
0.87
0.56
0.44
0.52
0.74
1.04
1.32
1.55
1.73
1.87
2.00
2.10
2.09
1.94
1.61
1.20
0.85
0.67
0.73
0.95
1.21
1.42
1.53
1.57
1.62
1.68
1.67
1.50
1.12
0.59
0.12
-0.06
0.17
0.77
1.49
2.04
2.19
1.92
1.38
0.80
0.37
0.19
0.17
0.21
0.19
0.07
-0.08
-0.18
-0.16
0.00
0.27
0.57
0.81
0.94
0.95
0.88
0.77
0.70
0.68
0.72
0.76
0.79
0.80
0.83
0.89
0.98
1.03
0.99
0.83
0.61
0.41
0.31
0.31
0.36
0.34
0.21
-0.04
-0.31
-0.47
-0.44
-0.20
0.17
0.55
0.81
0.90
0.84
0.69
0.55
0.45
0.40
0.34
0.24
0.10
-0.04
-0.12
-0.09
0.04
0.21
0.36
0.45
0.51
0.58
0.70
0.87
1.05
1.18
1.22
1.16
1.01
0.86
0.78
0.82
0.97
1.15
1.27
1.23
1.03
0.76
0.54
0.46
0.52
0.64
0.70
0.63
0.42
0.15
-0.07
-0.17
-0.14
-0.02
0.13
0.22
0.21
0.09
-0.09
-0.23
-0.27
-0.18
-0.00
0.15
0.23
0.21
0.18
0.23
0.42
0.69
0.92
0.93
0.68
0.21
-0.28
-0.60
-0.61
-0.31
0.14
0.61
0.94
1.10
1.14
1.10
1.03
0.89
0.68
0.42
0.19
0.08
0.15
0.41
0.74
1.00
1.04
0.80
0.32
-0.27
-0.78
-1.07
-1.10
-0.93
-0.68
-0.48
-0.39
-0.42
-0.50
-0.56
-0.53
-0.36
-0.06
0.36
0.79
1.13
1.27
1.18
0.91
0.59
0.34
0.23
0.26
0.39
0.54
0.65
0.68
0.62
0.49
0.30
0.13
0.04
0.08
0.26
0.48
0.65
0.67
0.49
0.17
-0.20
-0.51
-0.70
-0.75
-0.71
-0.63
-0.54
-0.41
-0.23
-0.02
0.17
0.26
0.22
0.08
-0.06
-0.10
-0.02
0.17
0.34
0.41
0.31
0.10
-0.13
-0.28
-0.30
-0.20
-0.03
0.14
0.27
0.35
0.37
0.36
0.33
0.30
0.27
0.28
0.33
0.44
0.61
0.80
0.95
1.01
0.95
0.80
0.60
0.42
0.29
0.20
0.12
0.02
-0.13
-0.32
-0.52
-0.71
-0.87
-0.96
-0.98
-0.92
-0.80
-0.64
-0.47
-0.28
-0.07
0.15
0.37
0.52
0.54
0.41
0.20
0.02
-0.02
0.14
0.45
0.81
1.09
1.20
1.11
0.84
0.48
0.12
-0.15
-0.26
-0.20
-0.02
0.18
0.29
0.24
0.05
-0.22
-0.47
-0.61
-0.57
-0.34
0.04
0.50
0.97
1.35
1.61
1.73
1.73
1.62
1.39
1.04
0.55
-0.01
-0.51
-0.85
-0.95
-0.83
-0.56
-0.30
-0.15
-0.21
-0.45
-0.77
-1.05
-1.15
-1.01
-0.68
-0.29
0.04
0.20
0.16
0.01
-0.15
-0.21
-0.14
0.04
0.25
0.40
0.41
0.23
-0.10
-0.52
-0.90
-1.15
-1.20
-1.06
-0.80
-0.52
-0.26
-0.04
0.16
0.35
0.50
0.55
0.47
0.28
0.08
-0.02
0.05
0.28
0.56
0.76
0.79
0.62
0.31
-0.03
-0.29
-0.38
-0.25
0.08
0.52
0.91
1.10
0.96
0.51
-0.13
-0.75
-1.15
-1.24
-1.04
-0.66
-0.24
0.13
0.40
0.57
0.66
0.66
0.55
0.35
0.12
-0.06
-0.12
-0.02
0.19
0.42
0.60
0.67
0.67
0.62
0.56
0.46
0.29
0.04
-0.24
-0.44
-0.46
-0.28
0.03
0.31
0.42
0.28
-0.06
-0.49
-0.87
-1.10
-1.14
-0.99
-0.73
-0.42
-0.16
0.04
0.14
0.17
0.16
0.11
0.02
-0.11
-0.28
-0.43
-0.49
-0.41
-0.17
0.17
0.48
0.67
0.66
0.46
0.18
-0.07
-0.17
-0.06
0.24
0.62
0.96
1.14
1.08
0.82
0.46
0.14
-0.05
-0.04
0.09
0.24
0.28
0.11
-0.22
-0.60
-0.88
-0.94
-0.79
-0.51
-0.22
-0.04
0.02
-0.00
-0.04
-0.04
0.00
0.05
0.04
-0.05
-0.18
-0.29
-0.30
-0.18
0.04
0.31
0.53
0.64
0.66
0.61
0.55
0.53
0.56
0.61
0.63
0.58
0.43
0.19
-0.11
-0.38
-0.55
-0.60
-0.55
-0.49
-0.48
-0.51
-0.50
-0.36
-0.05
0.38
0.77
1.00
1.00
0.84
0.63
0.47
0.39
0.34
0.25
0.07
-0.15
-0.34
-0.46
-0.52
-0.57
-0.64
-0.72
-0.77
-0.74
-0.63
-0.48
-0.32
-0.20
-0.11
-0.02
0.10
0.26
0.45
0.67
0.93
1.23
1.55
1.81
1.92
1.80
1.41
0.80
0.11
-0.52
-0.97
-1.19
-1.24
-1.20
-1.16
-1.10
-0.98
-0.76
-0.42
-0.05
0.24
0.35
0.27
0.06
-0.14
-0.29
-0.38
-0.47
-0.56
-0.63
-0.60
-0.41
-0.12
0.17
0.33
0.29
0.08
-0.18
-0.40
-0.53
-0.55
-0.50
-0.37
-0.17
0.07
0.26
0.32
0.22
0.00
-0.17
-0.16
0.10
0.52
0.92
1.13
1.10
0.90
0.69
0.61
0.74
1.02
1.35
1.59
1.64
1.44
1.06
0.60
0.22
0.03
0.08
0.33
0.63
0.84
0.84
0.60
0.19
-0.27
-0.67
-0.95
-1.12
-1.22
-1.32
-1.44
-1.54
-1.57
-1.48
-1.28
-1.07
-0.93
-0.92
-1.02
-1.15
-1.19
-1.08
-0.81
-0.43
-0.01
0.38
0.68
0.85
0.86
0.67
0.27
-0.27
-0.83
-1.24
-1.35
-1.08
-0.51
0.17
0.75
1.05
1.00
0.66
0.19
-0.29
-0.65
-0.86
-0.94
-0.91
-0.82
-0.70
-0.56
-0.40
-0.18
0.11
0.47
0.82
1.08
1.19
1.15
1.00
0.85
0.76
0.76
0.83
0.92
0.97
0.93
0.77
0.51
0.23
0.01
-0.04
0.12
0.42
0.73
0.90
0.85
0.63
0.36
0.16
0.11
0.21
0.37
0.48
0.45
0.25
-0.10
-0.52
-0.88
-1.05
-0.96
-0.62
-0.16
0.27
0.50
0.48
0.28
0.01
-0.20
-0.29
-0.28
-0.23
-0.23
-0.29
-0.41
-0.52
-0.54
-0.45
-0.26
-0.05
0.09
0.08
-0.09
-0.35
-0.62
-0.78
-0.77
-0.57
-0.25
0.14
0.51
0.80
0.97
1.03
0.99
0.86
0.66
0.39
0.11
-0.16
-0.34
-0.42
-0.41
-0.36
-0.32
-0.32
-0.31
-0.26
-0.13
0.06
0.23
0.31
0.26
0.12
-0.03
-0.13
-0.17
-0.19
-0.24
-0.31
-0.37
-0.36
-0.23
-0.03
0.19
0.33
0.31
0.11
-0.23
-0.64
-1.07
-1.47
-1.79
-2.00
-2.08
-2.04
-1.89
-1.71
-1.59
-1.58
-1.70
-1.92
-2.12
-2.21
-2.13
-1.89
-1.55
-1.19
-0.85
-0.55
-0.24
0.10
0.46
0.76
0.94
0.93
0.77
0.54
0.35
0.28
0.31
0.37
0.35
0.18
-0.14
-0.55
-0.93
-1.16
-1.17
-0.97
-0.59
-0.08
0.50
1.13
1.77
2.36
2.80
2.98
2.86
2.48
1.97
1.54
1.35
1.43
1.70
1.99
2.13
2.09
1.95
1.85
1.90
2.13
2.44
2.72
2.88
2.94
2.99
3.09
3.24
3.39
3.47
3.47
3.44
3.48
3.63
3.90
4.21
4.51
4.77
5.02
5.26
5.49
5.64
5.67
5.59
5.51
5.57
5.81
6.14
6.36
6.30
5.97
5.59
5.47
5.82
6.49
7.08
7.04
6.07
4.27
2.10
0.11
-1.41
-2.63
-4.10
-6.49
-10.16
-15.00
-20.37
-25.37
-29.13
-31.14
-31.34
-30.16
-28.32
-26.57
-25.55
-25.58
-26.61
-28.12
-28.99
-27.53
-21.96
-11.10
4.85
24.08
43.59
60.29
72.23
79.29
82.86
84.95
87.01
89.32
91.18
91.65
90.38
87.93
85.56
84.54
85.52
88.25
91.75
94.85
96.87
98.10
99.80
103.65
110.83
121.19
132.74
141.97
144.79
137.70
118.62
87.17
44.67
-6.10
-60.83
-113.92
-159.30
-191.87
-209.06
-211.40
-201.83
-183.95
-160.36
-132.21
-100.08
-65.54
-31.86
-3.50
15.61
23.70
21.70
12.45
-0.88
-15.87
-31.10
-45.66
-58.59
-68.73
-75.11
-77.43
-76.22
-72.64
-68.09
-63.79
-60.59
-58.78
-58.17
-58.22
-58.29
-57.94
-57.07
-55.85
-54.56
-53.47
-52.67
-52.07
-51.51
-50.80
-49.82
-48.55
-46.89
-44.52
-40.85
-35.10
-26.49
-14.54
0.71
18.49
37.27
55.09
69.94
80.35
85.64
86.04
82.36
75.65
66.86
56.73
45.70
34.04
21.94
9.56
-2.96
-15.53
-28.03
-40.26
-51.86
-62.47
-71.79
-79.65
-85.96
-90.82
-94.53
-97.69
-101.15
-105.71
-111.84
-119.19
-126.66
-132.71
-136.01
-136.19
-134.29
-132.42
-132.84
-136.62
-142.75
-148.36
-149.83
-144.35
-130.96
-110.74
-85.75
-57.85
-27.72
5.36
43.03
87.16
139.05
198.66
263.84
329.83
389.37
433.94
456.00
451.51
421.70
373.03
315.34
258.91
211.42
175.81
150.04
128.65
105.62
77.16
43.29
7.57
-24.79
-49.43
-64.52
-71.00
-71.84
-70.90
-72.07
-78.83
-93.75
-117.65
-148.85
-182.95
-213.91
-236.11
-246.43
-245.27
-235.84
-222.35
-207.89
-193.40
-177.66
-158.19
-132.44
-98.38
-54.62
-0.29
64.43
137.38
213.22
283.32
337.17
365.81
365.61
340.28
299.73
255.85
217.36
186.44
159.11
128.88
91.45
47.53
2.41
-37.23
-66.84
-85.93
-97.37
-105.07
-111.74
-117.83
-122.10
-123.14
-120.60
-115.55
-109.97
-105.73
-103.62
-102.97
-102.09
-99.10
-93.04
-84.29
-74.57
-66.15
-60.87
-59.31
-60.62
-62.92
-64.20
-63.15
-59.68
-54.85
-50.40
-47.94
-48.35
-51.54
-56.61
-62.30
-67.59
-71.96
-75.48
-78.64
-82.08
-86.34
-91.74
-98.39
-106.12
-114.67
-123.75
-133.23
-143.16
-153.79
-165.31
-177.55
-189.59
-199.56
-204.89
-202.84
-191.22
-169.03
-136.86
-96.84
-52.10
-6.00
38.56
79.44
115.16
144.49
166.23
179.35
183.39
178.99
168.05
153.31
137.58
122.95
110.30
99.53
90.17
82.01
75.44
71.42
71.03
74.99
83.36
95.25
108.90
122.16
133.09
140.69
145.21
147.97
150.81
155.34
162.41
172.04
183.76
196.77
209.75
220.40
225.62
222.33
209.05
187.38
162.24
140.43
127.82
126.41
132.95
139.96
138.80
123.56
93.69
54.15
13.17
-21.23
-44.20
-55.14
-56.88
-53.57
-48.71
-43.99
-39.49
-34.61
-28.99
-22.71
-15.94
-8.36
0.95
13.01
27.75
42.83
53.62
54.31
40.35
10.79
-30.55
-75.93
-116.40
-144.95
-158.83
-159.71
-152.16
-141.17
-130.21
-120.60
-112.10
-104.00
-96.03
-88.47
-81.75
-75.99
-70.71
-65.13
-58.57
-50.95
-42.89
-35.50
-29.85
-26.43
-24.97
-24.51
-23.95
-22.56
-20.28
-17.73
-15.72
-14.83
-15.10
-16.02
-16.83
-16.90
-15.98
-14.21
-12.01
-9.84
-8.05
-6.76
-5.94
-5.39
-4.88
-4.22
-3.37
-2.42
-1.55
-0.93
-0.59
-0.46
-0.40
-0.27
-0.05
0.19
0.37
0.43
0.36
0.22
0.06
-0.08
-0.16
-0.14
0.02
0.36
0.86
1.42
1.90
2.15
2.10
1.77
1.29
0.84
0.60
0.65
0.95
1.36
1.75
2.03
2.23
2.40
2.58
2.75
2.83
2.78
2.64
2.56
2.67
3.01
3.45
3.76
3.70
3.14
2.17
1.02
-0.02
-0.73
-1.04
-1.01
-0.85
-0.75
-0.83
-1.09
-1.40
-1.61
-1.62
-1.44
-1.16
-0.93
-0.82
-0.86
-0.99
-1.14
-1.32
-1.59
-2.04
-2.77
-3.85
-5.23
-6.81
-8.49
-10.14
-11.72
-13.22
-14.71
-16.28
-17.98
-19.80
-21.64
-23.34
-24.71
-25.66
-26.28
-26.83
-27.68
-29.08
-31.11
-33.58
-36.16
-38.48
-40.24
-41.18
-41.17
-40.21
-38.54
-36.68
-35.30
-34.81
-34.99
-34.59
-31.44
-23.25
-8.63
11.96
36.12
60.31
81.25
97.12
107.98
115.24
120.58
125.07
128.96
132.12
134.55
136.43
137.61
137.03
132.66
122.41
105.45
83.15
58.79
36.23
18.24
5.50
-3.22
-9.91
-16.05
-21.92
-26.89
-30.27
-32.03
-32.97
-34.19
-36.44
-39.70
-43.31
-46.34
-48.16
-48.71
-48.30
-47.47
-46.54
-45.57
-44.34
-42.53
-39.96
-36.67
-32.98
-29.30
-26.05
-23.49
-21.63
-20.31
-19.27
-18.23
-17.07
-15.79
-14.52
-13.39
-12.46
-11.67
-10.90
-10.06
-9.12
-8.17
-7.32
-6.68
-6.23
-5.92
-5.63
-5.27
-4.77
-4.10
-3.31
-2.48
-1.76
-1.25
-0.99
-0.91
-0.81
-0.53
0.00
0.70
1.35
1.73
1.71
1.37
0.88
0.40
0.01
-0.35
-0.79
-1.35
-2.00
-2.60
-3.03
-3.21
-3.18
-3.01
-2.82
-2.65
-2.57
-2.60
-2.74
-2.95
-3.17
-3.32
-3.33
-3.18
-2.93
-2.61
-2.27
-1.91
-1.53
-1.14
-0.81
-0.59
-0.53
-0.61
-0.78
-0.97
-1.16
-1.37
-1.59
-1.84
-2.09
-2.31
-2.46
-2.53
-2.52
-2.40
-2.19
-1.89
-1.59
-1.40
-1.39
-1.63
-2.07
-2.64
-3.22
-3.68
-3.93
-3.90
-3.51
-2.72
-1.54
-0.06
1.54
2.97
3.98
4.40
4.17
3.38
2.26
1.07
0.08
-0.54
-0.75
-0.65
-0.41
-0.20
-0.14
-0.25
-0.47
-0.75
-1.06
-1.39
-1.77
-2.19
-2.55
-2.81
-2.90
-2.90
-2.90
-3.05
-3.44
-4.10
-4.98
-5.98
-6.97
-7.80
-8.35
-8.57
-8.53
-8.40
-8.37
-8.57
-8.99
-9.43
-9.59
-9.23
-8.22
-6.69
-4.89
-3.13
-1.58
-0.30
0.84
2.05
3.53
5.41
7.72
10.35
13.05
15.46
17.20
17.93
17.57
16.29
14.47
12.61
11.07
10.01
9.36
8.92
8.49
7.95
7.29
6.56
5.83
5.12
4.43
3.80
3.31
3.14
3.42
4.23
5.50
7.01
8.45
9.51
10.02
10.00
9.67
9.32
9.18
9.39
9.89
10.58
11.36
12.17
13.04
14.02
15.07
16.13
17.05
17.68
17.96
17.83
17.30
16.35
14.99
13.23
11.18
9.00
6.91
5.16
3.96
3.45
3.64
4.34
5.16
5.54
4.94
3.07
0.04
-3.62
-7.16
-9.90
-11.49
-12.00
-11.77
-11.26
-10.83
-10.69
-10.89
-11.42
-12.27
-13.31
-14.38
-15.21
-15.55
-15.26
-14.40
-13.15
-11.79
-10.51
-9.44
-8.61
-8.03
-7.74
-7.76
-8.10
-8.67
-9.30
-9.82
-10.11
-10.18
-10.11
-10.01
-9.93
-9.82
-9.60
-9.20
-8.62
-7.90
-7.15
-6.44
-5.79
-5.21
-4.62
-4.00
-3.28
-2.48
-1.65
-0.88
-0.28
0.08
0.20
0.17
0.11
0.10
0.15
0.20
0.15
-0.05
-0.41
-0.85
-1.25
-1.53
-1.63
-1.55
-1.32
-0.97
-0.58
-0.24
-0.05
-0.10
-0.38
-0.86
-1.39
-1.83
-2.06
-2.01
-1.68
-1.17
-0.59
-0.07
0.31
0.50
0.52
0.42
0.28
0.19
0.20
0.33
0.56
0.80
0.96
1.00
0.94
0.86
0.83
0.87
0.95
0.99
0.91
0.71
0.42
0.11
-0.14
-0.28
-0.29
-0.15
0.13
0.49
0.87
1.20
1.43
1.55
1.57
1.48
1.26
0.89
0.41
-0.07
-0.42
-0.58
-0.56
-0.46
-0.40
-0.44
-0.54
-0.62
-0.59
-0.43
-0.17
0.16
0.53
0.96
1.45
1.93
2.31
2.46
2.32
1.93
1.40
0.86
0.42
0.11
-0.10
-0.27
-0.41
-0.47
-0.40
-0.16
0.19
0.50
0.61
0.39
-0.11
-0.78
-1.42
-1.91
-2.22
-2.41
-2.55
-2.68
-2.76
-2.72
-2.50
-2.14
-1.70
-1.24
-0.81
-0.38
0.07
0.56
1.05
1.43
1.61
1.54
1.25
0.85
0.52
0.38
0.49
0.77
1.10
1.31
1.32
1.12
0.80
0.47
0.17
-0.08
-0.34
-0.63
-0.92
-1.12
-1.13
-0.89
-0.46
0.04
0.41
0.53
0.37
0.02
-0.36
-0.64
-0.70
-0.56
-0.24
0.20
0.70
1.23
1.76
2.22
2.53
2.60
2.36
1.81
1.04
0.22
-0.43
-0.76
-0.75
-0.50
-0.20
0.01
0.06
0.03
0.00
0.08
0.23
0.41
0.51
0.51
0.44
0.36
0.33
0.34
0.39
0.43
0.45
0.43
0.35
0.22
0.06
-0.04
-0.04
0.12
0.42
0.78
1.12
1.37
1.49
1.44
1.21
0.80
0.26
-0.33
-0.84
-1.17
-1.25
-1.10
-0.81
-0.49
-0.25
-0.14
-0.16
-0.29
-0.45
-0.58
-0.61
-0.53
-0.37
-0.16
0.09
0.38
0.73
1.12
1.47
1.67
1.59
1.20
0.57
-0.15
-0.77
-1.18
-1.32
-1.26
-1.05
-0.79
-0.54
-0.37
-0.35
-0.50
-0.78
-1.06
-1.21
-1.11
-0.76
-0.25
0.26
0.62
0.77
0.76
0.68
0.62
0.64
0.71
0.76
0.77
0.74
0.72
0.73
0.78
0.84
0.80
0.59
0.17
-0.41
-1.04
-1.57
-1.87
-1.88
-1.63
-1.22
-0.79
-0.45
-0.25
-0.14
-0.05
0.05
0.18
0.30
0.35
0.30
0.14
-0.11
-0.44
-0.77
-1.04
-1.16
-1.07
-0.80
-0.42
-0.05
0.23
0.36
0.36
0.26
0.12
-0.03
-0.14
-0.16
-0.03
0.24
0.59
0.90
1.09
1.08
0.91
0.65
0.39
0.19
0.07
0.03
0.05
0.10
0.17
0.24
0.31
0.35
0.35
0.32
0.28
0.24
0.19
0.12
0.05
-0.01
0.00
0.12
0.38
0.74
1.15
1.49
1.70
1.73
1.57
1.26
0.82
0.32
-0.19
-0.66
-1.04
-1.25
-1.22
-0.89
-0.31
0.44
1.19
1.77
2.10
2.22
2.24
2.29
2.41
2.50
2.43
2.07
1.43
0.63
-0.11
-0.60
-0.80
-0.79
-0.72
-0.69
-0.71
-0.67
-0.46
-0.03
0.52
1.02
1.28
1.18
0.78
0.23
-0.26
-0.55
-0.56
-0.34
0.05
0.49
0.89
1.18
1.30
1.25
1.06
0.76
0.45
0.21
0.12
0.24
0.58
1.04
1.50
1.82
1.91
1.79
1.56
1.32
1.16
1.07
0.99
0.85
0.63
0.37
0.14
-0.02
-0.11
-0.18
-0.27
-0.43
-0.63
-0.79
-0.86
-0.83
-0.81
-0.92
-1.26
-1.83
-2.46
-2.96
-3.16
-3.07
-2.81
-2.62
-2.67
-3.00
-3.52
-4.08
-4.59
-5.05
-5.55
-6.18
-6.92
-7.68
-8.32
-8.74
-8.96
-9.15
-9.54
-10.34
-11.65
-13.37
-15.32
-17.17
-18.67
-19.67
-20.26
-20.72
-21.47
-22.83
-24.84
-27.20
-29.33
-30.67
-30.94
-30.21
-28.84
-27.25
-25.72
-24.42
-23.53
-23.31
-23.93
-25.11
-25.86
-24.67
-20.13
-11.80
-0.61
11.33
21.68
28.92
32.89
34.56
35.30
35.99
36.84
37.59
38.20
39.06
40.87
44.04
48.21
52.30
54.97
55.30
53.19
49.39
45.07
41.22
38.28
36.04
33.80
30.73
26.25
20.29
13.40
6.56
0.81
-3.13
-5.18
-5.87
-5.97
-6.16
-6.68
-7.37
-7.91
-8.09
-8.03
-7.99
-8.26
-8.87
-9.65
-10.29
-10.56
-10.40
-9.95
-9.42
-8.98
-8.70
-8.59
-8.55
-8.48
-8.28
-7.86
-7.21
-6.39
-5.55
-4.83
-4.33
-4.03
-3.80
-3.50
-3.03
-2.45
-1.90
-1.54
-1.48
-1.68
-2.01
-2.30
-2.42
-2.35
-2.15
-1.92
-1.72
-1.56
-1.35
-1.02
-0.55
-0.01
0.47
0.75
0.71
0.37
-0.14
-0.65
-0.98
-1.07
-0.93
-0.70
-0.51
-0.44
-0.48
-0.56
-0.59
-0.54
-0.41
-0.26
-0.14
-0.10
-0.13
-0.21
-0.36
-0.55
-0.77
-0.98
-1.15
-1.25
-1.27
-1.24
-1.15
-0.97
-0.70
-0.34
0.02
0.28
0.32
0.10
-0.32
-0.80
-1.16
-1.26
-1.10
-0.76
-0.39
-0.11
0.04
0.11
0.21
0.45
0.82
1.24
1.57
1.69
1.60
1.35
1.06
0.78
0.51
0.21
-0.14
-0.52
-0.84
-1.01
-0.97
-0.76
-0.45
-0.14
0.14
0.37
0.54
0.63
0.56
0.29
-0.18
-0.73
-1.16
-1.32
-1.11
-0.61
-0.02
0.45
0.62
0.49
0.13
-0.28
-0.60
-0.79
-0.88
-0.95
-1.07
-1.22
-1.31
-1.22
-0.90
-0.40
0.13
0.52
0.67
0.60
0.42
0.28
0.23
0.25
0.22
0.04
-0.30
-0.68
-0.93
-0.89
-0.52
0.10
0.76
1.26
1.44
1.27
0.84
0.32
-0.12
-0.41
-0.53
-0.53
-0.48
-0.39
-0.26
-0.05
0.28
0.68
1.08
1.35
1.39
1.14
0.66
0.08
-0.43
-0.75
-0.87
-0.83
-0.69
-0.49
-0.23
0.08
0.38
0.57
0.55
0.31
-0.06
-0.39
-0.53
-0.41
-0.06
0.42
0.91
1.32
1.58
1.65
1.51
1.19
0.76
0.31
-0.09
-0.45
-0.76
-1.03
-1.22
-1.27
-1.13
-0.88
-0.64
-0.54
-0.62
-0.80
-0.91
-0.83
-0.56
-0.26
-0.14
-0.34
-0.83
-1.47
-2.01
-2.25
-2.10
-1.60
-0.91
-0.19
0.38
0.73
0.85
0.80
0.65
0.47
0.31
0.20
0.15
0.18
0.27
0.42
0.59
0.74
0.85
0.89
0.91
0.93
1.03
1.21
1.47
1.72
1.88
1.88
1.68
1.31
0.83
0.33
-0.14
-0.54
-0.85
-1.08
-1.23
-1.30
-1.29
-1.18
-0.94
-0.56
-0.10
0.34
0.61
0.62
0.34
-0.12
-0.62
-1.04
-1.30
-1.41
-1.41
-1.33
-1.15
-0.90
-0.60
-0.33
-0.19
-0.22
-0.37
-0.52
-0.53
-0.34
0.01
0.42
0.75
0.96
1.07
1.15
1.28
1.47
1.66
1.76
1.71
1.46
1.05
0.55
0.04
-0.43
-0.80
-1.06
-1.16
-1.08
-0.80
-0.37
0.10
0.49
0.67
0.61
0.36
0.04
-0.21
-0.30
-0.23
-0.08
0.05
0.08
0.02
-0.06
-0.09
-0.03
0.06
0.10
0.00
-0.25
-0.58
-0.89
-1.06
-1.06
-0.92
-0.71
-0.55
-0.49
-0.56
-0.72
-0.89
-0.99
-0.94
-0.75
-0.46
-0.16
0.08
0.24
0.35
0.46
0.60
0.79
0.98
1.14
1.22
1.20
1.09
0.93
0.78
0.65
0.57
0.51
0.43
0.27
0.03
-0.25
-0.49
-0.59
-0.51
-0.29
-0.06
0.07
-0.03
-0.34
-0.75
-1.09
-1.24
-1.11
-0.75
-0.25
0.26
0.69
0.96
1.05
0.97
0.76
0.46
0.14
-0.10
-0.17
-0.03
0.29
0.71
1.09
1.33
1.39
1.29
1.09
0.84
0.57
0.29
-0.01
-0.31
-0.54
-0.66
-0.67
-0.60
-0.49
-0.38
-0.30
-0.24
-0.20
-0.19
-0.24
-0.35
-0.47
-0.56
-0.56
-0.46
-0.24
0.00
0.20
0.29
0.26
0.17
0.12
0.23
0.51
0.89
1.20
1.24
0.93
0.31
-0.43
-1.05
-1.35
-1.27
-0.89
-0.38
0.08
0.37
0.47
0.42
0.26
0.03
-0.26
-0.55
-0.77
-0.84
-0.75
-0.55
-0.34
-0.23
-0.26
-0.39
-0.53
-0.61
-0.59
-0.51
-0.40
-0.27
-0.10
0.12
0.37
0.59
0.73
0.76
0.69
0.57
0.46
0.41
0.42
0.49
0.58
0.65
0.63
0.47
0.16
-0.24
-0.64
-0.93
-1.03
-0.93
-0.68
-0.39
-0.09
0.16
0.37
0.54
0.65
0.69
0.63
0.45
0.17
-0.14
-0.39
-0.48
-0.35
-0.07
0.24
0.37
0.25
-0.06
-0.38
-0.49
-0.31
0.09
0.49
0.65
0.49
0.14
-0.18
-0.27
-0.07
0.29
0.62
0.74
0.59
0.24
-0.16
-0.48
-0.68
-0.74
-0.67
-0.50
-0.25
0.06
0.36
0.60
0.74
0.76
0.69
0.53
0.30
0.02
-0.27
-0.54
-0.72
-0.77
-0.69
-0.51
-0.30
-0.07
0.14
0.34
0.49
0.52
0.43
0.23
0.05
-0.02
0.08
0.30
0.52
0.64
0.64
0.60
0.62
0.74
0.93
1.07
1.07
0.90
0.63
0.36
0.19
0.18
0.28
0.42
0.55
0.60
0.58
0.49
0.36
0.18
-0.04
-0.30
-0.56
-0.79
-0.96
-1.03
-0.95
-0.74
-0.43
-0.11
0.13
0.23
0.18
0.03
-0.13
-0.24
-0.28
-0.30
-0.37
-0.52
-0.73
-0.90
-0.96
-0.90
-0.78
-0.68
-0.63
-0.60
-0.51
-0.32
-0.06
0.18
0.27
0.14
-0.18
-0.54
-0.81
-0.89
-0.80
-0.64
-0.53
-0.54
-0.64
-0.74
-0.72
-0.50
-0.10
0.39
0.86
1.23
1.46
1.54
1.48
1.31
1.02
0.66
0.30
0.02
-0.06
0.07
0.40
0.79
1.09
1.19
1.08
0.84
0.60
0.45
0.38
0.35
0.29
0.18
0.04
-0.08
-0.15
-0.19
-0.25
-0.36
-0.51
-0.65
-0.73
-0.75
-0.72
-0.68
-0.67
-0.70
-0.75
-0.78
-0.75
-0.65
-0.48
-0.30
-0.16
-0.11
-0.19
-0.35
-0.54
-0.66
-0.67
-0.53
-0.29
0.01
0.27
0.45
0.49
0.41
0.23
0.02
-0.17
-0.30
-0.35
-0.34
-0.28
-0.20
-0.09
0.06
0.25
0.46
0.63
0.74
0.74
0.62
0.40
0.12
-0.14
-0.32
-0.39
-0.30
-0.08
0.24
0.56
0.78
0.78
0.54
0.11
-0.36
-0.68
-0.74
-0.53
-0.18
0.14
0.28
0.22
0.06
-0.08
-0.13
-0.12
-0.12
-0.22
-0.39
-0.57
-0.67
-0.65
-0.54
-0.36
-0.15
0.11
0.40
0.70
0.92
0.99
0.89
0.70
0.50
0.37
0.34
0.40
0.48
0.57
0.63
0.62
0.48
0.20
-0.19
-0.55
-0.75
-0.66
-0.32
0.14
0.50
0.61
0.43
0.06
-0.30
-0.53
-0.58
-0.48
-0.33
-0.19
-0.10
-0.05
-0.03
-0.05
-0.11
-0.19
-0.25
-0.28
-0.30
-0.30
-0.34
-0.41
-0.48
-0.53
-0.51
-0.43
-0.26
-0.02
0.29
0.65
0.98
1.19
1.17
0.87
0.33
-0.34
-0.99
-1.48
-1.72
-1.72
-1.52
-1.19
-0.78
-0.34
0.08
0.45
0.73
0.90
0.96
0.94
0.84
0.69
0.49
0.28
0.10
0.01
0.06
0.24
0.49
0.69
0.76
0.70
0.54
0.39
0.29
0.26
0.26
0.20
0.05
-0.16
-0.36
-0.46
-0.40
-0.19
0.07
0.28
0.34
0.23
-0.02
-0.31
-0.54
-0.63
-0.57
-0.40
-0.18
0.00
0.08
0.06
-0.02
-0.12
-0.18
-0.18
-0.15
-0.10
-0.04
0.04
0.16
0.33
0.54
0.75
0.93
1.05
1.09
1.04
0.85
0.53
0.10
-0.36
-0.77
-1.04
-1.13
-1.02
-0.76
-0.42
-0.08
0.19
0.31
0.26
0.07
-0.21
-0.51
-0.74
-0.87
-0.91
-0.85
-0.71
-0.46
-0.11
0.32
0.71
0.91
0.79
0.32
-0.38
-1.11
-1.64
-1.84
-1.71
-1.37
-0.98
-0.61
-0.25
0.17
0.67
1.22
1.71
2.04
2.15
2.03
1.74
1.32
0.85
0.41
0.09
-0.07
-0.05
0.08
0.21
0.24
0.12
-0.10
-0.34
-0.49
-0.50
-0.34
-0.10
0.16
0.34
0.41
0.37
0.27
0.17
0.10
0.09
0.13
0.19
0.26
0.31
0.32
0.26
0.14
-0.06
-0.29
-0.53
-0.77
-0.99
-1.18
-1.30
-1.30
-1.14
-0.86
-0.50
-0.15
0.15
0.37
0.53
0.63
0.64
0.49
0.14
-0.42
-1.07
-1.65
-1.97
-1.92
-1.53
-0.91
-0.23
0.35
0.78
1.06
1.22
1.31
1.31
1.20
0.99
0.73
0.52
0.45
0.53
0.70
0.82
0.78
0.51
0.08
-0.36
-0.64
-0.65
-0.38
0.07
0.54
0.86
0.95
0.80
0.46
0.04
-0.38
-0.69
-0.83
-0.74
-0.46
-0.06
0.35
0.68
0.90
1.02
1.11
1.21
1.31
1.36
1.27
1.01
0.61
0.17
-0.19
-0.41
-0.47
-0.46
-0.46
-0.57
-0.79
-1.06
-1.27
-1.30
-1.11
-0.74
-0.32
-0.01
0.07
-0.12
-0.48
-0.86
-1.10
-1.13
-0.96
-0.71
-0.49
-0.39
-0.43
-0.55
-0.65
-0.65
-0.51
-0.28
-0.06
0.02
-0.12
-0.50
-0.99
-1.45
-1.72
-1.73
-1.55
-1.30
-1.13
-1.13
-1.28
-1.53
-1.77
-1.94
-2.05
-2.13
-2.19
-2.21
-2.11
-1.82
-1.27
-0.48
0.43
1.36
2.15
2.73
3.12
3.37
3.58
3.81
4.11
4.44
4.77
5.07
5.33
5.59
5.90
6.30
6.77
7.26
7.67
7.98
8.22
8.49
8.91
9.45
9.97
10.22
10.00
9.25
8.17
7.06
6.24
5.88
5.90
6.09
6.22
6.15
5.90
5.60
5.39
5.30
5.26
5.11
4.74
4.08
3.12
1.79
-0.01
-2.42
-5.46
-8.95
-12.46
-15.43
-17.35
-17.97
-17.39
-15.97
-14.20
-12.50
-11.07
-9.93
-8.99
-8.17
-7.43
-6.80
-6.30
-5.97
-5.78
-5.68
-5.52
-5.08
-4.10
-2.39
0.07
3.01
5.90
8.12
9.19
8.99
7.84
6.33
5.08
4.53
4.83
5.87
7.38
9.01
10.37
11.09
10.91
9.82
8.15
6.48
5.44
5.45
6.48
8.09
9.68
10.76
11.28
11.56
12.22
13.85
16.71
20.61
24.91
28.80
31.61
33.17
33.92
34.83
36.93
40.84
46.45
52.90
59.05
63.96
67.36
69.68
71.76
74.38
77.99
82.65
88.08
93.44
96.97
95.81
86.63
66.97
36.87
-0.26
-38.33
-70.59
-92.20
-101.89
-101.85
-96.15
-88.59
-81.30
-74.60
-68.04
-61.45
-55.34
-50.64
-47.87
-46.68
-45.99
-44.50
-41.47
-37.05
-32.20
-28.21
-26.08
-26.09
-27.75
-30.07
-32.07
-33.15
-33.22
-32.61
-31.75
-30.92
-30.15
-29.28
-28.05
-26.33
-24.10
-21.56
-19.00
-16.75
-14.98
-13.65
-12.43
-10.91
-8.79
-6.18
-3.53
-1.53
-0.69
-1.07
-2.20
-3.33
-3.80
-3.28
-1.94
-0.25
1.28
2.34
2.84
2.89
2.68
2.40
2.20
2.17
2.29
2.41
2.32
1.83
0.91
-0.26
-1.35
-2.04
-2.21
-1.96
-1.58
-1.34
-1.34
-1.54
-1.75
-1.84
-1.79
-1.67
-1.56
-1.43
-1.19
-0.74
-0.06
0.76
1.56
2.19
2.54
2.62
2.44
2.05
1.52
0.96
0.53
0.38
0.58
1.08
1.67
2.14
2.34
2.24
1.96
1.63
1.32
1.02
0.65
0.16
-0.37
-0.81
-1.02
-0.95
-0.65
-0.27
0.02
0.14
0.10
-0.01
-0.11
-0.20
-0.31
-0.48
-0.70
-0.88
-0.93
-0.76
-0.40
0.04
0.42
0.62
0.58
0.30
-0.15
-0.68
-1.13
-1.37
-1.30
-0.95
-0.46
-0.02
0.20
0.16
-0.04
-0.27
-0.45
-0.58
-0.73
-0.92
-1.10
-1.14
-0.94
-0.51
0.01
0.43
0.58
0.42
0.03
-0.43
-0.78
-0.86
-0.61
-0.07
0.61
1.22
1.57
1.56
1.28
0.94
0.79
1.01
1.57
2.27
2.84
3.08
2.98
2.67
2.35
2.16
2.08
1.98
1.70
1.18
0.49
-0.24
-0.88
-1.45
-2.03
-2.69
-3.44
-4.17
-4.73
-5.01
-5.04
-4.95
-4.91
-5.03
-5.34
-5.73
-6.12
-6.41
-6.59
-6.68
-6.73
-6.82
-7.00
-7.25
-7.54
-7.74
-7.70
-7.25
-6.29
-4.88
-3.25
-1.72
-0.61
-0.06
-0.01
-0.19
-0.22
0.19
1.18
2.70
4.61
6.75
9.00
11.22
13.20
14.65
15.22
14.71
13.10
10.63
7.71
4.82
2.35
0.52
-0.62
-1.18
-1.35
-1.38
-1.45
-1.70
-2.17
-2.78
-3.35
-3.71
-3.73
-3.42
-2.85
-2.18
-1.59
-1.18
-1.01
-1.05
-1.20
-1.36
-1.41
-1.29
-1.01
-0.63
-0.24
0.10
0.40
0.71
1.09
1.55
2.05
2.48
2.71
2.71
2.51
2.23
1.98
1.86
1.87
1.95
2.07
2.19
2.30
2.42
2.54
2.62
2.61
2.50
2.30
2.08
1.90
1.77
1.65
1.47
1.18
0.77
0.35
0.01
-0.16
-0.16
-0.06
0.09
0.26
0.45
0.70
1.02
1.34
1.55
1.56
1.32
0.92
0.49
0.14
-0.05
-0.12
-0.18
-0.32
-0.55
-0.83
-1.06
-1.14
-1.09
-0.94
-0.79
-0.73
-0.78
-0.92
-1.05
-1.10
-1.06
-0.95
-0.84
-0.80
-0.84
-0.97
-1.15
-1.35
-1.54
-1.66
-1.68
-1.60
-1.46
-1.34
-1.33
-1.46
-1.67
-1.81
-1.73
-1.38
-0.82
-0.22
0.23
0.41
0.30
-0.02
-0.43
-0.80
-1.03
-1.01
-0.67
-0.03
0.82
1.68
2.38
2.76
2.73
2.36
1.74
1.03
0.38
-0.11
-0.39
-0.44
-0.25
0.13
0.64
1.16
1.57
1.81
1.89
1.88
1.88
1.94
1.97
1.86
1.48
0.80
-0.04
-0.81
-1.31
-1.39
-1.07
-0.48
0.21
0.84
1.28
1.45
1.37
1.10
0.78
0.54
0.47
0.54
0.66
0.72
0.67
0.56
0.48
0.50
0.62
0.72
0.68
0.42
0.00
-0.41
-0.61
-0.48
-0.04
0.52
0.96
1.07
0.81
0.30
-0.21
-0.54
-0.63
-0.58
-0.56
-0.68
-0.94
-1.18
-1.28
-1.17
-0.96
-0.81
-0.84
-1.04
-1.24
-1.28
-1.05
-0.65
-0.27
-0.11
-0.26
-0.63
-1.00
-1.18
-1.09
-0.79
-0.47
-0.26
-0.22
-0.29
-0.39
-0.48
-0.58
-0.77
-1.08
-1.46
-1.78
-1.92
-1.83
-1.55
-1.19
-0.87
-0.64
-0.54
-0.50
-0.49
-0.47
-0.41
-0.29
-0.13
0.04
0.20
0.33
0.43
0.54
0.71
0.96
1.29
1.67
2.06
2.39
2.61
2.67
2.56
2.31
1.99
1.71
1.54
1.52
1.63
1.74
1.75
1.59
1.25
0.81
0.36
0.00
-0.20
-0.23
-0.13
0.08
0.33
0.58
0.76
0.82
0.72
0.47
0.13
-0.24
-0.55
-0.80
-1.01
-1.23
-1.46
-1.66
-1.74
-1.64
-1.38
-1.06
-0.80
-0.69
-0.72
-0.81
-0.84
-0.78
-0.61
-0.41
-0.25
-0.13
-0.08
-0.08
-0.15
-0.31
-0.52
-0.71
-0.77
-0.65
-0.34
0.10
0.54
0.91
1.14
1.21
1.11
0.83
0.42
-0.03
-0.38
-0.52
-0.42
-0.13
0.20
0.47
0.60
0.58
0.46
0.30
0.14
0.01
-0.09
-0.13
-0.12
-0.11
-0.14
-0.23
-0.37
-0.51
-0.59
-0.61
-0.62
-0.67
-0.81
-0.99
-1.10
-1.05
-0.76
-0.30
0.18
0.50
0.50
0.18
-0.36
-0.94
-1.40
-1.65
-1.71
-1.68
-1.65
-1.67
-1.71
-1.68
-1.56
-1.34
-1.07
-0.77
-0.43
-0.01
0.54
1.17
1.80
2.28
2.54
2.60
2.50
2.28
1.95
1.48
0.86
0.19
-0.33
-0.48
-0.13
0.68
1.73
2.70
3.30
3.38
2.96
2.20
1.32
0.50
-0.16
-0.66
-1.02
-1.25
-1.30
-1.12
-0.68
-0.02
0.72
1.37
1.79
1.93
1.83
1.57
1.22
0.82
0.32
-0.24
-0.84
-1.33
-1.59
-1.56
-1.27
-0.88
-0.52
-0.30
-0.21
-0.21
-0.20
-0.17
-0.12
-0.09
-0.10
-0.16
-0.25
-0.36
-0.52
-0.72
-0.92
-1.07
-1.10
-0.97
-0.70
-0.35
-0.04
0.16
0.20
0.09
-0.12
-0.35
-0.55
-0.69
-0.75
-0.74
-0.64
-0.48
-0.27
-0.05
0.12
0.21
0.22
0.18
0.16
0.19
0.28
0.40
0.47
0.49
0.47
0.48
0.56
0.67
0.73
0.64
0.34
-0.13
-0.62
-0.96
-1.02
-0.81
-0.43
-0.03
0.25
0.37
0.35
0.26
0.17
0.12
0.17
0.30
0.51
0.73
0.85
0.79
0.54
0.17
-0.20
-0.41
-0.39
-0.17
0.12
0.34
0.40
0.31
0.14
-0.01
-0.09
-0.10
-0.09
-0.08
-0.07
-0.02
0.13
0.36
0.62
0.81
0.85
0.72
0.45
0.16
-0.08
-0.22
-0.29
-0.35
-0.43
-0.58
-0.77
-0.96
-1.15
-1.29
-1.37
-1.35
-1.23
-1.00
-0.75
-0.55
-0.49
-0.61
-0.86
-1.13
-1.32
-1.34
-1.17
-0.85
-0.43
-0.01
0.32
0.51
0.52
0.37
0.12
-0.14
-0.32
-0.35
-0.19
0.13
0.57
1.01
1.36
1.56
1.58
1.45
1.25
1.09
1.01
1.05
1.15
1.24
1.26
1.20
1.03
0.76
0.43
0.08
-0.23
-0.42
-0.46
-0.33
-0.05
0.32
0.70
0.99
1.10
0.96
0.59
0.03
-0.55
-1.02
-1.27
-1.31
-1.22
-1.12
-1.10
-1.11
-1.06
-0.84
-0.43
0.06
0.46
0.63
0.51
0.20
-0.14
-0.36
-0.41
-0.33
-0.22
-0.13
-0.05
0.07
0.26
0.49
0.65
0.60
0.27
-0.28
-0.88
-1.31
-1.45
-1.28
-0.92
-0.54
-0.28
-0.21
-0.29
-0.43
-0.52
-0.55
-0.53
-0.51
-0.53
-0.58
-0.62
-0.64
-0.63
-0.66
-0.77
-0.97
-1.21
-1.34
-1.26
-0.91
-0.32
0.38
1.01
1.45
1.65
1.61
1.43
1.18
0.91
0.65
0.40
0.18
0.01
-0.08
-0.12
-0.18
-0.31
-0.52
-0.73
-0.82
-0.72
-0.44
-0.08
0.24
0.43
0.49
0.47
0.39
0.26
0.07
-0.16
-0.39
-0.52
-0.44
-0.11
0.43
1.10
1.78
2.36
2.73
2.84
2.65
2.18
1.54
0.83
0.21
-0.20
-0.35
-0.22
0.07
0.39
0.59
0.56
0.32
-0.02
-0.32
-0.50
-0.54
-0.50
-0.46
-0.44
-0.40
-0.31
-0.16
-0.00
0.06
-0.02
-0.23
-0.44
-0.56
-0.48
-0.23
0.09
0.34
0.41
0.27
-0.04
-0.40
-0.73
-0.98
-1.12
-1.13
-0.97
-0.60
-0.01
0.70
1.35
1.72
1.65
1.15
0.42
-0.28
-0.71
-0.77
-0.54
-0.19
0.10
0.20
0.10
-0.15
-0.46
-0.73
-0.92
-1.00
-0.97
-0.86
-0.68
-0.46
-0.21
0.02
0.20
0.30
0.31
0.23
0.11
0.01
-0.04
-0.04
-0.02
-0.01
-0.02
-0.01
0.08
0.23
0.40
0.50
0.45
0.27
0.06
-0.06
-0.04
0.10
0.22
0.25
0.17
0.08
0.09
0.27
0.53
0.72
0.70
0.45
0.10
-0.17
-0.21
0.00
0.32
0.58
0.64
0.49
0.25
0.04
-0.02
0.06
0.19
0.25
0.13
-0.18
-0.59
-0.98
-1.22
-1.21
-0.98
-0.60
-0.19
0.16
0.41
0.56
0.64
0.65
0.58
0.46
0.31
0.24
0.35
0.65
1.09
1.48
1.63
1.45
0.96
0.32
-0.24
-0.56
-0.58
-0.38
-0.10
0.10
0.09
-0.17
-0.62
-1.14
-1.55
-1.70
-1.54
-1.15
-0.67
-0.30
-0.15
-0.21
-0.42
-0.70
-1.01
-1.28
-1.45
-1.43
-1.14
-0.63
-0.02
0.47
0.66
0.51
0.15
-0.21
-0.39
-0.32
-0.06
0.25
0.49
0.65
0.75
0.83
0.91
0.94
0.88
0.74
0.56
0.45
0.45
0.55
0.64
0.63
0.45
0.12
-0.25
-0.56
-0.75
-0.79
-0.72
-0.56
-0.36
-0.17
-0.03
-0.01
-0.09
-0.22
-0.27
-0.17
0.08
0.39
0.61
0.65
0.50
0.21
-0.12
-0.39
-0.58
-0.67
-0.70
-0.65
-0.52
-0.32
-0.08
0.16
0.33
0.41
0.38
0.25
0.06
-0.11
-0.21
-0.21
-0.10
0.08
0.30
0.50
0.66
0.75
0.76
0.69
0.55
0.34
0.09
-0.16
-0.37
-0.51
-0.54
-0.45
-0.24
0.05
0.36
0.62
0.79
0.86
0.85
0.80
0.74
0.70
0.68
0.68
0.67
0.63
0.53
0.36
0.15
-0.07
-0.25
-0.38
-0.48
-0.61
-0.80
-1.02
-1.17
-1.18
-1.01
-0.68
-0.34
-0.08
0.01
-0.04
-0.16
-0.25
-0.24
-0.15
0.01
0.19
0.39
0.61
0.85
1.10
1.28
1.32
1.17
0.84
0.38
-0.08
-0.43
-0.58
-0.51
-0.32
-0.12
-0.05
-0.16
-0.42
-0.69
-0.84
-0.78
-0.51
-0.16
0.12
0.24
0.19
0.06
-0.06
-0.10
-0.07
-0.03
0.00
0.03
0.10
0.21
0.35
0.43
0.40
0.27
0.13
0.09
0.21
0.44
0.68
0.79
0.70
0.48
0.27
0.20
0.30
0.49
0.62
0.58
0.33
-0.08
-0.51
-0.85
-1.06
-1.16
-1.20
-1.19
-1.10
-0.87
-0.46
0.09
0.64
1.04
1.15
0.96
0.58
0.19
-0.07
-0.15
-0.10
-0.02
0.04
0.11
0.26
0.57
1.01
1.46
1.76
1.80
1.55
1.06
0.43
-0.22
-0.81
-1.28
-1.60
-1.80
-1.90
-1.94
-1.93
-1.82
-1.55
-1.06
-0.38
0.38
1.06
1.51
1.68
1.54
1.13
0.52
-0.21
-0.93
-1.49
-1.79
-1.77
-1.48
-1.01
-0.45
0.14
0.76
1.36
1.89
2.25
2.35
2.16
1.74
1.19
0.60
0.03
-0.54
-1.08
-1.55
-1.89
-2.01
-1.87
-1.47
-0.88
-0.24
0.35
0.80
1.08
1.19
1.22
1.21
1.18
1.08
0.83
0.38
-0.25
-0.97
-1.64
-2.12
-2.33
-2.26
-1.95
-1.49
-0.96
-0.47
-0.10
0.09
0.09
-0.05
-0.27
-0.48
-0.61
-0.63
-0.56
-0.43
-0.28
-0.13
0.03
0.25
0.56
0.96
1.37
1.66
1.69
1.41
0.89
0.30
-0.15
-0.31
-0.19
0.09
0.32
0.39
0.25
0.02
-0.17
-0.20
-0.04
0.20
0.39
0.42
0.28
0.03
-0.18
-0.26
-0.16
0.03
0.23
0.35
0.39
0.36
0.33
0.32
0.30
0.25
0.16
0.03
-0.09
-0.19
-0.24
-0.28
-0.31
-0.34
-0.35
-0.32
-0.27
-0.23
-0.20
-0.17
-0.12
-0.04
0.07
0.21
0.37
0.55
0.75
0.96
1.15
1.24
1.18
0.96
0.65
0.36
0.18
0.14
0.18
0.25
0.26
0.20
0.07
-0.08
-0.23
-0.32
-0.35
-0.31
-0.20
-0.04
0.16
0.35
0.50
0.56
0.52
0.39
0.19
-0.00
-0.15
-0.20
-0.19
-0.13
-0.09
-0.07
-0.05
0.01
0.11
0.20
0.22
0.11
-0.09
-0.32
-0.48
-0.51
-0.42
-0.28
-0.15
-0.10
-0.13
-0.22
-0.32
-0.37
-0.37
-0.32
-0.26
-0.27
-0.40
-0.63
-0.91
-1.11
-1.17
-1.04
-0.78
-0.48
-0.20
0.03
0.24
0.42
0.54
0.54
0.39
0.12
-0.20
-0.45
-0.54
-0.45
-0.20
0.13
0.45
0.69
0.77
0.68
0.46
0.19
-0.01
-0.07
0.02
0.17
0.29
0.32
0.27
0.22
0.23
0.34
0.50
0.68
0.79
0.81
0.76
0.65
0.50
0.30
0.03
-0.28
-0.57
-0.76
-0.76
-0.57
-0.26
0.04
0.23
0.23
0.10
-0.06
-0.16
-0.19
-0.19
-0.24
-0.37
-0.52
-0.58
-0.45
-0.12
0.32
0.71
0.90
0.84
0.57
0.22
-0.09
-0.27
-0.32
-0.28
-0.21
-0.17
-0.17
-0.18
-0.14
-0.04
0.14
0.33
0.45
0.43
0.22
-0.12
-0.50
-0.80
-0.92
-0.83
-0.61
-0.36
-0.20
-0.20
-0.37
-0.62
-0.83
-0.91
-0.83
-0.63
-0.41
-0.21
-0.05
0.11
0.30
0.52
0.69
0.72
0.58
0.33
0.07
-0.09
-0.08
0.05
0.22
0.32
0.31
0.20
0.07
-0.00
0.04
0.20
0.39
0.54
0.56
0.41
0.14
-0.20
-0.51
-0.72
-0.78
-0.69
-0.49
-0.19
0.15
0.49
0.74
0.88
0.86
0.68
0.42
0.12
-0.15
-0.34
-0.46
-0.49
-0.46
-0.36
-0.19
0.01
0.17
0.20
0.07
-0.16
-0.34
-0.33
-0.08
0.34
0.73
0.94
0.89
0.68
0.47
0.42
0.54
0.73
0.84
0.76
0.51
0.21
-0.02
-0.10
-0.04
0.08
0.19
0.26
0.34
0.45
0.57
0.67
0.65
0.46
0.13
-0.27
-0.63
-0.89
-1.01
-1.00
-0.89
-0.67
-0.36
-0.02
0.24
0.34
0.22
-0.07
-0.38
-0.55
-0.51
-0.29
-0.04
0.10
0.06
-0.12
-0.30
-0.37
-0.27
-0.01
0.31
0.59
0.73
0.69
0.49
0.17
-0.19
-0.53
-0.76
-0.89
-0.92
-0.88
-0.79
-0.66
-0.48
-0.22
0.08
0.35
0.53
0.56
0.43
0.19
-0.07
-0.25
-0.29
-0.20
-0.04
0.09
0.14
0.08
-0.05
-0.17
-0.23
-0.23
-0.23
-0.26
-0.32
-0.36
-0.30
-0.12
0.18
0.49
0.73
0.85
0.86
0.82
0.78
0.76
0.73
0.64
0.47
0.26
0.05
-0.10
-0.18
-0.22
-0.27
-0.36
-0.48
-0.62
-0.72
-0.76
-0.72
-0.58
-0.34
-0.03
0.28
0.50
0.55
0.41
0.14
-0.16
-0.37
-0.44
-0.40
-0.33
-0.28
-0.27
-0.27
-0.21
-0.08
0.05
0.12
0.07
-0.11
-0.33
-0.49
-0.51
-0.36
-0.11
0.17
0.40
0.52
0.55
0.49
0.38
0.24
0.09
-0.07
-0.23
-0.38
-0.47
-0.44
-0.25
0.07
0.44
0.74
0.88
0.80
0.58
0.34
0.24
0.36
0.65
0.99
1.23
1.27
1.12
0.84
0.54
0.33
0.25
0.26
0.30
0.34
0.33
0.31
0.30
0.34
0.38
0.37
0.26
0.02
-0.29
-0.60
-0.85
-1.00
-1.06
-1.05
-0.96
-0.78
-0.52
-0.20
0.06
0.19
0.17
0.04
-0.09
-0.10
0.05
0.31
0.57
0.73
0.73
0.54
0.21
-0.17
-0.53
-0.78
-0.89
-0.88
-0.78
-0.67
-0.57
-0.45
-0.31
-0.12
0.06
0.16
0.13
-0.01
-0.20
-0.29
-0.21
0.02
0.31
0.51
0.54
0.39
0.18
0.02
0.02
0.17
0.43
0.67
0.81
0.77
0.58
0.29
-0.02
-0.27
-0.43
-0.50
-0.52
-0.53
-0.56
-0.58
-0.57
-0.51
-0.42
-0.34
-0.30
-0.27
-0.20
-0.06
0.13
0.31
0.40
0.34
0.16
-0.09
-0.31
-0.44
-0.46
-0.36
-0.15
0.16
0.53
0.90
1.14
1.18
0.99
0.61
0.16
-0.24
-0.51
-0.63
-0.62
-0.56
-0.46
-0.33
-0.12
0.17
0.51
0.82
0.97
0.91
0.64
0.27
-0.06
-0.23
-0.23
-0.11
0.02
0.09
0.07
-0.02
-0.13
-0.26
-0.39
-0.51
-0.61
-0.65
-0.62
-0.54
-0.44
-0.33
-0.19
-0.00
0.23
0.44
0.51
0.37
0.04
-0.36
-0.66
-0.71
-0.47
-0.04
0.42
0.73
0.82
0.69
0.43
0.15
-0.08
-0.24
-0.33
-0.34
-0.28
-0.13
0.07
0.28
0.43
0.53
0.58
0.63
0.66
0.64
0.50
0.17
-0.26
-0.67
-0.86
-0.70
-0.23
0.40
0.91
1.11
0.95
0.53
0.03
-0.35
-0.52
-0.50
-0.36
-0.20
-0.08
-0.00
0.05
0.07
0.04
-0.06
-0.25
-0.46
-0.60
-0.59
-0.42
-0.13
0.13
0.27
0.21
-0.02
-0.33
-0.62
-0.79
-0.79
-0.62
-0.35
-0.04
0.21
0.31
0.22
-0.08
-0.49
-0.90
-1.16
-1.16
-0.88
-0.40
0.15
0.61
0.88
0.89
0.70
0.41
0.15
0.01
0.02
0.16
0.35
0.52
0.62
0.61
0.50
0.33
0.16
0.07
0.10
0.26
0.48
0.68
0.72
0.56
0.24
-0.13
-0.43
-0.60
-0.64
-0.62
-0.58
-0.53
-0.42
-0.20
0.14
0.53
0.83
0.95
0.84
0.58
0.31
0.16
0.23
0.46
0.73
0.90
0.89
0.70
0.44
0.23
0.13
0.09
0.02
-0.13
-0.36
-0.54
-0.55
-0.35
-0.04
0.20
0.20
-0.06
-0.47
-0.83
-0.97
-0.84
-0.51
-0.14
0.16
0.33
0.37
0.30
0.13
-0.12
-0.43
-0.72
-0.88
-0.82
-0.52
-0.05
0.42
0.74
0.80
0.57
0.16
-0.31
-0.68
-0.86
-0.84
-0.67
-0.46
-0.26
-0.12
-0.00
0.11
0.26
0.44
0.64
0.82
0.89
0.82
0.57
0.17
-0.28
-0.63
-0.78
-0.65
-0.28
0.18
0.60
0.84
0.87
0.70
0.39
0.02
-0.33
-0.57
-0.64
-0.51
-0.22
0.12
0.40
0.54
0.54
0.43
0.31
0.21
0.12
0.01
-0.14
-0.33
-0.50
-0.62
-0.71
-0.78
-0.89
-1.02
-1.14
-1.16
-1.03
-0.76
-0.44
-0.18
-0.03
0.02
0.04
0.11
0.23
0.35
0.35
0.15
-0.24
-0.73
-1.16
-1.38
-1.33
-1.02
-0.54
-0.00
0.50
0.91
1.22
1.42
1.54
1.61
1.63
1.63
1.61
1.56
1.48
1.35
1.13
0.80
0.38
-0.07
-0.45
-0.68
-0.70
-0.58
-0.42
-0.36
-0.46
-0.71
-0.99
-1.14
-1.07
-0.76
-0.30
0.18
0.50
0.59
0.43
0.09
-0.28
-0.57
-0.72
-0.71
-0.61
-0.48
-0.35
-0.24
-0.16
-0.09
-0.07
-0.09
-0.13
-0.15
-0.09
0.07
0.26
0.38
0.35
0.15
-0.13
-0.36
-0.42
-0.28
0.00
0.32
0.55
0.63
0.55
0.34
0.04
-0.26
-0.50
-0.65
-0.67
-0.56
-0.37
-0.12
0.11
0.28
0.39
0.43
0.44
0.43
0.42
0.39
0.35
0.31
0.31
0.40
0.61
0.93
1.27
1.52
1.57
1.40
1.05
0.61
0.17
-0.21
-0.51
-0.72
-0.84
-0.87
-0.80
-0.66
-0.51
-0.39
-0.31
-0.25
-0.16
-0.00
0.20
0.34
0.31
0.06
-0.34
-0.71
-0.85
-0.67
-0.23
0.28
0.64
0.72
0.55
0.29
0.11
0.12
0.31
0.57
0.79
0.91
0.94
0.95
0.98
1.06
1.12
1.13
1.02
0.80
0.54
0.32
0.20
0.22
0.34
0.47
0.51
0.41
0.14
-0.22
-0.60
-0.90
-1.06
-1.07
-1.01
-0.95
-0.94
-1.01
-1.11
-1.17
-1.10
-0.88
-0.54
-0.12
0.27
0.59
0.76
0.79
0.71
0.57
0.47
0.49
0.63
0.86
1.08
1.18
1.10
0.81
0.40
-0.05
-0.43
-0.65
-0.73
-0.72
-0.71
-0.76
-0.92
-1.13
-1.30
-1.35
-1.23
-0.98
-0.67
-0.40
-0.21
-0.13
-0.11
-0.12
-0.14
-0.15
-0.16
-0.16
-0.12
-0.04
0.07
0.19
0.29
0.35
0.41
0.49
0.58
0.65
0.63
0.47
0.23
-0.00
-0.12
-0.10
0.02
0.12
0.13
0.06
0.00
0.04
0.19
0.35
0.40
0.24
-0.08
-0.44
-0.64
-0.58
-0.27
0.18
0.60
0.83
0.78
0.46
-0.02
-0.49
-0.82
-0.88
-0.72
-0.44
-0.20
-0.12
-0.23
-0.47
-0.72
-0.89
-0.91
-0.78
-0.53
-0.18
0.19
0.50
0.68
0.68
0.52
0.27
0.03
-0.10
-0.08
0.11
0.43
0.82
1.16
1.34
1.27
0.92
0.43
0.02
-0.12
0.08
0.51
0.94
1.12
0.95
0.52
0.04
-0.32
-0.46
-0.45
-0.39
-0.36
-0.37
-0.36
-0.26
-0.05
0.22
0.46
0.57
0.46
0.13
-0.36
-0.87
-1.22
-1.29
-1.04
-0.61
-0.21
-0.02
-0.11
-0.39
-0.68
-0.79
-0.63
-0.26
0.20
0.60
0.88
1.02
1.10
1.17
1.22
1.22
1.11
0.87
0.54
0.20
-0.08
-0.27
-0.38
-0.47
-0.61
-0.80
-1.01
-1.19
-1.30
-1.36
-1.43
-1.57
-1.80
-2.10
-2.37
-2.52
-2.48
-2.22
-1.78
-1.30
-0.88
-0.63
-0.55
-0.57
-0.59
-0.57
-0.53
-0.54
-0.64
-0.77
-0.79
-0.61
-0.19
0.34
0.81
1.07
1.08
0.94
0.75
0.61
0.53
0.53
0.60
0.77
1.01
1.26
1.40
1.36
1.12
0.81
0.56
0.47
0.54
0.71
0.89
1.06
1.22
1.39
1.54
1.63
1.62
1.51
1.35
1.19
1.09
1.08
1.18
1.40
1.73
2.17
2.66
3.10
3.38
3.41
3.21
2.84
2.42
2.02
1.67
1.39
1.15
0.98
0.88
0.84
0.80
0.68
0.38
-0.13
-0.79
-1.49
-2.08
-2.45
-2.58
-2.53
-2.38
-2.21
-2.07
-1.97
-1.87
-1.76
-1.62
-1.48
-1.39
-1.37
-1.43
-1.53
-1.59
-1.53
-1.34
-1.01
-0.61
-0.22
0.07
0.21
0.17
0.00
-0.20
-0.32
-0.29
-0.07
0.28
0.64
0.91
1.01
0.92
0.67
0.30
-0.10
-0.43
-0.59
-0.51
-0.19
0.26
0.65
0.82
0.68
0.30
-0.17
-0.56
-0.80
-0.89
-0.88
-0.83
-0.71
-0.50
-0.20
0.14
0.45
0.65
0.72
0.64
0.43
0.13
-0.22
-0.53
-0.69
-0.65
-0.43
-0.13
0.09
0.14
0.04
-0.11
-0.21
-0.19
-0.09
-0.01
-0.02
-0.15
-0.34
-0.49
-0.52
-0.41
-0.21
-0.04
-0.00
-0.15
-0.45
-0.78
-0.99
-0.96
-0.64
-0.09
0.54
1.08
1.39
1.42
1.22
0.91
0.62
0.46
0.46
0.57
0.69
0.70
0.56
0.32
0.08
-0.08
-0.11
-0.07
-0.02
-0.05
-0.18
-0.39
-0.62
-0.81
-0.94
-0.98
-0.92
-0.76
-0.50
-0.16
0.20
0.48
0.59
0.50
0.22
-0.10
-0.35
-0.40
-0.25
-0.01
0.13
0.04
-0.28
-0.72
-1.07
-1.13
-0.87
-0.38
0.14
0.50
0.58
0.43
0.15
-0.11
-0.27
-0.32
-0.33
-0.36
-0.44
-0.52
-0.51
-0.35
-0.05
0.29
0.53
0.54
0.32
-0.04
-0.37
-0.52
-0.42
-0.15
0.15
0.33
0.33
0.20
0.07
0.05
0.15
0.31
0.42
0.40
0.29
0.16
0.15
0.28
0.49
0.64
0.62
0.43
0.13
-0.09
-0.13
0.06
0.41
0.80
1.10
1.25
1.24
1.11
0.89
0.60
0.24
-0.15
-0.54
-0.85
-1.06
-1.15
-1.15
-1.09
-1.00
-0.84
-0.63
-0.36
-0.09
0.13
0.25
0.24
0.15
0.01
-0.09
-0.10
0.03
0.26
0.51
0.67
0.64
0.43
0.11
-0.20
-0.38
-0.42
-0.37
-0.33
-0.36
-0.41
-0.42
-0.33
-0.16
0.01
0.06
-0.06
-0.32
-0.60
-0.78
-0.80
-0.70
-0.57
-0.48
-0.48
-0.50
-0.49
-0.40
-0.25
-0.10
0.00
0.06
0.12
0.27
0.53
0.84
1.09
1.16
1.04
0.82
0.59
0.48
0.48
0.54
0.59
0.58
0.54
0.52
0.54
0.60
0.67
0.69
0.63
0.47
0.22
-0.11
-0.48
-0.81
-0.97
-0.88
-0.50
0.07
0.68
1.14
1.33
1.24
0.93
0.50
0.05
-0.37
-0.67
-0.81
-0.77
-0.55
-0.23
0.10
0.32
0.40
0.32
0.14
-0.05
-0.20
-0.24
-0.19
-0.08
0.04
0.08
-0.00
-0.18
-0.42
-0.63
-0.76
-0.80
-0.77
-0.72
-0.68
-0.67
-0.69
-0.74
-0.78
-0.76
-0.63
-0.35
0.02
0.40
0.69
0.81
0.73
0.52
0.27
0.07
-0.03
-0.01
0.09
0.23
0.37
0.47
0.49
0.42
0.27
0.06
-0.18
-0.44
-0.66
-0.79
-0.80
-0.66
-0.39
-0.07
0.25
0.48
0.63
0.72
0.77
0.82
0.86
0.90
0.90
0.84
0.67
0.40
0.05
-0.31
-0.56
-0.64
-0.52
-0.29
-0.07
0.03
0.01
-0.09
-0.13
-0.05
0.18
0.47
0.71
0.82
0.75
0.53
0.22
-0.09
-0.32
-0.39
-0.31
-0.11
0.09
0.17
0.08
-0.17
-0.47
-0.69
-0.72
-0.57
-0.32
-0.07
0.09
0.12
0.06
-0.06
-0.18
-0.26
-0.26
-0.17
0.01
0.23
0.43
0.53
0.51
0.36
0.14
-0.07
-0.23
-0.31
-0.31
-0.24
-0.10
0.09
0.31
0.47
0.53
0.45
0.28
0.09
-0.03
-0.01
0.10
0.25
0.36
0.39
0.37
0.38
0.44
0.52
0.55
0.45
0.20
-0.12
-0.41
-0.55
-0.52
-0.41
-0.31
-0.29
-0.31
-0.31
-0.21
-0.02
0.19
0.35
0.44
0.48
0.54
0.64
0.73
0.74
0.58
0.25
-0.17
-0.58
-0.88
-1.04
-1.08
-1.00
-0.79
-0.47
-0.07
0.28
0.50
0.49
0.28
-0.04
-0.33
-0.53
-0.61
-0.60
-0.55
-0.51
-0.46
-0.39
-0.27
-0.14
-0.02
0.01
-0.09
-0.34
-0.72
-1.12
-1.40
-1.45
-1.20
-0.67
-0.01
0.60
0.98
1.07
0.91
0.68
0.54
0.59
0.81
1.07
1.20
1.13
0.88
0.57
0.32
0.19
0.16
0.13
0.03
-0.17
-0.42
-0.68
-0.89
-1.00
-1.01
-0.89
-0.66
-0.36
-0.07
0.14
0.24
0.27
0.25
0.22
0.17
0.08
-0.03
-0.10
-0.06
0.14
0.46
0.78
0.98
0.98
0.79
0.45
0.05
-0.39
-0.81
-1.16
-1.33
-1.25
-0.90
-0.37
0.15
0.48
0.52
0.33
0.02
-0.22
-0.29
-0.16
0.10
0.42
0.74
1.01
1.24
1.40
1.46
1.39
1.18
0.86
0.52
0.25
0.13
0.19
0.38
0.59
0.69
0.56
0.16
-0.46
-1.17
-1.80
-2.22
-2.35
-2.20
-1.84
-1.34
-0.77
-0.21
0.29
0.64
0.80
0.77
0.63
0.48
0.42
0.51
0.73
1.01
1.27
1.42
1.42
1.24
0.88
0.41
-0.10
-0.56
-0.88
-1.01
-0.95
-0.76
-0.50
-0.26
-0.09
-0.07
-0.20
-0.47
-0.83
-1.19
-1.47
-1.58
-1.47
-1.15
-0.68
-0.18
0.21
0.38
0.31
0.09
-0.14
-0.24
-0.14
0.12
0.43
0.68
0.80
0.78
0.68
0.56
0.46
0.40
0.38
0.40
0.45
0.50
0.50
0.42
0.27
0.07
-0.14
-0.33
-0.47
-0.55
-0.56
-0.46
-0.24
0.09
0.42
0.64
0.65
0.44
0.12
-0.18
-0.31
-0.26
-0.09
0.04
0.06
-0.06
-0.24
-0.37
-0.39
-0.30
-0.16
-0.00
0.16
0.36
0.60
0.88
1.11
1.19
1.07
0.75
0.36
0.03
-0.14
-0.14
-0.02
0.14
0.31
0.48
0.70
0.96
1.21
1.38
1.38
1.19
0.83
0.42
0.06
-0.19
-0.33
-0.42
-0.53
-0.71
-0.93
-1.13
-1.20
-1.10
-0.84
-0.51
-0.21
-0.05
-0.04
-0.15
-0.28
-0.37
-0.39
-0.36
-0.32
-0.29
-0.29
-0.31
-0.34
-0.41
-0.50
-0.63
-0.80
-0.97
-1.11
-1.17
-1.10
-0.83
-0.37
0.21
0.78
1.19
1.33
1.22
0.99
0.85
0.94
1.29
1.78
2.22
2.44
2.38
2.12
1.82
1.59
1.49
1.45
1.41
1.32
1.18
1.04
0.90
0.74
0.47
0.08
-0.36
-0.71
-0.80
-0.57
-0.11
0.37
0.64
0.54
0.06
-0.67
-1.40
-1.95
-2.20
-2.13
-1.84
-1.47
-1.11
-0.83
-0.66
-0.57
-0.54
-0.58
-0.70
-0.90
-1.17
-1.47
-1.75
-1.95
-2.02
-1.98
-1.83
-1.63
-1.42
-1.22
-1.03
-0.83
-0.59
-0.30
0.04
0.41
0.74
0.97
1.03
0.85
0.43
-0.15
-0.76
-1.24
-1.47
-1.42
-1.15
-0.79
-0.43
-0.12
0.14
0.37
0.56
0.66
0.61
0.38
0.05
-0.28
-0.50
-0.58
-0.57
-0.53
-0.48
-0.38
-0.19
0.09
0.43
0.73
0.92
0.98
0.96
0.93
0.88
0.82
0.70
0.53
0.36
0.24
0.20
0.24
0.28
0.27
0.22
0.14
0.10
0.12
0.16
0.21
0.25
0.30
0.39
0.56
0.78
0.95
1.00
0.84
0.51
0.06
-0.39
-0.73
-0.92
-0.90
-0.67
-0.22
0.38
1.00
1.50
1.78
1.80
1.61
1.31
0.96
0.58
0.18
-0.21
-0.50
-0.57
-0.32
0.21
0.86
1.43
1.73
1.75
1.57
1.34
1.18
1.12
1.08
1.01
0.87
0.67
0.44
0.20
-0.05
-0.29
-0.47
-0.55
-0.50
-0.36
-0.23
-0.21
-0.34
-0.57
-0.80
-0.94
-0.98
-0.96
-0.95
-0.97
-0.98
-0.94
-0.80
-0.62
-0.48
-0.45
-0.50
-0.55
-0.47
-0.18
0.28
0.76
1.07
1.06
0.73
0.20
-0.35
-0.73
-0.86
-0.80
-0.65
-0.49
-0.36
-0.26
-0.15
-0.06
-0.01
-0.04
-0.13
-0.23
-0.25
-0.16
-0.00
0.12
0.08
-0.16
-0.53
-0.86
-0.97
-0.76
-0.30
0.25
0.65
0.73
0.49
0.03
-0.42
-0.67
-0.63
-0.31
0.14
0.57
0.85
0.91
0.75
0.40
-0.08
-0.62
-1.13
-1.52
-1.71
-1.68
-1.44
-1.11
-0.79
-0.57
-0.49
-0.54
-0.69
-0.91
-1.16
-1.42
-1.67
-1.90
-2.06
-2.11
-1.94
-1.53
-0.89
-0.16
0.50
0.93
1.08
1.03
0.94
0.96
1.14
1.41
1.64
1.71
1.60
1.39
1.23
1.22
1.39
1.67
1.91
1.99
1.81
1.40
0.87
0.42
0.22
0.38
0.87
1.56
2.22
2.65
2.73
2.46
1.99
1.51
1.20
1.11
1.16
1.18
1.01
0.61
0.07
-0.42
-0.73
-0.79
-0.67
-0.49
-0.34
-0.24
-0.15
0.00
0.20
0.38
0.49
0.50
0.45
0.44
0.54
0.75
0.97
1.13
1.15
1.06
0.92
0.78
0.64
0.46
0.17
-0.24
-0.68
-1.04
-1.22
-1.21
-1.06
-0.91
-0.85
-0.92
-1.07
-1.21
-1.28
-1.26
-1.22
-1.24
-1.38
-1.61
-1.84
-1.93
-1.77
-1.36
-0.82
-0.33
-0.09
-0.15
-0.45
-0.82
-1.09
-1.16
-1.05
-0.83
-0.57
-0.32
-0.09
0.11
0.23
0.23
0.07
-0.20
-0.47
-0.62
-0.61
-0.46
-0.27
-0.16
-0.18
-0.30
-0.45
-0.58
-0.67
-0.72
-0.78
-0.86
-0.93
-0.97
-0.97
-0.95
-0.94
-0.93
-0.91
-0.86
-0.78
-0.65
-0.52
-0.37
-0.24
-0.11
0.01
0.09
0.14
0.17
0.22
0.32
0.52
0.81
1.12
1.36
1.48
1.46
1.38
1.34
1.40
1.53
1.63
1.58
1.30
0.86
0.39
0.03
-0.14
-0.17
-0.13
-0.10
-0.08
0.00
0.19
0.47
0.74
0.88
0.80
0.51
0.10
-0.34
-0.72
-0.99
-1.14
-1.17
-1.08
-0.89
-0.63
-0.33
-0.02
0.26
0.44
0.50
0.43
0.22
-0.04
-0.29
-0.43
-0.45
-0.39
-0.33
-0.34
-0.42
-0.49
-0.46
-0.27
0.01
0.26
0.33
0.16
-0.15
-0.44
-0.52
-0.34
0.04
0.46
0.74
0.82
0.75
0.64
0.58
0.57
0.54
0.38
0.07
-0.34
-0.74
-0.98
-0.99
-0.81
-0.52
-0.22
-0.00
0.13
0.22
0.29
0.37
0.44
0.45
0.40
0.30
0.20
0.14
0.18
0.28
0.42
0.57
0.71
0.86
0.98
1.04
1.00
0.83
0.52
0.14
-0.23
-0.53
-0.71
-0.78
-0.76
-0.69
-0.55
-0.37
-0.17
0.02
0.13
0.16
0.11
0.01
-0.12
-0.29
-0.52
-0.76
-0.93
-0.93
-0.72
-0.36
-0.00
0.17
0.06
-0.25
-0.58
-0.73
-0.62
-0.30
0.05
0.32
0.44
0.46
0.43
0.43
0.45
0.48
0.52
0.56
0.63
0.69
0.71
0.67
0.55
0.38
0.20
0.04
-0.13
-0.31
-0.50
-0.64
-0.70
-0.63
-0.45
-0.19
0.11
0.41
0.67
0.85
0.90
0.80
0.58
0.31
0.06
-0.12
-0.23
-0.28
-0.22
-0.01
0.35
0.83
1.28
1.54
1.52
1.27
0.92
0.62
0.41
0.24
-0.01
-0.39
-0.81
-1.13
-1.21
-1.03
-0.73
-0.48
-0.42
-0.53
-0.71
-0.82
-0.79
-0.63
-0.46
-0.37
-0.41
-0.54
-0.68
-0.74
-0.65
-0.41
-0.05
0.34
0.67
0.83
0.79
0.57
0.26
0.01
-0.10
-0.04
0.15
0.38
0.57
0.72
0.80
0.84
0.78
0.62
0.38
0.17
0.11
0.24
0.49
0.67
0.59
0.17
-0.49
-1.13
-1.51
-1.50
-1.16
-0.68
-0.27
-0.07
-0.07
-0.14
-0.15
-0.02
0.23
0.50
0.67
0.66
0.47
0.20
-0.02
-0.09
-0.02
0.10
0.14
-0.02
-0.38
-0.82
-1.15
-1.22
-0.98
-0.50
0.04
0.43
0.56
0.43
0.13
-0.18
-0.40
-0.48
-0.43
-0.29
-0.11
0.08
0.28
0.47
0.64
0.76
0.79
0.72
0.56
0.36
0.17
0.04
-0.03
-0.06
-0.08
-0.11
-0.13
-0.12
-0.07
0.00
0.02
-0.07
-0.29
-0.60
-0.90
-1.07
-1.04
-0.82
-0.47
-0.10
0.21
0.43
0.57
0.66
0.71
0.71
0.64
0.51
0.36
0.28
0.30
0.43
0.61
0.74
0.76
0.65
0.46
0.26
0.12
0.02
-0.07
-0.20
-0.37
-0.52
-0.54
-0.38
-0.08
0.21
0.30
0.07
-0.43
-1.03
-1.49
-1.67
-1.53
-1.19
-0.77
-0.37
-0.04
0.20
0.35
0.39
0.32
0.20
0.09
0.06
0.12
0.18
0.16
0.05
-0.07
-0.04
0.22
0.69
1.17
1.46
1.39
1.02
0.52
0.11
-0.07
-0.07
-0.02
-0.07
-0.25
-0.46
-0.57
-0.51
-0.30
-0.04
0.16
0.28
0.36
0.46
0.57
0.68
0.71
0.65
0.49
0.29
0.06
-0.18
-0.40
-0.57
-0.61
-0.46
-0.15
0.21
0.46
0.49
0.29
-0.07
-0.44
-0.72
-0.86
-0.88
-0.79
-0.62
-0.36
-0.05
0.25
0.46
0.50
0.38
0.16
-0.06
-0.18
-0.13
0.06
0.33
0.58
0.73
0.74
0.63
0.46
0.27
0.07
-0.12
-0.31
-0.48
-0.60
-0.66
-0.64
-0.60
-0.58
-0.59
-0.64
-0.66
-0.60
-0.42
-0.15
0.13
0.35
0.41
0.31
0.10
-0.13
-0.29
-0.34
-0.30
-0.22
-0.16
-0.11
-0.03
0.13
0.37
0.65
0.87
0.97
0.93
0.80
0.63
0.47
0.36
0.31
0.34
0.46
0.65
0.84
0.92
0.80
0.48
0.03
-0.42
-0.78
-1.02
-1.17
-1.25
-1.26
-1.14
-0.85
-0.42
0.03
0.36
0.44
0.27
-0.05
-0.37
-0.55
-0.55
-0.41
-0.22
-0.06
0.05
0.12
0.23
0.39
0.60
0.77
0.82
0.69
0.36
-0.08
-0.55
-0.95
-1.21
-1.32
-1.28
-1.12
-0.87
-0.56
-0.22
0.16
0.58
1.03
1.46
1.79
1.94
1.86
1.60
1.26
0.91
0.62
0.38
0.14
-0.13
-0.41
-0.64
-0.77
-0.77
-0.68
-0.56
-0.47
-0.44
-0.48
-0.56
-0.66
-0.75
-0.81
-0.80
-0.68
-0.44
-0.10
0.25
0.53
0.68
0.67
0.56
0.43
0.34
0.31
0.33
0.34
0.31
0.23
0.14
0.08
0.07
0.07
0.01
-0.16
-0.41
-0.64
-0.73
-0.60
-0.28
0.12
0.44
0.53
0.39
0.10
-0.16
-0.26
-0.12
0.20
0.57
0.81
0.85
0.71
0.51
0.37
0.37
0.46
0.53
0.44
0.18
-0.18
-0.51
-0.70
-0.74
-0.66
-0.55
-0.45
-0.40
-0.40
-0.46
-0.59
-0.75
-0.89
-0.94
-0.88
-0.70
-0.47
-0.25
-0.08
0.03
0.10
0.18
0.29
0.41
0.51
0.55
0.52
0.43
0.32
0.25
0.26
0.32
0.35
0.26
0.04
-0.27
-0.53
-0.65
-0.60
-0.42
-0.21
-0.03
0.08
0.14
0.20
0.25
0.30
0.30
0.23
0.10
-0.06
-0.18
-0.18
-0.05
0.18
0.40
0.54
0.54
0.41
0.24
0.10
0.01
-0.03
-0.06
-0.13
-0.26
-0.40
-0.48
-0.45
-0.28
0.02
0.39
0.74
0.99
1.09
1.06
0.93
0.77
0.62
0.49
0.37
0.24
0.12
0.03
0.02
0.10
0.25
0.41
0.53
0.56
0.49
0.35
0.15
-0.06
-0.25
-0.36
-0.34
-0.19
0.03
0.23
0.29
0.18
-0.03
-0.19
-0.17
0.09
0.51
0.92
1.13
1.05
0.72
0.27
-0.13
-0.39
-0.45
-0.38
-0.25
-0.17
-0.21
-0.42
-0.77
-1.14
-1.42
-1.52
-1.44
-1.26
-1.08
-0.99
-1.01
-1.05
-1.06
-0.96
-0.76
-0.50
-0.26
-0.10
-0.06
-0.13
-0.28
-0.44
-0.51
-0.41
-0.09
0.39
0.90
1.30
1.48
1.41
1.13
0.70
0.20
-0.30
-0.74
-1.04
-1.17
-1.11
-0.89
-0.58
-0.24
0.08
0.33
0.48
0.49
0.37
0.13
-0.15
-0.38
-0.44
-0.29
0.02
0.36
0.59
0.65
0.58
0.48
0.43
0.44
0.45
0.36
0.15
-0.10
-0.23
-0.17
0.05
0.30
0.41
0.31
0.07
-0.18
-0.29
-0.22
-0.04
0.16
0.31
0.38
0.43
0.49
0.58
0.69
0.79
0.85
0.84
0.76
0.62
0.44
0.26
0.12
0.02
-0.04
-0.09
-0.14
-0.19
-0.18
-0.10
0.04
0.16
0.15
-0.01
-0.27
-0.49
-0.52
-0.29
0.16
0.65
1.00
1.08
0.88
0.47
-0.02
-0.44
-0.71
-0.80
-0.72
-0.49
-0.19
0.15
0.46
0.72
0.90
0.99
0.96
0.80
0.51
0.13
-0.26
-0.60
-0.83
-0.93
-0.89
-0.76
-0.57
-0.35
-0.16
-0.01
0.08
0.14
0.19
0.27
0.37
0.45
0.47
0.37
0.15
-0.17
-0.54
-0.89
-1.16
-1.28
-1.23
-1.00
-0.59
-0.06
0.48
0.88
1.04
0.90
0.55
0.14
-0.14
-0.16
0.08
0.43
0.73
0.83
0.67
0.31
-0.14
-0.59
-0.99
-1.29
-1.49
-1.53
-1.37
-1.00
-0.49
0.06
0.51
0.74
0.73
0.52
0.21
-0.04
-0.12
0.03
0.39
0.80
1.10
1.13
0.88
0.45
0.05
-0.12
-0.01
0.31
0.67
0.89
0.88
0.68
0.38
0.08
-0.18
-0.42
-0.68
-0.93
-1.10
-1.12
-0.93
-0.56
-0.11
0.24
0.37
0.23
-0.11
-0.48
-0.70
-0.68
-0.43
-0.08
0.18
0.24
0.07
-0.23
-0.52
-0.69
-0.71
-0.61
-0.43
-0.23
-0.01
0.21
0.40
0.50
0.44
0.22
-0.12
-0.50
-0.78
-0.90
-0.83
-0.61
-0.30
0.02
0.31
0.54
0.67
0.69
0.58
0.35
0.06
-0.24
-0.48
-0.61
-0.60
-0.45
-0.18
0.15
0.42
0.56
0.56
0.46
0.40
0.45
0.63
0.83
0.90
0.74
0.33
-0.19
-0.67
-0.93
-0.93
-0.69
-0.33
0.01
0.25
0.35
0.33
0.25
0.18
0.12
0.08
0.04
-0.00
-0.01
0.08
0.30
0.65
1.06
1.41
1.57
1.47
1.13
0.66
0.19
-0.18
-0.39
-0.46
-0.43
-0.36
-0.27
-0.19
-0.15
-0.18
-0.30
-0.48
-0.66
-0.78
-0.78
-0.66
-0.46
-0.24
-0.06
0.06
0.11
0.08
-0.00
-0.10
-0.16
-0.11
0.06
0.31
0.55
0.70
0.73
0.67
0.63
0.69
0.88
1.16
1.40
1.50
1.39
1.11
0.76
0.45
0.25
0.18
0.18
0.16
0.05
-0.18
-0.47
-0.75
-0.91
-0.91
-0.77
-0.61
-0.53
-0.62
-0.88
-1.21
-1.47
-1.53
-1.35
-0.96
-0.47
-0.02
0.30
0.44
0.43
0.34
0.26
0.27
0.40
0.61
0.85
1.03
1.10
1.06
0.95
0.84
0.74
0.63
0.48
0.26
0.00
-0.22
-0.37
-0.41
-0.42
-0.52
-0.76
-1.11
-1.42
-1.53
-1.33
-0.84
-0.24
0.28
0.56
0.57
0.40
0.21
0.11
0.14
0.23
0.26
0.13
-0.16
-0.52
-0.81
-0.90
-0.73
-0.37
0.03
0.31
0.39
0.31
0.18
0.11
0.15
0.27
0.40
0.46
0.46
0.42
0.36
0.32
0.26
0.15
-0.05
-0.31
-0.60
-0.86
-1.07
-1.23
-1.32
-1.35
-1.30
-1.14
-0.89
-0.58
-0.27
-0.03
0.09
0.07
-0.04
-0.18
-0.27
-0.25
-0.13
0.07
0.31
0.56
0.79
0.97
1.08
1.12
1.09
1.05
1.05
1.10
1.15
1.13
0.95
0.62
0.22
-0.09
-0.23
-0.15
0.06
0.28
0.43
0.46
0.39
0.26
0.08
-0.10
-0.29
-0.44
-0.51
-0.47
-0.31
-0.10
0.08
0.18
0.17
0.09
0.01
-0.04
-0.04
0.00
0.06
0.14
0.23
0.32
0.35
0.31
0.17
-0.07
-0.37
-0.65
-0.84
-0.89
-0.80
-0.62
-0.39
-0.19
-0.07
-0.03
-0.06
-0.14
-0.20
-0.23
-0.24
-0.23
-0.24
-0.23
-0.19
-0.10
0.03
0.18
0.27
0.27
0.20
0.10
0.01
-0.04
-0.07
-0.12
-0.21
-0.30
-0.34
-0.25
-0.07
0.12
0.24
0.23
0.15
0.12
0.20
0.38
0.54
0.55
0.36
0.06
-0.15
-0.14
0.10
0.41
0.55
0.38
-0.07
-0.60
-0.97
-1.01
-0.70
-0.18
0.35
0.74
0.89
0.83
0.61
0.33
0.04
-0.19
-0.35
-0.42
-0.40
-0.32
-0.18
0.00
0.19
0.34
0.41
0.37
0.28
0.19
0.17
0.24
0.38
0.52
0.61
0.64
0.61
0.56
0.47
0.34
0.11
-0.25
-0.70
-1.17
-1.55
-1.74
-1.69
-1.38
-0.89
-0.32
0.21
0.58
0.73
0.66
0.41
0.11
-0.16
-0.28
-0.23
-0.04
0.21
0.45
0.62
0.70
0.72
0.71
0.68
0.62
0.50
0.33
0.15
0.01
-0.02
0.08
0.26
0.41
0.41
0.19
-0.23
-0.72
-1.10
-1.25
-1.11
-0.76
-0.40
-0.17
-0.17
-0.32
-0.49
-0.52
-0.34
0.01
0.40
0.65
0.66
0.45
0.08
-0.33
-0.66
-0.86
-0.88
-0.76
-0.55
-0.32
-0.15
-0.09
-0.13
-0.25
-0.37
-0.44
-0.43
-0.32
-0.14
0.05
0.19
0.24
0.18
0.06
-0.04
-0.03
0.11
0.34
0.56
0.68
0.67
0.55
0.39
0.22
0.09
0.00
-0.03
0.03
0.19
0.41
0.58
0.58
0.37
0.01
-0.37
-0.64
-0.74
-0.71
-0.62
-0.53
-0.47
-0.43
-0.38
-0.33
-0.28
-0.18
-0.01
0.25
0.57
0.86
1.00
0.94
0.74
0.53
0.39
0.36
0.37
0.32
0.15
-0.08
-0.23
-0.20
0.04
0.38
0.66
0.77
0.71
0.55
0.46
0.50
0.65
0.80
0.84
0.72
0.45
0.12
-0.16
-0.33
-0.39
-0.35
-0.29
-0.27
-0.31
-0.43
-0.57
-0.67
-0.66
-0.57
-0.42
-0.30
-0.25
-0.27
-0.33
-0.39
-0.41
-0.37
-0.27
-0.15
0.01
0.18
0.37
0.58
0.78
0.93
1.00
0.93
0.72
0.40
0.03
-0.25
-0.37
-0.30
-0.11
0.08
0.16
0.11
-0.02
-0.12
-0.08
0.09
0.30
0.40
0.31
0.04
-0.29
-0.51
-0.54
-0.39
-0.18
-0.05
-0.06
-0.18
-0.28
-0.27
-0.09
0.18
0.45
0.61
0.64
0.56
0.41
0.26
0.12
-0.01
-0.14
-0.27
-0.35
-0.36
-0.30
-0.19
-0.09
-0.06
-0.14
-0.34
-0.63
-0.93
-1.16
-1.24
-1.17
-0.96
-0.65
-0.28
0.08
0.39
0.57
0.61
0.50
0.30
0.10
-0.02
-0.01
0.12
0.29
0.42
0.44
0.33
0.12
-0.13
-0.38
-0.55
-0.60
-0.49
-0.21
0.20
0.64
1.00
1.20
1.19
1.06
0.89
0.78
0.76
0.79
0.77
0.62
0.33
-0.02
-0.32
-0.47
-0.46
-0.31
-0.12
0.05
0.18
0.27
0.35
0.42
0.44
0.40
0.30
0.19
0.12
0.17
0.31
0.48
0.55
0.41
-0.01
-0.64
-1.29
-1.75
-1.88
-1.67
-1.25
-0.81
-0.46
-0.24
-0.09
0.03
0.13
0.14
0.03
-0.17
-0.36
-0.42
-0.31
-0.10
0.11
0.23
0.27
0.29
0.38
0.53
0.66
0.68
0.54
0.27
-0.03
-0.23
-0.28
-0.20
-0.07
0.01
-0.01
-0.11
-0.24
-0.31
-0.31
-0.26
-0.18
-0.15
-0.16
-0.21
-0.25
-0.26
-0.21
-0.10
0.04
0.16
0.21
0.11
-0.12
-0.44
-0.74
-0.87
-0.76
-0.39
0.15
0.72
1.15
1.35
1.30
1.05
0.70
0.31
-0.04
-0.30
-0.40
-0.30
-0.01
0.40
0.78
0.97
0.87
0.52
0.05
-0.34
-0.54
-0.52
-0.40
-0.31
-0.32
-0.43
-0.54
-0.55
-0.41
-0.17
0.08
0.23
0.26
0.20
0.10
0.04
0.01
-0.04
-0.16
-0.39
-0.69
-0.96
-1.09
-1.02
-0.76
-0.43
-0.15
-0.04
-0.11
-0.31
-0.50
-0.56
-0.40
-0.03
0.45
0.92
1.27
1.41
1.35
1.14
0.84
0.50
0.14
-0.19
-0.45
-0.59
-0.57
-0.38
-0.07
0.28
0.58
0.78
0.82
0.71
0.53
0.32
0.17
0.11
0.13
0.20
0.25
0.22
0.12
-0.03
-0.18
-0.30
-0.40
-0.49
-0.58
-0.67
-0.71
-0.64
-0.42
-0.02
0.51
1.09
1.62
1.97
2.05
1.82
1.36
0.82
0.36
0.11
0.07
0.14
0.17
0.06
-0.22
-0.59
-0.95
-1.20
-1.35
-1.40
-1.40
-1.35
-1.23
-1.02
-0.74
-0.48
-0.30
-0.22
-0.22
-0.23
-0.17
-0.01
0.21
0.44
0.61
0.69
0.67
0.53
0.31
0.05
-0.24
-0.50
-0.71
-0.84
-0.89
-0.84
-0.71
-0.51
-0.25
0.01
0.23
0.37
0.41
0.39
0.36
0.38
0.49
0.68
0.90
1.09
1.20
1.21
1.13
0.99
0.84
0.71
0.59
0.47
0.32
0.13
-0.11
-0.36
-0.56
-0.66
-0.65
-0.52
-0.35
-0.21
-0.16
-0.21
-0.32
-0.43
-0.50
-0.50
-0.42
-0.28
-0.07
0.21
0.52
0.83
1.05
1.08
0.88
0.48
0.02
-0.33
-0.46
-0.33
-0.05
0.23
0.36
0.28
0.03
-0.31
-0.68
-1.00
-1.25
-1.38
-1.30
-0.97
-0.44
0.18
0.70
0.93
0.80
0.39
-0.11
-0.46
-0.49
-0.16
0.43
1.04
1.46
1.52
1.20
0.62
-0.02
-0.50
-0.70
-0.62
-0.35
-0.06
0.12
0.11
-0.06
-0.32
-0.60
-0.82
-0.97
-1.01
-0.95
-0.77
-0.51
-0.20
0.07
0.25
0.29
0.20
0.06
-0.06
-0.11
-0.09
-0.06
-0.09
-0.23
-0.43
-0.60
-0.63
-0.48
-0.19
0.15
0.39
0.49
0.47
0.43
0.44
0.52
0.56
0.49
0.24
-0.10
-0.38
-0.44
-0.21
0.21
0.64
0.90
0.88
0.64
0.30
0.03
-0.13
-0.17
-0.17
-0.17
-0.17
-0.13
0.01
0.26
0.56
0.80
0.86
0.67
0.24
-0.31
-0.81
-1.08
-1.01
-0.59
0.06
0.71
1.15
1.25
0.99
0.49
-0.07
-0.55
-0.85
-0.93
-0.85
-0.69
-0.50
-0.36
-0.28
-0.25
-0.29
-0.38
-0.47
-0.49
-0.37
-0.08
0.36
0.76
0.94
0.79
0.31
-0.28
-0.73
-0.81
-0.51
0.04
0.58
0.89
0.91
0.69
0.36
0.05
-0.18
-0.34
-0.45
-0.55
-0.60
-0.57
-0.43
-0.19
0.09
0.33
0.48
0.55
0.59
0.70
0.90
1.15
1.33
1.31
1.04
0.58
0.07
-0.32
-0.49
-0.45
-0.27
-0.05
0.15
0.28
0.29
0.18
-0.03
-0.26
-0.40
-0.36
-0.14
0.17
0.39
0.39
0.18
-0.16
-0.44
-0.55
-0.47
-0.30
-0.15
-0.10
-0.12
-0.14
-0.10
0.01
0.14
0.18
0.08
-0.16
-0.45
-0.68
-0.75
-0.64
-0.40
-0.13
0.10
0.26
0.36
0.42
0.42
0.32
0.10
-0.20
-0.46
-0.57
-0.45
-0.14
0.22
0.46
0.45
0.17
-0.28
-0.72
-1.02
-1.12
-1.06
-0.92
-0.81
-0.78
-0.80
-0.80
-0.72
-0.53
-0.31
-0.12
-0.06
-0.09
-0.12
-0.02
0.27
0.72
1.20
1.56
1.74
1.73
1.61
1.49
1.41
1.35
1.27
1.10
0.82
0.44
0.03
-0.35
-0.60
-0.67
-0.57
-0.36
-0.15
-0.01
-0.01
-0.14
-0.35
-0.60
-0.83
-1.02
-1.16
-1.24
-1.24
-1.17
-1.04
-0.85
-0.65
-0.45
-0.28
-0.16
-0.10
-0.06
-0.01
0.10
0.27
0.47
0.61
0.62
0.51
0.32
0.15
0.09
0.19
0.43
0.75
1.08
1.37
1.60
1.74
1.78
1.67
1.38
0.92
0.37
-0.19
-0.61
-0.84
-0.87
-0.74
-0.55
-0.38
-0.26
-0.24
-0.30
-0.47
-0.74
-1.05
-1.31
-1.38
-1.21
-0.81
-0.33
0.04
0.16
0.00
-0.31
-0.57
-0.61
-0.34
0.18
0.81
1.39
1.80
2.00
2.04
1.97
1.83
1.65
1.43
1.19
0.96
0.78
0.66
0.57
0.41
0.11
-0.39
-1.02
-1.65
-2.09
-2.22
-2.01
-1.53
-0.98
-0.54
-0.34
-0.42
-0.70
-1.04
-1.27
-1.27
-1.02
-0.58
-0.10
0.29
0.49
0.51
0.46
0.43
0.51
0.70
0.93
1.12
1.21
1.17
1.02
0.80
0.55
0.28
0.02
-0.21
-0.39
-0.50
-0.52
-0.46
-0.37
-0.30
-0.29
-0.33
-0.41
-0.49
-0.50
-0.43
-0.30
-0.12
0.04
0.16
0.18
0.10
-0.09
-0.31
-0.46
-0.48
-0.32
-0.05
0.22
0.37
0.36
0.24
0.09
-0.01
-0.05
-0.06
-0.08
-0.12
-0.16
-0.21
-0.26
-0.32
-0.39
-0.44
-0.42
-0.30
-0.10
0.11
0.26
0.31
0.26
0.16
0.04
-0.05
-0.15
-0.26
-0.42
-0.62
-0.79
-0.86
-0.77
-0.53
-0.19
0.14
0.40
0.53
0.57
0.54
0.46
0.30
0.05
-0.28
-0.63
-0.88
-0.96
-0.87
-0.66
-0.42
-0.21
-0.05
0.08
0.20
0.31
0.41
0.49
0.59
0.70
0.80
0.81
0.70
0.46
0.18
-0.01
-0.04
0.10
0.33
0.51
0.58
0.50
0.34
0.15
-0.01
-0.11
-0.14
-0.09
0.05
0.25
0.46
0.63
0.70
0.65
0.51
0.33
0.17
0.10
0.14
0.24
0.36
0.44
0.46
0.42
0.35
0.27
0.19
0.11
0.01
-0.09
-0.20
-0.29
-0.39
-0.50
-0.61
-0.69
-0.66
-0.49
-0.24
0.03
0.20
0.23
0.13
-0.06
-0.26
-0.44
-0.56
-0.59
-0.47
-0.17
0.27
0.74
1.06
1.08
0.76
0.19
-0.40
-0.83
-0.97
-0.82
-0.49
-0.10
0.25
0.51
0.67
0.74
0.69
0.53
0.27
-0.01
-0.22
-0.29
-0.20
-0.01
0.18
0.27
0.21
0.03
-0.19
-0.34
-0.34
-0.18
0.07
0.29
0.37
0.25
-0.03
-0.34
-0.52
-0.44
-0.09
0.39
0.81
1.02
0.96
0.70
0.38
0.13
0.02
0.02
0.10
0.21
0.32
0.45
0.61
0.77
0.91
0.99
1.00
0.97
0.92
0.86
0.79
0.64
0.36
-0.09
-0.65
-1.22
-1.67
-1.88
-1.79
-1.46
-1.01
-0.60
-0.36
-0.35
-0.54
-0.79
-0.96
-0.95
-0.72
-0.36
0.02
0.30
0.40
0.36
0.24
0.13
0.07
0.04
-0.01
-0.10
-0.21
-0.29
-0.30
-0.27
-0.25
-0.36
-0.61
-0.97
-1.30
-1.47
-1.40
-1.12
-0.77
-0.48
-0.33
-0.33
-0.42
-0.53
-0.60
-0.60
-0.48
-0.21
0.21
0.74
1.29
1.71
1.92
1.89
1.66
1.34
1.07
0.94
0.98
1.15
1.38
1.53
1.52
1.30
0.91
0.49
0.14
-0.04
-0.05
0.07
0.26
0.49
0.73
0.93
1.02
0.89
0.49
-0.13
-0.85
-1.48
-1.89
-2.01
-1.91
-1.69
-1.43
-1.17
-0.89
-0.58
-0.25
0.05
0.28
0.41
0.45
0.43
0.40
0.39
0.42
0.45
0.42
0.30
0.06
-0.28
-0.63
-0.86
-0.86
-0.61
-0.18
0.28
0.61
0.69
0.55
0.28
0.02
-0.13
-0.12
0.02
0.24
0.48
0.67
0.77
0.74
0.59
0.34
0.02
-0.30
-0.54
-0.68
-0.69
-0.61
-0.50
-0.44
-0.51
-0.74
-1.05
-1.31
-1.37
-1.13
-0.66
-0.08
0.39
0.66
0.71
0.66
0.63
0.70
0.84
0.99
1.05
1.00
0.86
0.69
0.53
0.37
0.19
-0.01
-0.22
-0.39
-0.50
-0.58
-0.67
-0.77
-0.84
-0.80
-0.57
-0.16
0.32
0.68
0.78
0.60
0.23
-0.18
-0.46
-0.55
-0.46
-0.26
-0.05
0.10
0.18
0.18
0.11
-0.01
-0.18
-0.39
-0.62
-0.86
-1.09
-1.28
-1.41
-1.41
-1.24
-0.89
-0.37
0.21
0.74
1.10
1.23
1.12
0.84
0.48
0.13
-0.12
-0.21
-0.12
0.11
0.42
0.68
0.79
0.73
0.58
0.44
0.38
0.41
0.43
0.35
0.15
-0.09
-0.26
-0.25
-0.11
0.07
0.17
0.14
0.03
-0.06
-0.09
-0.08
-0.12
-0.26
-0.46
-0.63
-0.63
-0.42
-0.04
0.38
0.73
0.92
0.94
0.81
0.55
0.23
-0.12
-0.42
-0.57
-0.51
-0.19
0.33
0.90
1.33
1.47
1.25
0.76
0.18
-0.28
-0.46
-0.31
0.11
0.67
1.18
1.47
1.43
1.04
0.36
-0.42
-1.13
-1.61
-1.80
-1.74
-1.53
-1.27
-1.01
-0.78
-0.56
-0.38
-0.26
-0.22
-0.25
-0.30
-0.30
-0.26
-0.20
-0.18
-0.25
-0.38
-0.51
-0.56
-0.47
-0.25
0.05
0.31
0.50
0.58
0.61
0.65
0.74
0.90
1.11
1.33
1.51
1.58
1.51
1.28
0.91
0.39
-0.19
-0.78
-1.25
-1.52
-1.58
-1.47
-1.30
-1.12
-0.98
-0.81
-0.54
-0.15
0.30
0.65
0.76
0.54
0.03
-0.65
-1.30
-1.75
-1.90
-1.73
-1.28
-0.64
0.10
0.80
1.32
1.59
1.52
1.15
0.58
-0.02
-0.43
-0.53
-0.26
0.26
0.86
1.31
1.49
1.38
1.08
0.75
0.49
0.34
0.21
0.04
-0.21
-0.45
-0.60
-0.57
-0.38
-0.12
0.07
0.11
0.01
-0.13
-0.17
-0.07
0.17
0.44
0.64
0.70
0.62
0.45
0.25
0.10
0.03
0.02
0.05
0.09
0.11
0.10
0.04
-0.07
-0.21
-0.35
-0.46
-0.51
-0.48
-0.37
-0.23
-0.11
-0.04
-0.03
-0.08
-0.15
-0.24
-0.33
-0.43
-0.54
-0.62
-0.64
-0.58
-0.42
-0.19
0.06
0.26
0.38
0.43
0.44
0.46
0.48
0.49
0.47
0.40
0.29
0.18
0.08
0.01
-0.05
-0.12
-0.22
-0.32
-0.41
-0.43
-0.37
-0.23
-0.06
0.07
0.15
0.13
0.04
-0.08
-0.16
-0.19
-0.18
-0.19
-0.27
-0.41
-0.58
-0.69
-0.66
-0.45
-0.09
0.34
0.78
1.15
1.42
1.57
1.55
1.34
0.98
0.53
0.13
-0.09
-0.10
0.04
0.21
0.33
0.38
0.41
0.45
0.52
0.54
0.47
0.31
0.11
-0.00
0.02
0.14
0.27
0.28
0.16
-0.03
-0.18
-0.19
-0.05
0.16
0.30
0.27
0.06
-0.26
-0.53
-0.61
-0.44
-0.07
0.33
0.58
0.52
0.13
-0.50
-1.20
-1.73
-1.96
-1.81
-1.34
-0.73
-0.15
0.23
0.35
0.29
0.17
0.14
0.20
0.26
0.21
-0.02
-0.37
-0.67
-0.77
-0.61
-0.28
0.06
0.28
0.33
0.27
0.18
0.14
0.17
0.23
0.27
0.27
0.20
0.09
-0.03
-0.13
-0.15
-0.10
-0.00
0.09
0.14
0.15
0.17
0.26
0.43
0.61
0.68
0.55
0.20
-0.28
-0.76
-1.11
-1.22
-1.08
-0.76
-0.35
0.03
0.29
0.37
0.31
0.17
0.04
-0.03
-0.06
-0.09
-0.19
-0.36
-0.52
-0.56
-0.46
-0.23
0.02
0.18
0.20
0.11
-0.01
-0.08
-0.07
0.01
0.11
0.21
0.28
0.32
0.35
0.36
0.36
0.34
0.30
0.23
0.11
-0.05
-0.21
-0.32
-0.36
-0.33
-0.27
-0.23
-0.22
-0.20
-0.15
-0.05
0.08
0.18
0.24
0.25
0.26
0.29
0.37
0.49
0.63
0.77
0.93
1.07
1.14
1.06
0.80
0.41
-0.01
-0.32
-0.46
-0.47
-0.42
-0.39
-0.36
-0.28
-0.08
0.25
0.59
0.79
0.69
0.31
-0.23
-0.70
-0.91
-0.78
-0.41
0.04
0.38
0.50
0.45
0.32
0.26
0.29
0.41
0.51
0.50
0.35
0.07
-0.28
-0.64
-0.92
-1.09
-1.11
-0.98
-0.75
-0.49
-0.28
-0.19
-0.20
-0.25
-0.23
-0.11
0.08
0.30
0.44
0.48
0.44
0.38
0.34
0.33
0.29
0.17
-0.08
-0.44
-0.85
-1.19
-1.32
-1.16
-0.72
-0.07
0.60
1.11
1.31
1.16
0.73
0.15
-0.41
-0.78
-0.88
-0.67
-0.22
0.35
0.86
1.18
1.22
1.00
0.59
0.10
-0.39
-0.80
-1.07
-1.16
-1.06
-0.79
-0.44
-0.14
0.02
0.03
-0.06
-0.14
-0.14
-0.03
0.18
0.42
0.65
0.82
0.90
0.89
0.81
0.69
0.54
0.40
0.27
0.15
0.05
-0.04
-0.08
-0.02
0.13
0.36
0.56
0.64
0.50
0.17
-0.27
-0.62
-0.72
-0.52
-0.10
0.35
0.63
0.63
0.42
0.10
-0.20
-0.44
-0.63
-0.78
-0.93
-1.04
-1.10
-1.10
-1.07
-1.03
-1.00
-0.97
-0.89
-0.71
-0.41
-0.00
0.43
0.81
1.05
1.07
0.89
0.55
0.15
-0.19
-0.40
-0.47
-0.43
-0.35
-0.24
-0.10
0.09
0.36
0.71
1.07
1.33
1.40
1.27
0.99
0.68
0.46
0.40
0.45
0.52
0.46
0.22
-0.18
-0.62
-0.96
-1.08
-0.95
-0.63
-0.24
0.11
0.34
0.43
0.41
0.30
0.11
-0.14
-0.43
-0.71
-0.91
-0.95
-0.78
-0.41
0.07
0.53
0.84
0.94
0.81
0.54
0.28
0.13
0.15
0.29
0.46
0.56
0.53
0.38
0.14
-0.17
-0.56
-0.99
-1.40
-1.66
-1.64
-1.31
-0.76
-0.17
0.25
0.39
0.29
0.10
-0.04
-0.06
0.05
0.20
0.39
0.60
0.85
1.16
1.44
1.59
1.52
1.22
0.73
0.17
-0.34
-0.72
-0.92
-0.94
-0.81
-0.61
-0.40
-0.29
-0.30
-0.46
-0.69
-0.89
-0.95
-0.82
-0.50
-0.07
0.36
0.66
0.75
0.61
0.32
0.04
-0.09
-0.00
0.26
0.57
0.77
0.75
0.52
0.15
-0.24
-0.55
-0.73
-0.77
-0.69
-0.53
-0.30
-0.04
0.22
0.42
0.52
0.46
0.23
-0.12
-0.46
-0.65
-0.56
-0.19
0.32
0.79
1.04
1.01
0.76
0.46
0.24
0.16
0.19
0.23
0.22
0.12
-0.05
-0.21
-0.33
-0.37
-0.36
-0.33
-0.31
-0.32
-0.37
-0.45
-0.51
-0.55
-0.56
-0.53
-0.47
-0.35
-0.12
0.23
0.66
1.07
1.32
1.36
1.18
0.87
0.55
0.34
0.27
0.29
0.35
0.35
0.29
0.16
-0.03
-0.27
-0.56
-0.84
-1.01
-0.98
-0.72
-0.28
0.19
0.53
0.61
0.42
0.04
-0.41
-0.83
-1.12
-1.26
-1.20
-0.91
-0.43
0.14
0.66
0.96
0.96
0.68
0.27
-0.09
-0.27
-0.22
0.00
0.29
0.55
0.72
0.78
0.74
0.62
0.43
0.20
-0.04
-0.27
-0.43
-0.51
-0.49
-0.39
-0.25
-0.12
-0.06
-0.11
-0.25
-0.43
-0.51
-0.40
-0.08
0.36
0.78
0.99
0.92
0.60
0.19
-0.16
-0.31
-0.25
-0.05
0.18
0.35
0.42
0.41
0.37
0.36
0.42
0.56
0.76
0.95
1.07
1.04
0.80
0.38
-0.17
-0.72
-1.18
-1.46
-1.54
-1.46
-1.28
-1.09
-0.93
-0.85
-0.82
-0.79
-0.73
-0.61
-0.46
-0.32
-0.22
-0.15
-0.05
0.16
0.51
0.97
1.40
1.64
1.56
1.18
0.65
0.18
-0.05
0.02
0.29
0.58
0.74
0.67
0.40
0.03
-0.36
-0.66
-0.85
-0.89
-0.81
-0.64
-0.42
-0.23
-0.11
-0.08
-0.13
-0.22
-0.31
-0.38
-0.43
-0.48
-0.53
-0.59
-0.66
-0.74
-0.81
-0.88
-0.90
-0.82
-0.58
-0.14
0.45
1.07
1.58
1.87
1.91
1.76
1.55
1.34
1.15
0.90
0.54
0.07
-0.40
-0.74
-0.82
-0.67
-0.42
-0.22
-0.20
-0.33
-0.49
-0.51
-0.29
0.12
0.55
0.80
0.73
0.38
-0.09
-0.46
-0.56
-0.38
-0.05
0.24
0.35
0.27
0.07
-0.12
-0.21
-0.23
-0.22
-0.25
-0.34
-0.45
-0.55
-0.59
-0.59
-0.58
-0.55
-0.48
-0.34
-0.13
0.12
0.33
0.44
0.41
0.30
0.18
0.13
0.18
0.34
0.54
0.71
0.77
0.71
0.52
0.26
-0.03
-0.32
-0.57
-0.74
-0.77
-0.64
-0.35
0.03
0.42
0.69
0.82
0.79
0.69
0.55
0.43
0.34
0.26
0.21
0.20
0.23
0.29
0.37
0.41
0.39
0.31
0.16
-0.04
-0.27
-0.49
-0.64
-0.65
-0.45
-0.07
0.39
0.77
0.94
0.81
0.44
-0.03
-0.45
-0.68
-0.71
-0.62
-0.55
-0.56
-0.69
-0.82
-0.85
-0.71
-0.45
-0.16
0.02
0.06
0.04
0.07
0.21
0.41
0.50
0.34
-0.10
-0.66
-1.11
-1.28
-1.15
-0.86
-0.62
-0.55
-0.63
-0.72
-0.63
-0.32
0.17
0.68
1.13
1.47
1.75
2.02
2.29
2.46
2.43
2.17
1.72
1.24
0.86
0.65
0.59
0.58
0.51
0.32
0.01
-0.36
-0.76
-1.13
-1.44
-1.64
-1.71
-1.67
-1.55
-1.42
-1.33
-1.32
-1.38
-1.45
-1.46
-1.34
-1.09
-0.69
-0.21
0.26
0.61
0.78
0.75
0.59
0.45
0.40
0.47
0.53
0.45
0.18
-0.22
-0.55
-0.60
-0.28
0.33
1.02
1.54
1.71
1.55
1.17
0.78
0.52
0.43
0.44
0.43
0.29
-0.04
-0.51
-1.00
-1.39
-1.61
-1.63
-1.50
-1.23
-0.82
-0.26
0.43
1.14
1.71
1.98
1.90
1.54
1.03
0.52
0.07
-0.31
-0.64
-0.93
-1.11
-1.15
-1.03
-0.77
-0.48
-0.19
0.11
0.45
0.88
1.32
1.66
1.75
1.52
0.99
0.27
-0.50
-1.19
-1.73
-2.06
-2.16
-2.02
-1.66
-1.19
-0.71
-0.32
-0.07
0.07
0.15
0.23
0.33
0.42
0.49
0.53
0.54
0.56
0.60
0.69
0.80
0.91
0.97
0.94
0.77
0.46
0.02
-0.47
-0.97
-1.38
-1.65
-1.72
-1.57
-1.20
-0.68
-0.12
0.36
0.66
0.77
0.73
0.63
0.53
0.48
0.45
0.38
0.24
0.02
-0.26
-0.52
-0.70
-0.77
-0.73
-0.61
-0.41
-0.13
0.22
0.62
1.00
1.27
1.37
1.28
1.05
0.80
0.61
0.52
0.53
0.56
0.53
0.39
0.12
-0.21
-0.54
-0.77
-0.88
-0.85
-0.77
-0.67
-0.59
-0.52
-0.44
-0.32
-0.19
-0.09
-0.05
-0.07
-0.09
-0.08
-0.03
0.07
0.19
0.29
0.33
0.30
0.20
0.06
-0.07
-0.11
-0.05
0.08
0.19
0.17
-0.02
-0.33
-0.63
-0.80
-0.79
-0.63
-0.42
-0.20
0.01
0.27
0.59
0.93
1.20
1.30
1.18
0.85
0.44
0.08
-0.08
-0.01
0.25
0.58
0.82
0.89
0.77
0.51
0.23
0.04
-0.01
0.08
0.22
0.32
0.30
0.13
-0.16
-0.49
-0.78
-0.97
-1.02
-0.89
-0.60
-0.23
0.14
0.41
0.51
0.46
0.33
0.19
0.09
0.00
-0.13
-0.36
-0.66
-0.94
-1.07
-0.96
-0.65
-0.24
0.09
0.26
0.24
0.11
-0.05
-0.14
-0.14
-0.07
0.03
0.10
0.10
0.03
-0.13
-0.36
-0.61
-0.79
-0.84
-0.71
-0.43
-0.11
0.13
0.21
0.16
0.09
0.10
0.26
0.52
0.76
0.87
0.80
0.60
0.39
0.23
0.19
0.21
0.22
0.17
0.04
-0.13
-0.28
-0.38
-0.40
-0.32
-0.17
0.02
0.18
0.29
0.31
0.28
0.23
0.19
0.19
0.18
0.15
0.08
-0.01
-0.07
-0.08
-0.06
-0.04
-0.05
-0.07
-0.04
0.10
0.35
0.64
0.87
0.91
0.76
0.50
0.29
0.22
0.34
0.55
0.73
0.77
0.64
0.38
0.06
-0.26
-0.53
-0.72
-0.80
-0.78
-0.71
-0.68
-0.79
-1.09
-1.52
-1.90
-2.05
-1.84
-1.28
-0.51
0.25
0.82
1.09
1.07
0.83
0.47
0.08
-0.26
-0.49
-0.59
-0.55
-0.40
-0.21
-0.06
0.01
-0.01
-0.07
-0.12
-0.13
-0.11
-0.10
-0.08
-0.00
0.18
0.47
0.76
0.94
0.93
0.73
0.46
0.24
0.14
0.13
0.13
0.06
-0.06
-0.15
-0.13
0.03
0.24
0.40
0.42
0.31
0.14
-0.05
-0.22
-0.40
-0.59
-0.73
-0.75
-0.58
-0.26
0.08
0.28
0.23
-0.04
-0.39
-0.67
-0.82
-0.86
-0.87
-0.89
-0.86
-0.69
-0.30
0.27
0.86
1.29
1.45
1.36
1.15
0.93
0.74
0.54
0.27
-0.04
-0.30
-0.35
-0.11
0.34
0.80
1.04
0.92
0.49
-0.07
-0.51
-0.67
-0.55
-0.28
-0.01
0.12
0.07
-0.10
-0.28
-0.36
-0.33
-0.22
-0.12
-0.11
-0.18
-0.26
-0.24
-0.06
0.26
0.58
0.77
0.73
0.52
0.27
0.12
0.16
0.32
0.52
0.64
0.67
0.64
0.62
0.66
0.72
0.72
0.58
0.28
-0.15
-0.58
-0.91
-1.03
-0.89
-0.56
-0.13
0.23
0.41
0.37
0.12
-0.22
-0.56
-0.81
-0.93
-0.92
-0.81
-0.64
-0.45
-0.27
-0.10
0.02
0.12
0.19
0.23
0.24
0.18
0.03
-0.20
-0.46
-0.69
-0.82
-0.82
-0.70
-0.49
-0.25
-0.00
0.25
0.49
0.69
0.82
0.80
0.62
0.32
0.03
-0.13
-0.08
0.14
0.43
0.65
0.70
0.58
0.35
0.12
-0.06
-0.15
-0.20
-0.24
-0.28
-0.33
-0.38
-0.47
-0.60
-0.79
-0.97
-1.07
-1.03
-0.83
-0.50
-0.09
0.30
0.60
0.76
0.72
0.51
0.17
-0.20
-0.49
-0.66
-0.74
-0.77
-0.82
-0.87
-0.87
-0.74
-0.45
-0.09
0.26
0.49
0.59
0.64
0.74
0.92
1.18
1.42
1.52
1.43
1.15
0.74
0.31
-0.03
-0.23
-0.28
-0.23
-0.16
-0.12
-0.14
-0.17
-0.13
0.04
0.36
0.77
1.14
1.37
1.39
1.20
0.86
0.46
0.10
-0.16
-0.31
-0.39
-0.44
-0.53
-0.69
-0.90
-1.10
-1.25
-1.33
-1.34
-1.29
-1.18
-1.00
-0.75
-0.44
-0.11
0.14
0.30
0.35
0.33
0.32
0.33
0.37
0.38
0.32
0.21
0.08
0.04
0.16
0.47
0.93
1.42
1.79
1.92
1.79
1.45
1.05
0.73
0.57
0.53
0.54
0.48
0.31
0.05
-0.19
-0.34
-0.38
-0.33
-0.30
-0.32
-0.39
-0.47
-0.50
-0.45
-0.36
-0.30
-0.37
-0.60
-0.95
-1.35
-1.65
-1.78
-1.72
-1.51
-1.21
-0.90
-0.58
-0.28
-0.00
0.20
0.25
0.13
-0.14
-0.44
-0.60
-0.48
-0.06
0.55
1.15
1.55
1.62
1.39
0.97
0.53
0.21
0.08
0.11
0.26
0.45
0.62
0.72
0.74
0.68
0.56
0.40
0.22
0.00
-0.23
-0.46
-0.62
-0.63
-0.46
-0.16
0.16
0.36
0.33
0.08
-0.29
-0.64
-0.86
-0.92
-0.84
-0.71
-0.59
-0.52
-0.50
-0.47
-0.40
-0.27
-0.09
0.06
0.13
0.10
-0.02
-0.15
-0.19
-0.08
0.18
0.52
0.85
1.12
1.28
1.33
1.28
1.10
0.78
0.34
-0.15
-0.60
-0.86
-0.89
-0.69
-0.37
-0.08
0.09
0.12
0.07
0.01
0.01
0.08
0.23
0.44
0.66
0.84
0.89
0.77
0.47
0.07
-0.30
-0.50
-0.49
-0.32
-0.13
-0.08
-0.27
-0.67
-1.16
-1.59
-1.83
-1.84
-1.68
-1.43
-1.18
-0.95
-0.70
-0.33
0.19
0.86
1.58
2.19
2.57
2.62
2.34
1.80
1.14
0.51
0.04
-0.23
-0.32
-0.32
-0.32
-0.39
-0.54
-0.75
-1.02
-1.31
-1.59
-1.82
-1.90
-1.76
-1.37
-0.81
-0.20
0.32
0.63
0.72
0.67
0.59
0.58
0.69
0.86
1.00
1.05
0.98
0.84
0.70
0.61
0.53
0.40
0.13
-0.28
-0.70
-0.97
-0.91
-0.50
0.16
0.81
1.23
1.28
1.03
0.65
0.30
0.09
-0.02
-0.15
-0.38
-0.73
-1.14
-1.50
-1.70
-1.70
-1.49
-1.15
-0.75
-0.37
-0.05
0.20
0.41
0.65
0.92
1.15
1.22
1.01
0.49
-0.26
-1.04
-1.58
-1.71
-1.40
-0.76
-0.01
0.66
1.13
1.39
1.48
1.45
1.29
0.96
0.43
-0.26
-0.98
-1.53
-1.76
-1.62
-1.16
-0.53
0.14
0.73
1.19
1.44
1.46
1.21
0.75
0.19
-0.32
-0.63
-0.67
-0.48
-0.20
0.06
0.22
0.28
0.29
0.29
0.33
0.38
0.40
0.35
0.22
0.04
-0.14
-0.26
-0.29
-0.22
-0.07
0.07
0.14
0.08
-0.10
-0.32
-0.46
-0.44
-0.25
-0.01
0.15
0.11
-0.11
-0.41
-0.65
-0.72
-0.58
-0.28
0.09
0.49
0.85
1.16
1.35
1.34
1.08
0.57
-0.04
-0.60
-0.92
-0.93
-0.66
-0.24
0.18
0.47
0.57
0.52
0.38
0.23
0.09
-0.05
-0.20
-0.37
-0.51
-0.58
-0.52
-0.34
-0.06
0.21
0.39
0.47
0.48
0.51
0.58
0.67
0.68
0.49
0.08
-0.45
-0.92
-1.13
-1.01
-0.61
-0.10
0.35
0.63
0.72
0.65
0.48
0.24
-0.01
-0.23
-0.36
-0.34
-0.18
0.07
0.32
0.50
0.56
0.54
0.53
0.58
0.73
0.95
1.18
1.32
1.33
1.19
0.90
0.55
0.23
0.04
0.01
0.12
0.29
0.39
0.38
0.24
0.04
-0.15
-0.31
-0.45
-0.62
-0.82
-1.01
-1.10
-1.05
-0.84
-0.57
-0.35
-0.27
-0.33
-0.48
-0.61
-0.63
-0.51
-0.30
-0.05
0.15
0.28
0.35
0.36
0.33
0.28
0.20
0.13
0.09
0.08
0.08
0.07
0.03
-0.02
-0.02
0.04
0.17
0.28
0.29
0.16
-0.07
-0.31
-0.44
-0.38
-0.17
0.10
0.29
0.32
0.21
0.04
-0.05
0.05
0.32
0.66
0.91
0.92
0.66
0.24
-0.20
-0.53
-0.69
-0.71
-0.64
-0.55
-0.49
-0.45
-0.44
-0.45
-0.45
-0.41
-0.30
-0.14
0.01
0.03
-0.17
-0.59
-1.10
-1.53
-1.69
-1.48
-0.98
-0.34
0.23
0.60
0.71
0.62
0.46
0.35
0.38
0.53
0.75
0.96
1.11
1.17
1.16
1.11
1.02
0.87
0.67
0.45
0.29
0.23
0.29
0.38
0.35
0.13
-0.26
-0.67
-0.94
-0.94
-0.72
-0.44
-0.28
-0.33
-0.56
-0.81
-0.94
-0.88
-0.71
-0.58
-0.59
-0.77
-1.01
-1.17
-1.14
-0.92
-0.62
-0.34
-0.17
-0.09
-0.01
0.15
0.39
0.64
0.78
0.74
0.52
0.21
-0.07
-0.20
-0.13
0.13
0.50
0.87
1.18
1.38
1.48
1.47
1.37
1.18
0.92
0.61
0.28
-0.01
-0.25
-0.39
-0.45
-0.42
-0.31
-0.15
0.00
0.10
0.09
-0.05
-0.26
-0.46
-0.55
-0.52
-0.38
-0.19
-0.03
0.10
0.25
0.44
0.69
0.93
1.01
0.85
0.45
-0.11
-0.64
-1.04
-1.22
-1.26
-1.22
-1.20
-1.21
-1.17
-1.03
-0.75
-0.35
0.08
0.45
0.71
0.82
0.79
0.65
0.44
0.20
-0.02
-0.19
-0.30
-0.33
-0.28
-0.16
-0.02
0.10
0.16
0.13
0.07
0.07
0.21
0.52
0.92
1.29
1.46
1.38
1.08
0.66
0.25
-0.07
-0.27
-0.38
-0.44
-0.46
-0.40
-0.26
-0.06
0.14
0.26
0.21
-0.02
-0.40
-0.82
-1.16
-1.36
-1.41
-1.32
-1.13
-0.86
-0.52
-0.13
0.27
0.61
0.83
0.89
0.82
0.67
0.50
0.34
0.19
0.02
-0.21
-0.52
-0.84
-1.11
-1.22
-1.09
-0.73
-0.17
0.46
1.05
1.54
1.86
1.99
1.95
1.73
1.40
1.04
0.74
0.56
0.51
0.53
0.55
0.51
0.40
0.26
0.14
0.04
-0.04
-0.15
-0.32
-0.51
-0.65
-0.65
-0.43
0.01
0.57
1.07
1.31
1.19
0.70
-0.00
-0.70
-1.20
-1.38
-1.26
-0.94
-0.53
-0.14
0.13
0.26
0.21
0.02
-0.24
-0.47
-0.55
-0.46
-0.21
0.10
0.34
0.47
0.52
0.55
0.64
0.82
1.02
1.19
1.27
1.25
1.18
1.09
1.00
0.86
0.65
0.37
0.08
-0.13
-0.20
-0.14
-0.01
0.08
0.03
-0.18
-0.56
-1.06
-1.59
-2.07
-2.41
-2.57
-2.52
-2.29
-1.95
-1.57
-1.19
-0.83
-0.43
0.03
0.56
1.10
1.51
1.69
1.56
1.20
0.77
0.44
0.34
0.45
0.64
0.77
0.76
0.63
0.46
0.31
0.17
0.04
-0.09
-0.16
-0.13
0.01
0.19
0.30
0.26
0.05
-0.27
-0.59
-0.84
-0.99
-1.08
-1.14
-1.22
-1.33
-1.50
-1.74
-2.03
-2.31
-2.51
-2.53
-2.31
-1.85
-1.25
-0.62
-0.08
0.31
0.58
0.80
1.05
1.33
1.58
1.68
1.55
1.17
0.66
0.18
-0.16
-0.33
-0.44
-0.63
-0.99
-1.48
-1.92
-2.07
-1.80
-1.10
-0.19
0.67
1.20
1.31
1.06
0.64
0.25
0.01
-0.08
-0.05
0.03
0.16
0.36
0.62
0.88
1.07
1.10
0.99
0.81
0.69
0.70
0.81
0.94
0.98
0.88
0.67
0.43
0.23
0.08
-0.05
-0.20
-0.34
-0.43
-0.35
-0.10
0.27
0.60
0.75
0.61
0.19
-0.40
-1.03
-1.54
-1.86
-1.97
-1.88
-1.61
-1.20
-0.70
-0.19
0.24
0.54
0.68
0.72
0.72
0.75
0.82
0.88
0.87
0.76
0.58
0.39
0.24
0.16
0.13
0.10
0.02
-0.14
-0.37
-0.64
-0.89
-1.06
-1.04
-0.76
-0.22
0.48
1.13
1.50
1.50
1.17
0.70
0.34
0.22
0.32
0.50
0.58
0.48
0.22
-0.10
-0.37
-0.54
-0.60
-0.57
-0.44
-0.20
0.13
0.49
0.76
0.84
0.74
0.53
0.35
0.31
0.43
0.62
0.76
0.77
0.66
0.49
0.32
0.19
0.07
-0.08
-0.25
-0.43
-0.55
-0.60
-0.62
-0.65
-0.72
-0.81
-0.87
-0.82
-0.67
-0.46
-0.28
-0.20
-0.27
-0.44
-0.65
-0.80
-0.85
-0.79
-0.66
-0.49
-0.34
-0.27
-0.29
-0.39
-0.50
-0.57
-0.52
-0.32
-0.00
0.38
0.75
1.08
1.31
1.45
1.49
1.41
1.21
0.91
0.57
0.26
0.04
-0.08
-0.13
-0.12
-0.07
0.05
0.21
0.42
0.63
0.78
0.81
0.73
0.56
0.34
0.08
-0.18
-0.42
-0.59
-0.61
-0.47
-0.21
0.06
0.21
0.17
-0.03
-0.28
-0.47
-0.54
-0.50
-0.42
-0.36
-0.31
-0.24
-0.10
0.12
0.38
0.63
0.84
1.00
1.14
1.27
1.36
1.37
1.22
0.90
0.43
-0.10
-0.58
-0.89
-0.99
-0.91
-0.72
-0.56
-0.51
-0.62
-0.83
-1.03
-1.12
-1.01
-0.71
-0.31
0.08
0.34
0.43
0.35
0.15
-0.10
-0.36
-0.56
-0.70
-0.74
-0.68
-0.54
-0.36
-0.17
-0.01
0.09
0.16
0.21
0.27
0.35
0.42
0.45
0.37
0.15
-0.18
-0.53
-0.73
-0.68
-0.33
0.22
0.81
1.25
1.44
1.37
1.13
0.79
0.43
0.07
-0.26
-0.57
-0.81
-0.96
-1.03
-1.06
-1.08
-1.12
-1.10
-0.95
-0.63
-0.14
0.43
0.96
1.29
1.37
1.19
0.84
0.45
0.15
-0.00
0.02
0.17
0.38
0.55
0.63
0.59
0.47
0.30
0.16
0.11
0.17
0.31
0.43
0.47
0.38
0.17
-0.09
-0.33
-0.49
-0.55
-0.52
-0.39
-0.18
0.13
0.50
0.88
1.18
1.32
1.27
1.06
0.70
0.23
-0.30
-0.83
-1.23
-1.40
-1.29
-0.95
-0.53
-0.19
-0.02
0.01
0.01
0.08
0.27
0.51
0.68
0.69
0.52
0.20
-0.17
-0.50
-0.73
-0.80
-0.73
-0.56
-0.38
-0.25
-0.21
-0.25
-0.32
-0.37
-0.38
-0.38
-0.38
-0.37
-0.33
-0.20
0.03
0.31
0.55
0.66
0.60
0.44
0.27
0.17
0.15
0.12
-0.05
-0.39
-0.84
-1.26
-1.48
-1.45
-1.24
-0.96
-0.70
-0.49
-0.25
0.05
0.42
0.76
0.99
1.09
1.08
1.07
1.14
1.26
1.38
1.40
1.26
0.95
0.50
-0.00
-0.48
-0.83
-1.01
-1.01
-0.84
-0.58
-0.32
-0.17
-0.16
-0.32
-0.59
-0.87
-1.06
-1.08
-0.89
-0.58
-0.26
-0.06
-0.06
-0.26
-0.55
-0.80
-0.90
-0.84
-0.65
-0.38
-0.08
0.23
0.54
0.80
0.94
0.87
0.60
0.20
-0.15
-0.29
-0.12
0.33
0.95
1.57
2.09
2.46
2.66
2.68
2.51
2.16
1.65
1.07
0.51
0.05
-0.26
-0.42
-0.48
-0.51
-0.56
-0.70
-0.92
-1.16
-1.35
-1.42
-1.36
-1.20
-1.04
-0.89
-0.76
-0.62
-0.44
-0.23
-0.02
0.17
0.36
0.57
0.85
1.13
1.33
1.34
1.13
0.74
0.29
-0.11
-0.44
-0.70
-0.96
-1.24
-1.53
-1.78
-1.94
-2.02
-2.04
-2.03
-2.00
-1.92
-1.74
-1.38
-0.83
-0.11
0.70
1.50
2.17
2.60
2.74
2.59
2.22
1.73
1.25
0.83
0.51
0.22
-0.07
-0.41
-0.75
-1.03
-1.17
-1.14
-0.94
-0.60
-0.16
0.36
0.95
1.53
1.96
2.10
1.83
1.15
0.18
-0.88
-1.87
-2.65
-3.20
-3.51
-3.62
-3.50
-3.15
-2.53
-1.63
-0.51
0.74
1.95
2.96
3.63
3.89
3.73
3.22
2.48
1.58
0.63
-0.25
-0.95
-1.34
-1.37
-1.05
-0.49
0.16
0.76
1.21
1.48
1.56
1.46
1.21
0.85
0.45
0.09
-0.18
-0.30
-0.28
-0.16
-0.03
0.05
0.08
0.07
0.07
0.11
0.17
0.19
0.11
-0.07
-0.30
-0.47
-0.54
-0.51
-0.50
-0.56
-0.69
-0.80
-0.74
-0.46
-0.01
0.43
0.70
0.69
0.46
0.14
-0.11
-0.19
-0.06
0.23
0.57
0.88
1.07
1.12
1.04
0.86
0.65
0.46
0.29
0.09
-0.16
-0.45
-0.73
-0.90
-0.93
-0.82
-0.64
-0.47
-0.35
-0.26
-0.17
-0.04
0.13
0.30
0.45
0.55
0.58
0.55
0.43
0.20
-0.14
-0.55
-0.94
-1.22
-1.37
-1.39
-1.36
-1.33
-1.29
-1.20
-0.98
-0.63
-0.23
0.10
0.26
0.15
-0.17
-0.62
-1.05
-1.34
-1.40
-1.22
-0.84
-0.34
0.17
0.57
0.82
0.90
0.84
0.69
0.51
0.32
0.13
-0.02
-0.08
0.01
0.26
0.62
0.95
1.13
1.06
0.74
0.29
-0.14
-0.42
-0.48
-0.37
-0.15
0.08
0.27
0.39
0.43
0.40
0.31
0.18
0.08
0.06
0.15
0.34
0.58
0.76
0.78
0.60
0.22
-0.23
-0.62
-0.82
-0.78
-0.53
-0.19
0.11
0.31
0.35
0.27
0.10
-0.09
-0.23
-0.29
-0.27
-0.22
-0.15
-0.11
-0.11
-0.14
-0.18
-0.22
-0.28
-0.32
-0.32
-0.22
0.01
0.33
0.67
0.90
0.91
0.70
0.33
-0.06
-0.32
-0.41
-0.33
-0.14
0.10
0.33
0.55
0.72
0.80
0.72
0.46
0.04
-0.42
-0.80
-0.98
-0.92
-0.69
-0.40
-0.20
-0.15
-0.27
-0.47
-0.63
-0.63
-0.43
-0.09
0.26
0.48
0.50
0.34
0.08
-0.17
-0.33
-0.39
-0.31
-0.14
0.12
0.40
0.59
0.64
0.52
0.30
0.08
-0.05
-0.09
-0.08
-0.09
-0.17
-0.31
-0.49
-0.66
-0.75
-0.70
-0.47
-0.09
0.33
0.67
0.82
0.77
0.62
0.52
0.53
0.63
0.69
0.57
0.26
-0.17
-0.56
-0.78
-0.81
-0.70
-0.56
-0.45
-0.41
-0.42
-0.46
-0.49
-0.47
-0.39
-0.20
0.09
0.45
0.81
1.08
1.19
1.12
0.88
0.58
0.31
0.15
0.13
0.19
0.26
0.25
0.12
-0.12
-0.39
-0.61
-0.71
-0.64
-0.43
-0.13
0.18
0.41
0.49
0.41
0.22
0.03
-0.09
-0.10
-0.06
-0.04
-0.08
-0.15
-0.15
0.00
0.29
0.60
0.77
0.71
0.42
0.03
-0.28
-0.39
-0.30
-0.09
0.11
0.22
0.24
0.23
0.28
0.41
0.61
0.79
0.85
0.72
0.38
-0.10
-0.60
-1.03
-1.29
-1.34
-1.22
-0.99
-0.69
-0.42
-0.18
-0.00
0.10
0.14
0.11
0.01
-0.12
-0.23
-0.26
-0.12
0.18
0.59
0.98
1.18
1.12
0.82
0.41
0.07
-0.06
0.02
0.23
0.39
0.44
0.37
0.27
0.24
0.29
0.32
0.25
0.00
-0.34
-0.65
-0.76
-0.59
-0.20
0.25
0.58
0.69
0.55
0.24
-0.12
-0.42
-0.61
-0.68
-0.63
-0.49
-0.27
-0.02
0.19
0.29
0.24
0.05
-0.20
-0.37
-0.37
-0.15
0.21
0.55
0.71
0.57
0.19
-0.32
-0.77
-1.00
-0.95
-0.67
-0.27
0.09
0.26
0.21
-0.03
-0.35
-0.62
-0.75
-0.70
-0.54
-0.36
-0.25
-0.24
-0.27
-0.27
-0.17
0.02
0.23
0.39
0.47
0.53
0.66
0.91
1.20
1.40
1.34
0.93
0.25
-0.50
-1.10
-1.40
-1.37
-1.09
-0.68
-0.24
0.19
0.59
0.89
1.01
0.87
0.47
-0.11
-0.68
-1.05
-1.11
-0.88
-0.48
-0.07
0.20
0.29
0.22
0.09
0.03
0.11
0.31
0.57
0.79
0.90
0.90
0.85
0.83
0.85
0.86
0.74
0.44
0.01
-0.34
-0.40
-0.02
0.71
1.54
2.12
2.18
1.65
0.70
-0.37
-1.28
-1.86
-2.07
-2.01
-1.80
-1.53
-1.28
-1.08
-0.96
-0.92
-0.93
-0.98
-1.08
-1.23
-1.41
-1.57
-1.64
-1.57
-1.37
-1.15
-1.03
-1.08
-1.21
-1.24
-1.02
-0.53
0.07
0.54
0.71
0.59
0.38
0.33
0.58
1.06
1.55
1.86
1.93
1.86
1.82
1.94
2.23
2.55
2.73
2.68
2.40
1.95
1.39
0.76
0.06
-0.65
-1.27
-1.62
-1.59
-1.21
-0.66
-0.23
-0.09
-0.27
-0.64
-0.99
-1.21
-1.37
-1.67
-2.23
-2.99
-3.68
-3.96
-3.68
-2.98
-2.24
-1.90
-2.19
-3.01
-4.01
-4.85
-5.35
-5.58
-5.75
-6.03
-6.46
-6.94
-7.31
-7.55
-7.83
-8.39
-9.44
-11.00
-12.92
-14.94
-16.89
-18.73
-20.57
-22.60
-24.91
-27.39
-29.73
-31.61
-32.79
-33.30
-33.39
-33.45
-33.84
-34.75
-36.22
-38.19
-40.61
-43.53
-47.06
-51.30
-56.20
-61.54
-66.90
-71.89
-76.29
-80.20
-84.04
-88.36
-93.56
-99.64
-106.17
-112.40
-117.70
-121.70
-124.48
-126.52
-128.53
-131.38
-136.00
-143.31
-153.85
-167.30
-181.96
-194.80
-202.04
-200.32
-187.89
-165.15
-134.38
-98.64
-60.52
-21.21
19.45
62.13
106.87
152.16
195.05
231.95
259.97
277.88
286.41
287.64
283.86
276.79
267.29
255.98
243.99
233.34
226.56
225.60
230.78
240.47
251.69
261.34
267.44
269.73
269.43
268.50
268.84
271.96
278.75
289.40
302.95
316.99
327.72
330.79
322.71
302.21
270.78
232.10
190.53
149.60
111.06
74.96
40.39
6.24
-28.49
-64.69
-103.16
-144.09
-186.42
-227.32
-262.57
-287.88
-300.42
-300.01
-289.19
-272.10
-252.88
-234.47
-218.16
-203.97
-191.44
-180.16
-169.91
-160.45
-151.35
-142.02
-132.04
-121.39
-110.53
-100.18
-90.99
-83.25
-76.80
-71.16
-65.80
-60.30
-54.48
-48.34
-42.09
-36.01
-30.41
-25.48
-21.14
-17.05
-12.72
-7.79
-2.28
3.24
7.93
11.00
12.15
11.70
10.42
9.20
8.62
8.79
9.43
10.09
10.35
10.03
9.14
7.82
6.29
4.76
3.43
2.42
1.76
1.36
1.00
0.41
-0.68
-2.37
-4.54
-6.92
-9.10
-10.78
-11.87
-12.65
-13.72
-15.86
-19.61
-25.03
-31.39
-37.44
-41.77
-43.54
-42.81
-40.65
-38.58
-37.93
-39.22
-42.05
-45.34
-47.90
-48.82
-47.49
-43.66
-37.28
-28.75
-19.12
-10.16
-3.82
-1.08
-1.00
-0.59
3.92
15.10
32.61
53.03
71.44
83.73
88.43
86.78
81.29
73.89
64.95
53.89
40.42
25.77
12.51
3.29
-0.60
0.03
2.73
4.58
3.18
-2.82
-13.58
-28.21
-44.89
-61.09
-74.26
-82.69
-86.40
-87.22
-88.05
-91.39
-98.09
-106.92
-115.28
-120.72
-122.27
-120.92
-118.98
-118.90
-122.15
-128.88
-138.21
-148.72
-158.80
-166.63
-170.01
-166.49
-153.86
-130.82
-97.40
-54.95
-5.72
47.53
101.73
153.52
199.32
235.82
260.77
273.65
275.92
270.66
261.83
253.21
247.46
245.11
244.02
239.75
227.02
201.97
164.10
116.77
65.85
17.31
-24.75
-58.37
-82.21
-94.22
-91.95
-74.58
-45.28
-11.51
17.45
34.63
38.61
33.73
27.19
25.10
29.86
40.31
53.97
69.37
86.75
106.78
128.42
147.61
158.29
154.99
135.61
102.99
64.13
27.67
0.73
-13.52
-16.50
-12.56
-6.37
-0.78
4.01
9.52
17.14
26.83
37.35
47.48
57.41
68.82
83.44
100.98
117.82
127.93
125.54
108.28
78.48
41.89
4.67
-29.56
-60.44
-89.36
-116.92
-141.37
-159.23
-167.59
-166.28
-158.33
-148.47
-140.58
-136.01
-133.48
-130.48
-125.14
-117.30
-108.29
-99.98
-93.64
-89.38
-86.26
-83.02
-78.82
-73.71
-68.50
-64.24
-61.59
-60.41
-59.81
-58.63
-56.04
-51.86
-46.68
-41.46
-37.11
-34.08
-32.32
-31.35
-30.60
-29.58
-28.00
-25.65
-22.35
-17.75
-11.48
-3.34
6.51
17.34
27.95
36.98
43.31
46.46
46.69
44.80
41.77
38.33
34.75
30.88
26.27
20.53
13.53
5.56
-2.77
-10.65
-17.35
-22.48
-26.21
-29.32
-33.02
-38.40
-45.80
-54.50
-62.81
-68.83
-71.48
-70.98
-68.91
-67.33
-67.72
-70.44
-74.92
-80.34
-86.20
-92.26
-98.15
-102.94
-105.43
-104.74
-101.03
-95.32
-88.76
-81.76
-73.38
-61.70
-44.47
-20.08
11.83
50.05
91.81
133.13
169.46
196.73
212.59
217.08
212.53
202.48
190.26
178.13
167.16
157.66
149.77
143.58
138.94
135.38
132.28
129.32
126.82
125.64
126.70
130.62
137.13
144.93
151.79
155.00
152.45
143.71
130.82
117.94
109.61
108.38
112.90
117.84
115.69
99.96
68.07
22.65
-29.37
-79.42
-120.19
-147.73
-161.84
-165.22
-161.76
-155.04
-147.43
-139.95
-132.84
-126.14
-120.07
-114.93
-110.82
-107.23
-103.07
-97.08
-88.44
-77.20
-64.37
-51.59
-40.58
-32.53
-27.74
-25.54
-24.61
-23.58
-21.60
-18.66
-15.55
-13.25
-12.38
-12.79
-13.57
-13.62
-12.23
-9.49
-6.25
-3.72
-2.81
-3.73
-5.91
-8.34
-10.08
-10.67
-10.24
-9.32
-8.47
-8.00
-7.85
-7.71
-7.31
-6.59
-5.77
-5.19
-5.12
-5.62
-6.48
-7.39
-8.13
-8.63
-8.99
-9.37
-9.87
-10.50
-11.09
-11.40
-11.16
-10.09
-8.03
-5.00
-1.29
2.60
6.01
8.38
9.41
9.16
8.00
6.49
5.13
4.29
4.14
4.68
5.78
7.21
8.61
9.62
9.94
9.43
8.18
6.52
4.80
3.32
2.12
1.03
-0.23
-1.87
-3.90
-6.12
-8.28
-10.27
-12.26
-14.61
-17.72
-21.62
-25.97
-30.01
-32.97
-34.38
-34.34
-33.51
-32.77
-32.91
-34.29
-36.78
-39.95
-43.24
-46.03
-47.58
-46.97
-43.21
-35.69
-24.59
-11.16
2.52
14.26
22.67
27.71
30.59
33.05
36.45
41.17
46.54
51.38
54.67
56.03
55.77
54.54
52.96
51.34
49.68
47.83
45.74
43.56
41.57
40.01
38.89
38.00
36.93
35.39
33.27
30.75
28.14
25.59
23.00
19.92
15.88
10.60
4.21
-2.72
-9.48
-15.36
-19.93
-23.07
-24.88
-25.60
-25.53
-24.99
-24.28
-23.62
-23.10
-22.70
-22.29
-21.71
-20.90
-19.85
-18.68
-17.48
-16.31
-15.21
-14.21
-13.34
-12.65
-12.13
-11.74
-11.33
-10.78
-10.03
-9.14
-8.30
-7.74
-7.65
-8.06
-8.84
-9.71
-10.31
-10.43
-10.01
-9.24
-8.48
-8.14
-8.58
-9.92
-12.03
-14.40
-16.20
-16.38
-13.99
-8.54
-0.35
9.43
19.08
26.88
31.70
33.36
32.49
30.12
27.23
24.32
21.50
18.70
15.96
13.49
11.55
10.27
9.50
8.86
7.96
6.57
4.80
2.96
1.41
0.42
0.09
0.33
0.99
1.92
2.95
3.93
4.74
5.35
5.82
6.33
7.03
8.02
9.21
10.45
11.54
12.34
12.76
12.75
12.28
11.30
9.90
8.24
6.63
5.36
4.64
4.42
4.40
4.07
2.97
0.80
-2.31
-5.91
-9.24
-11.61
-12.54
-11.93
-10.02
-7.27
-4.17
-1.14
1.46
3.41
4.65
5.37
5.98
6.94
8.54
10.64
12.73
14.15
14.51
13.92
13.05
12.84
14.11
17.34
22.48
28.90
35.34
39.89
40.32
34.71
22.45
4.81
-15.04
-33.01
-45.54
-50.88
-49.57
-43.84
-36.47
-29.59
-24.16
-20.23
-17.48
-15.78
-15.23
-15.93
-17.64
-19.60
-20.85
-20.59
-18.61
-15.34
-11.65
-8.43
-6.18
-4.88
-4.16
-3.53
-2.72
-1.76
-0.91
-0.54
-0.86
-1.85
-3.30
-4.84
-6.10
-6.74
-6.62
-5.76
-4.36
-2.76
-1.27
-0.11
0.69
1.24
1.70
2.24
2.92
3.68
4.39
4.97
5.37
5.69
6.03
6.51
7.10
7.64
7.87
7.58
6.64
5.10
3.10
0.83
-1.55
-3.88
-6.02
-7.86
-9.24
-10.07
-10.31
-10.01
-9.30
-8.38
-7.45
-6.68
-6.16
-5.92
-5.93
-6.08
-6.28
-6.43
-6.40
-6.11
-5.54
-4.72
-3.79
-2.92
-2.31
-2.04
-2.06
-2.20
-2.28
-2.20
-1.99
-1.78
-1.73
-1.91
-2.27
-2.67
-2.93
-2.97
-2.80
-2.53
-2.29
-2.17
-2.19
-2.42
-2.98
-3.98
-5.49
-7.28
-8.90
-9.77
-9.45
-7.86
-5.36
-2.58
-0.07
1.84
3.16
4.06
4.72
5.16
5.35
5.27
5.04
4.88
5.00
5.43
6.03
6.53
6.73
6.55
6.08
5.47
4.83
4.20
3.55
2.82
2.02
1.22
0.52
0.02
-0.26
-0.37
-0.38
-0.36
-0.31
-0.21
-0.03
0.21
0.46
0.68
0.82
0.90
0.95
1.04
1.19
1.42
1.69
1.92
2.06
2.02
1.77
1.32
0.77
0.28
-0.01
-0.03
0.17
0.45
0.63
0.63
0.42
0.11
-0.18
-0.31
-0.26
-0.04
0.26
0.54
0.71
0.73
0.63
0.46
0.27
0.10
-0.06
-0.20
-0.30
-0.35
-0.36
-0.38
-0.51
-0.81
-1.29
-1.86
-2.33
-2.55
-2.40
-1.91
-1.23
-0.56
-0.04
0.22
0.25
0.12
-0.07
-0.23
-0.27
-0.15
0.12
0.51
0.95
1.35
1.64
1.80
1.86
1.89
1.95
2.02
2.08
2.08
2.00
1.86
1.73
1.68
1.72
1.82
1.92
1.96
1.96
1.94
1.95
2.01
2.07
2.10
2.04
1.86
1.56
1.19
0.80
0.47
0.27
0.26
0.41
0.63
0.78
0.75
0.46
-0.01
-0.56
-1.04
-1.34
-1.44
-1.37
-1.21
-1.05
-0.96
-0.96
-1.01
-1.07
-1.08
-1.01
-0.90
-0.79
-0.72
-0.70
-0.71
-0.74
-0.78
-0.84
-0.88
-0.82
-0.58
-0.12
0.45
0.99
1.29
1.25
0.87
0.28
-0.35
-0.86
-1.15
-1.19
-1.02
-0.72
-0.43
-0.26
-0.31
-0.58
-0.98
-1.37
-1.59
-1.57
-1.32
-0.95
-0.61
-0.39
-0.34
-0.42
-0.54
-0.63
-0.60
-0.46
-0.23
0.04
0.25
0.36
0.34
0.24
0.08
-0.07
-0.20
-0.31
-0.39
-0.43
-0.38
-0.20
0.07
0.33
0.45
0.33
-0.03
-0.55
-1.07
-1.43
-1.57
-1.51
-1.35
-1.18
-1.09
-1.11
-1.18
-1.21
-1.13
-0.88
-0.50
-0.05
0.40
0.81
1.15
1.41
1.53
1.49
1.27
0.90
0.48
0.14
-0.05
-0.07
0.00
0.07
0.07
0.03
0.01
0.09
0.30
0.59
0.85
0.95
0.80
0.40
-0.18
-0.78
-1.28
-1.56
-1.61
-1.49
-1.28
-1.07
-0.90
-0.76
-0.63
-0.52
-0.43
-0.40
-0.43
-0.47
-0.47
-0.36
-0.13
0.17
0.47
0.69
0.81
0.87
0.92
1.04
1.26
1.52
1.73
1.81
1.68
1.38
0.98
0.62
0.36
0.25
0.23
0.20
0.11
-0.06
-0.28
-0.45
-0.53
-0.48
-0.36
-0.22
-0.13
-0.13
-0.21
-0.33
-0.44
-0.51
-0.54
-0.56
-0.60
-0.68
-0.76
-0.81
-0.79
-0.70
-0.51
-0.24
0.09
0.44
0.74
0.91
0.89
0.68
0.36
0.05
-0.14
-0.15
0.02
0.28
0.56
0.78
0.91
0.95
0.93
0.84
0.67
0.43
0.15
-0.13
-0.30
-0.32
-0.18
0.04
0.25
0.33
0.26
0.07
-0.10
-0.16
-0.08
0.05
0.11
-0.00
-0.26
-0.51
-0.56
-0.32
0.15
0.67
1.01
1.05
0.85
0.55
0.35
0.32
0.42
0.54
0.58
0.51
0.40
0.32
0.33
0.43
0.59
0.78
0.96
1.07
1.06
0.87
0.50
0.00
-0.50
-0.91
-1.20
-1.40
-1.59
-1.76
-1.83
-1.65
-1.10
-0.20
0.86
1.81
2.33
2.24
1.55
0.41
-0.94
-2.23
-3.21
-3.73
-3.68
-3.04
-1.88
-0.38
1.18
2.46
3.17
3.16
2.48
1.35
0.07
-1.11
-2.05
-2.71
-3.13
-3.31
-3.23
-2.85
-2.19
-1.34
-0.46
0.33
0.93
1.32
1.48
1.39
1.01
0.39
-0.32
-0.90
-1.12
-0.86
-0.22
0.59
1.31
1.77
1.98
2.04
2.05
1.99
1.74
1.15
0.17
-1.07
-2.27
-3.09
-3.27
-2.79
-1.83
-0.73
0.18
0.71
0.86
0.76
0.64
0.61
0.72
0.95
1.28
1.72
2.31
3.09
3.96
4.74
5.24
5.29
4.90
4.21
3.41
2.69
2.15
1.85
1.78
1.95
2.33
2.87
3.46
4.00
4.39
4.58
4.57
4.43
4.25
4.14
4.20
4.46
4.94
5.56
6.25
6.92
7.58
8.27
9.02
9.84
10.69
11.53
12.33
13.12
13.96
14.89
15.96
17.23
18.81
20.81
23.25
25.89
28.19
29.40
28.90
26.50
22.66
18.50
15.32
14.14
15.27
18.23
22.05
25.90
29.45
32.91
36.58
40.35
43.39
44.44
42.45
37.24
29.74
21.63
14.56
9.58
6.87
6.15
7.12
9.70
13.61
17.86
20.43
18.78
11.01
-3.02
-21.21
-39.89
-55.25
-64.85
-68.36
-67.28
-63.79
-59.67
-55.70
-51.78
-47.60
-43.19
-39.01
-35.68
-33.52
-32.31
-31.43
-30.21
-28.23
-25.60
-22.80
-20.44
-18.96
-18.45
-18.61
-18.93
-18.90
-18.19
-16.81
-15.01
-13.20
-11.70
-10.65
-9.96
-9.40
-8.71
-7.79
-6.67
-5.55
-4.59
-3.91
-3.49
-3.20
-2.93
-2.59
-2.16
-1.73
-1.37
-1.17
-1.15
-1.27
-1.47
-1.63
-1.64
-1.39
-0.88
-0.18
0.55
1.12
1.40
1.37
1.16
0.95
0.88
0.99
1.20
1.37
1.38
1.20
0.89
0.51
0.16
-0.12
-0.32
-0.46
-0.59
-0.76
-0.99
-1.25
-1.47
-1.54
-1.41
-1.06
-0.57
-0.07
0.31
0.52
0.53
0.36
0.06
-0.34
-0.73
-1.02
-1.12
-0.94
-0.51
0.06
0.62
1.02
1.22
1.24
1.14
1.02
0.93
0.89
0.89
0.87
0.81
0.68
0.51
0.36
0.32
0.45
0.77
1.20
1.59
1.83
1.86
1.75
1.60
1.50
1.49
1.51
1.48
1.36
1.17
0.96
0.77
0.53
0.17
-0.38
-1.08
-1.72
-2.08
-1.98
-1.42
-0.57
0.31
1.00
1.42
1.58
1.58
1.47
1.31
1.09
0.84
0.59
0.34
0.09
-0.23
-0.65
-1.16
-1.70
-2.14
-2.38
-2.38
-2.14
-1.75
-1.30
-0.87
-0.49
-0.17
0.11
0.37
0.58
0.72
0.72
0.55
0.20
-0.30
-0.87
-1.41
-1.88
-2.21
-2.37
-2.34
-2.09
-1.64
-1.02
-0.33
0.36
0.96
1.45
1.83
2.12
2.36
2.55
2.69
2.72
2.60
2.29
1.80
1.18
0.55
0.03
-0.28
-0.33
-0.17
0.09
0.38
0.66
0.96
1.29
1.64
1.91
1.97
1.75
1.28
0.70
0.14
-0.29
-0.61
-0.86
-1.10
-1.31
-1.43
-1.42
-1.27
-1.07
-0.89
-0.78
-0.72
-0.66
-0.56
-0.42
-0.30
-0.24
-0.23
-0.23
-0.20
-0.14
-0.08
-0.10
-0.24
-0.48
-0.73
-0.89
-0.86
-0.65
-0.33
-0.04
0.11
0.07
-0.09
-0.31
-0.52
-0.72
-0.96
-1.26
-1.59
-1.86
-1.99
-1.96
-1.80
-1.64
-1.51
-1.41
-1.23
-0.91
-0.40
0.19
0.73
1.07
1.13
0.99
0.79
0.67
0.71
0.88
1.06
1.14
1.04
0.83
0.60
0.49
0.56
0.79
1.08
1.34
1.51
1.61
1.68
1.77
1.87
1.93
1.91
1.74
1.45
1.06
0.62
0.15
-0.35
-0.90
-1.47
-1.98
-2.33
-2.41
-2.16
-1.61
-0.86
-0.10
0.49
0.77
0.69
0.28
-0.32
-0.94
-1.44
-1.75
-1.85
-1.81
-1.72
-1.64
-1.57
-1.48
-1.32
-1.03
-0.66
-0.28
-0.01
0.04
-0.15
-0.50
-0.89
-1.16
-1.22
-1.09
-0.83
-0.56
-0.35
-0.19
-0.04
0.14
0.41
0.73
1.02
1.18
1.10
0.79
0.32
-0.14
-0.44
-0.47
-0.28
0.04
0.38
0.65
0.87
1.07
1.28
1.45
1.53
1.46
1.25
0.98
0.77
0.69
0.76
0.92
1.09
1.20
1.17
0.97
0.65
0.26
-0.06
-0.20
-0.13
0.15
0.53
0.93
1.26
1.50
1.64
1.69
1.61
1.42
1.13
0.82
0.59
0.46
0.42
0.37
0.20
-0.15
-0.65
-1.17
-1.60
-1.88
-2.03
-2.12
-2.22
-2.33
-2.40
-2.34
-2.07
-1.57
-0.89
-0.14
0.56
1.08
1.35
1.36
1.20
0.99
0.85
0.83
0.92
1.00
0.96
0.72
0.28
-0.25
-0.73
-1.02
-1.08
-0.97
-0.82
-0.77
-0.90
-1.19
-1.48
-1.63
-1.55
-1.26
-0.90
-0.59
-0.41
-0.31
-0.19
0.06
0.42
0.79
1.04
1.08
0.94
0.77
0.74
0.97
1.42
1.94
2.32
2.44
2.33
2.16
2.13
2.35
2.77
3.19
3.43
3.41
3.22
3.01
2.90
2.88
2.80
2.49
1.86
0.94
-0.06
-0.92
-1.45
-1.62
-1.47
-1.13
-0.72
-0.29
0.18
0.72
1.36
2.03
2.64
3.07
3.21
2.99
2.43
1.58
0.54
-0.54
-1.49
-2.14
-2.39
-2.21
-1.73
-1.11
-0.57
-0.25
-0.19
-0.31
-0.51
-0.66
-0.66
-0.46
-0.08
0.43
0.96
1.38
1.58
1.50
1.17
0.71
0.31
0.10
0.17
0.44
0.77
1.02
1.07
0.90
0.58
0.19
-0.16
-0.41
-0.53
-0.55
-0.51
-0.50
-0.60
-0.85
-1.28
-1.83
-2.44
-3.03
-3.51
-3.82
-3.91
-3.77
-3.44
-3.04
-2.69
-2.49
-2.42
-2.40
-2.26
-1.88
-1.27
-0.54
0.08
0.40
0.35
-0.00
-0.47
-0.89
-1.17
-1.33
-1.43
-1.56
-1.73
-1.93
-2.12
-2.29
-2.43
-2.52
-2.52
-2.35
-1.93
-1.25
-0.39
0.51
1.27
1.79
2.05
2.06
1.90
1.63
1.28
0.87
0.44
0.06
-0.25
-0.46
-0.59
-0.68
-0.74
-0.77
-0.72
-0.59
-0.36
-0.12
0.07
0.11
-0.00
-0.22
-0.43
-0.54
-0.53
-0.47
-0.48
-0.66
-1.03
-1.52
-1.98
-2.32
-2.49
-2.54
-2.52
-2.51
-2.51
-2.55
-2.64
-2.86
-3.27
-3.90
-4.70
-5.55
-6.31
-6.87
-7.22
-7.41
-7.55
-7.78
-8.20
-8.84
-9.68
-10.62
-11.55
-12.41
-13.24
-14.14
-15.27
-16.76
-18.64
-20.86
-23.31
-25.81
-28.25
-30.57
-32.74
-34.75
-36.63
-38.40
-40.16
-42.09
-44.44
-47.43
-51.11
-55.22
-59.20
-62.35
-64.14
-64.46
-63.71
-62.69
-62.28
-63.18
-65.63
-69.22
-72.92
-75.23
-74.64
-70.01
-61.00
-48.18
-32.95
-17.19
-2.87
8.27
14.98
16.59
13.03
4.86
-6.82
-20.53
-34.79
-48.44
-60.94
-72.37
-83.19
-93.86
-104.38
-114.19
-122.60
-129.40
-135.31
-141.67
-149.52
-158.27
-165.27
-166.42
-157.86
-137.80
-107.39
-70.01
-29.46
11.82
53.37
95.73
138.80
180.57
217.28
244.89
261.00
266.02
262.85
255.22
245.93
235.80
223.78
208.51
189.66
168.61
148.01
130.38
116.87
106.79
98.51
91.07
85.24
83.46
88.16
99.81
115.78
131.24
141.67
145.61
145.81
147.99
157.79
177.70
205.86
237.39
267.12
291.97
311.42
326.19
336.20
339.51
333.11
314.73
284.63
246.02
203.96
163.25
126.73
94.59
65.12
35.86
4.76
-29.40
-67.02
-107.85
-150.85
-193.94
-233.89
-266.76
-289.05
-298.83
-296.61
-285.09
-268.14
-249.44
-231.42
-215.03
-200.17
-186.48
-173.76
-162.09
-151.51
-141.77
-132.34
-122.62
-112.32
-101.57
-90.96
-81.22
-72.90
-66.13
-60.59
-55.69
-50.84
-45.69
-40.24
-34.77
-29.66
-25.20
-21.45
-18.28
-15.42
-12.57
-9.60
-6.49
-3.43
-0.71
1.37
2.54
2.71
1.92
0.35
-1.78
-4.25
-6.89
-9.51
-11.97
-14.08
-15.66
-16.60
-16.87
-16.60
-15.98
-15.20
-14.41
-13.68
-13.02
-12.40
-11.81
-11.16
-10.29
-8.89
-6.64
-3.30
1.08
6.13
11.18
15.51
18.54
19.98
19.88
18.41
15.80
12.24
7.94
3.27
-1.22
-4.90
-7.24
-8.03
-7.46
-5.99
-4.20
-2.54
-1.21
-0.18
0.68
1.50
2.34
3.17
3.94
4.60
5.12
5.46
5.58
5.44
5.04
4.40
3.60
2.71
1.84
1.08
0.49
0.11
-0.05
-0.02
0.17
0.45
0.76
0.99
1.03
0.84
0.43
-0.08
-0.54
-0.79
-0.78
-0.56
-0.27
-0.01
0.16
0.27
0.38
0.53
0.73
0.90
0.98
0.90
0.68
0.34
-0.03
-0.37
-0.61
-0.75
-0.81
-0.84
-0.86
-0.84
-0.76
-0.60
-0.36
-0.05
0.28
0.60
0.88
1.09
1.18
1.13
0.90
0.55
0.20
-0.01
0.02
0.28
0.66
0.99
1.14
1.03
0.69
0.20
-0.35
-0.88
-1.36
-1.74
-1.99
-2.06
-1.92
-1.57
-1.08
-0.52
0.01
0.44
0.74
0.88
0.85
0.61
0.17
-0.45
-1.12
-1.66
-1.90
-1.75
-1.24
-0.53
0.18
0.76
1.14
1.37
1.48
1.47
1.30
0.90
0.31
-0.37
-0.95
-1.25
-1.16
-0.68
0.04
0.83
1.47
1.83
1.84
1.55
1.06
0.51
0.02
-0.36
-0.64
-0.85
-1.05
-1.24
-1.41
-1.54
-1.57
-1.50
-1.31
-1.02
-0.70
-0.38
-0.14
-0.03
-0.07
-0.26
-0.54
-0.83
-1.05
-1.16
-1.17
-1.12
-1.05
-0.97
-0.87
-0.71
-0.51
-0.32
-0.21
-0.30
-0.68
-1.37
-2.31
-3.33
-4.25
-4.89
-5.24
-5.40
-5.55
-5.82
-6.22
-6.63
-6.90
-7.00
-7.03
-7.19
-7.66
-8.52
-9.72
-11.16
-12.80
-14.62
-16.61
-18.71
-20.82
-22.86
-24.86
-27.03
-29.65
-32.93
-36.85
-41.13
-45.39
-49.33
-52.95
-56.55
-60.65
-65.70
-71.87
-78.89
-86.03
-92.47
-97.59
-101.38
-104.62
-108.66
-114.82
-123.57
-134.14
-144.54
-152.22
-154.88
-151.15
-140.65
-123.70
-100.84
-72.46
-38.89
-0.47
42.34
89.15
139.90
194.68
253.00
312.85
369.99
418.26
451.14
463.78
454.69
426.09
382.93
330.73
273.74
214.15
152.97
91.58
33.06
-17.93
-56.62
-80.16
-89.11
-87.19
-79.76
-71.57
-65.12
-60.46
-56.16
-50.82
-44.17
-37.15
-31.18
-27.26
-25.37
-24.56
-23.56
-21.38
-17.88
-13.85
-10.71
-9.88
-12.29
-17.87
-25.50
-33.28
-39.18
-41.63
-40.07
-35.06
-27.93
-20.33
-13.59
-8.36
-4.51
-1.41
1.80
5.88
11.49
19.13
29.07
40.76
52.09
59.31
57.82
44.12
17.85
-17.23
-54.16
-85.37
-105.64
-113.85
-112.59
-106.19
-98.29
-90.57
-83.00
-75.02
-66.69
-58.88
-52.59
-48.09
-44.68
-41.10
-36.25
-29.71
-21.68
-12.72
-3.36
6.03
15.11
23.41
30.30
35.11
37.25
36.42
32.68
26.52
18.83
10.79
3.71
-1.27
-3.46
-2.80
0.17
4.50
9.18
13.42
16.74
18.98
20.22
20.74
20.87
21.00
21.48
22.47
23.93
25.53
26.82
27.39
27.11
26.10
24.54
22.42
19.36
14.73
8.05
-0.56
-10.23
-19.52
-27.00
-31.74
-33.64
-33.28
-31.57
-29.33
-27.08
-25.02
-23.16
-21.48
-19.96
-18.64
-17.49
-16.50
-15.59
-14.67
-13.66
-12.51
-11.24
-9.94
-8.76
-7.83
-7.20
-6.78
-6.44
-6.03
-5.54
-5.05
-4.71
-4.61
-4.72
-4.89
-4.92
-4.67
-4.13
-3.42
-2.71
-2.15
-1.81
-1.69
-1.76
-1.98
-2.34
-2.79
-3.27
-3.72
-4.06
-4.26
-4.36
-4.43
-4.50
-4.62
-4.77
-4.99
-5.29
-5.72
-6.30
-6.92
-7.38
-7.41
-6.79
-5.49
-3.69
-1.80
-0.27
0.59
0.69
0.21
-0.56
-1.36
-2.12
-2.97
-4.16
-5.85
-8.00
-10.27
-12.15
-13.16
-13.02
-11.87
-10.13
-8.40
-7.16
-6.59
-6.61
-6.93
-7.21
-7.18
-6.70
-5.74
-4.39
-2.81
-1.18
0.37
1.73
2.78
3.27
2.88
1.25
-1.82
-6.21
-11.56
-17.44
-23.50
-29.32
-34.10
-36.43
-34.56
-27.13
-14.14
2.58
19.78
33.98
42.80
45.76
44.16
40.09
35.43
31.10
27.14
23.21
19.14
15.23
12.12
10.41
10.29
11.39
12.88
13.85
13.70
12.47
10.78
9.57
9.54
10.83
12.93
14.94
16.14
16.38
16.21
16.66
18.69
22.73
28.34
34.35
39.23
41.80
41.67
39.52
36.79
35.03
35.18
37.17
40.06
42.60
43.99
44.19
43.90
44.08
45.51
48.60
53.67
61.21
71.65
84.56
97.84
107.66
109.67
101.02
82.14
57.16
32.59
14.78
7.52
10.98
22.44
37.98
54.27
69.55
83.36
95.92
107.51
118.38
129.13
141.13
156.45
177.21
204.57
237.55
272.65
304.54
327.66
338.21
335.40
321.49
300.56
276.76
252.88
229.87
207.39
184.74
161.51
137.75
113.59
88.95
63.49
36.88
9.14
-19.20
-47.30
-74.35
-100.01
-124.55
-148.85
-174.25
-202.21
-233.68
-268.45
-304.54
-338.20
-364.81
-380.32
-382.81
-373.25
-355.09
-332.77
-310.09
-289.11
-270.17
-252.72
-236.33
-221.14
-207.61
-195.80
-184.94
-173.53
-160.04
-143.76
-125.18
-105.91
-88.02
-73.21
-62.21
-54.71
-49.59
-45.57
-41.66
-37.43
-33.01
-28.78
-25.11
-22.16
-19.84
-17.97
-16.43
-15.28
-14.70
-14.83
-15.57
-16.44
-16.74
-15.68
-12.75
-7.89
-1.51
5.58
12.44
18.19
22.22
24.20
24.09
22.10
18.65
14.28
9.62
5.25
1.60
-1.13
-2.98
-4.20
-5.13
-6.02
-7.03
-8.13
-9.25
-10.33
-11.33
-12.28
-13.17
-13.98
-14.67
-15.24
-15.78
-16.46
-17.46
-18.92
-20.91
-23.44
-26.56
-30.41
-35.19
-41.09
-48.10
-55.99
-64.36
-72.78
-81.06
-89.26
-97.74
-106.85
-116.71
-127.11
-137.56
-147.59
-156.93
-165.72
-174.29
-182.95
-191.76
-200.62
-209.58
-219.06
-229.68
-241.75
-254.65
-266.71
-275.68
-279.70
-278.06
-271.37
-261.05
-248.50
-234.46
-218.97
-201.76
-182.67
-161.88
-139.65
-116.13
-91.19
-64.71
-36.82
-8.06
20.81
49.19
76.88
104.23
132.14
161.84
194.52
230.63
269.10
307.01
339.91
363.19
373.62
370.70
356.79
336.13
313.08
290.70
270.12
251.11
233.05
215.75
199.58
185.08
172.36
160.82
149.50
137.56
124.80
111.77
99.52
89.02
80.70
74.20
68.65
63.05
56.80
49.89
42.85
36.42
31.10
27.01
23.86
21.20
18.64
15.99
13.30
10.74
8.48
6.60
5.08
3.85
2.83
1.97
1.27
0.75
0.43
0.28
0.23
0.21
0.19
0.13
0.06
0.00
-0.03
-0.04
-0.04
-0.04
-0.04
-0.06
-0.07
-0.05
0.01
0.13
0.30
0.47
0.59
0.60
0.47
0.20
-0.14
-0.47
-0.71
-0.83
-0.83
-0.75
-0.65
-0.55
-0.45
-0.33
-0.15
0.03
0.19
0.29
0.30
0.22
0.07
-0.14
-0.37
-0.56
-0.70
-0.74
-0.71
-0.64
-0.59
-0.61
-0.70
-0.82
-0.90
-0.90
-0.77
-0.58
-0.44
-0.43
-0.58
-0.84
-1.07
-1.10
-0.84
-0.31
0.33
0.89
1.20
1.23
1.04
0.79
0.65
0.73
1.04
1.47
1.80
1.88
1.61
1.06
0.41
-0.16
-0.52
-0.69
-0.74
-0.78
-0.82
-0.79
-0.60
-0.21
0.33
0.89
1.35
1.64
1.75
1.70
1.50
1.12
0.54
-0.15
-0.78
-1.13
-1.02
-0.44
0.40
1.17
1.53
1.32
0.61
-0.34
-1.14
-1.50
-1.32
-0.71
0.04
0.63
0.80
0.49
-0.23
-1.14
-1.97
-2.48
-2.48
-1.94
-0.97
0.19
1.21
1.81
1.81
1.23
0.24
-0.90
-1.93
-2.68
-3.07
-3.10
-2.82
-2.33
-1.77
-1.28
-1.05
-1.19
-1.73
-2.58
-3.52
-4.27
-4.61
-4.35
-3.40
-1.68
0.86
4.16
8.04
12.07
15.78
18.77
20.86
22.23
23.25
24.33
25.72
27.45
29.32
31.06
32.28
32.63
31.79
29.63
26.26
21.99
17.31
12.63
8.21
4.09
0.26
-3.27
-6.42
-9.11
-11.36
-13.35
-15.31
-17.43
-19.65
-21.66
-23.01
-23.36
-22.60
-20.99
-19.01
-17.18
-15.85
-15.13
-14.87
-14.82
-14.77
-14.61
-14.31
-13.89
-13.36
-12.71
-11.95
-11.08
-10.16
-9.24
-8.34
-7.44
-6.50
-5.50
-4.41
-3.21
-1.92
-0.61
0.57
1.48
2.00
2.10
1.90
1.56
1.26
1.07
1.03
1.07
1.13
1.15
1.11
0.99
0.78
0.49
0.13
-0.26
-0.58
-0.77
-0.77
-0.57
-0.23
0.17
0.55
0.86
1.08
1.22
1.31
1.37
1.41
1.45
1.48
1.50
1.47
1.39
1.29
1.21
1.22
1.33
1.51
1.67
1.69
1.53
1.24
0.90
0.61
0.37
0.09
-0.34
-0.95
-1.64
-2.22
-2.50
-2.38
-1.94
-1.33
-0.75
-0.30
0.03
0.26
0.45
0.58
0.61
0.50
0.28
-0.01
-0.27
-0.45
-0.54
-0.54
-0.46
-0.30
-0.09
0.16
0.39
0.57
0.68
0.70
0.60
0.37
0.02
-0.40
-0.78
-1.00
-1.01
-0.82
-0.54
-0.33
-0.27
-0.38
-0.62
-0.92
-1.21
-1.46
-1.65
-1.73
-1.64
-1.39
-1.00
-0.57
-0.21
0.02
0.11
0.11
0.08
0.05
0.07
0.12
0.22
0.35
0.50
0.64
0.72
0.70
0.58
0.38
0.15
-0.01
-0.05
0.06
0.31
0.62
0.89
1.02
0.96
0.71
0.32
-0.10
-0.43
-0.59
-0.54
-0.33
-0.03
0.26
0.47
0.54
0.48
0.32
0.12
-0.05
-0.14
-0.10
0.05
0.26
0.46
0.60
0.65
0.57
0.39
0.15
-0.07
-0.19
-0.19
-0.09
0.02
0.07
0.02
-0.12
-0.26
-0.32
-0.30
-0.18
-0.02
0.16
0.35
0.52
0.64
0.70
0.73
0.75
0.79
0.82
0.76
0.55
0.22
-0.13
-0.31
-0.18
0.21
0.67
0.92
0.82
0.37
-0.20
-0.66
-0.84
-0.75
-0.47
-0.16
0.10
0.30
0.44
0.53
0.57
0.53
0.41
0.24
0.03
-0.18
-0.37
-0.50
-0.50
-0.35
-0.05
0.30
0.56
0.65
0.54
0.32
0.08
-0.08
-0.16
-0.19
-0.20
-0.20
-0.17
-0.08
0.06
0.18
0.26
0.26
0.23
0.23
0.25
0.27
0.18
-0.07
-0.43
-0.79
-0.99
-0.93
-0.64
-0.25
0.11
0.34
0.47
0.58
0.75
0.95
1.04
0.93
0.56
0.04
-0.46
-0.78
-0.86
-0.75
-0.55
-0.39
-0.28
-0.22
-0.15
-0.09
-0.12
-0.37
-0.88
-1.57
-2.24
-2.67
-2.75
-2.50
-2.09
-1.70
-1.42
-1.21
-0.93
-0.47
0.16
0.80
1.24
1.33
1.09
0.68
0.32
0.15
0.17
0.24
0.19
-0.05
-0.41
-0.74
-0.86
-0.69
-0.30
0.14
0.48
0.61
0.54
0.38
0.22
0.15
0.15
0.20
0.28
0.41
0.58
0.78
0.96
1.06
1.06
0.96
0.83
0.72
0.68
0.69
0.67
0.58
0.43
0.29
0.23
0.33
0.57
0.87
1.13
1.28
1.29
1.16
0.94
0.66
0.36
0.06
-0.22
-0.42
-0.51
-0.44
-0.26
-0.03
0.15
0.23
0.18
0.03
-0.18
-0.39
-0.58
-0.74
-0.89
-1.03
-1.19
-1.35
-1.51
-1.63
-1.71
-1.72
-1.66
-1.55
-1.38
-1.16
-0.87
-0.46
0.06
0.65
1.20
1.56
1.63
1.39
0.94
0.46
0.12
-0.01
0.07
0.27
0.49
0.67
0.81
0.92
0.99
0.99
0.85
0.58
0.22
-0.11
-0.31
-0.34
-0.24
-0.07
0.10
0.28
0.50
0.78
1.05
1.19
1.08
0.69
0.12
-0.43
-0.77
-0.85
-0.70
-0.47
-0.28
-0.16
-0.10
-0.04
0.06
0.19
0.28
0.29
0.19
0.01
-0.16
-0.23
-0.12
0.18
0.59
0.95
1.10
0.95
0.54
0.04
-0.38
-0.57
-0.55
-0.39
-0.24
-0.19
-0.24
-0.31
-0.32
-0.20
0.01
0.28
0.55
0.77
0.92
0.98
0.91
0.69
0.33
-0.11
-0.53
-0.83
-0.93
-0.84
-0.62
-0.36
-0.11
0.10
0.25
0.30
0.20
-0.07
-0.48
-0.87
-1.05
-0.88
-0.36
0.36
1.06
1.53
1.70
1.64
1.50
1.37
1.28
1.16
0.95
0.65
0.32
0.03
-0.17
-0.32
-0.48
-0.66
-0.80
-0.82
-0.65
-0.32
0.07
0.37
0.49
0.39
0.14
-0.21
-0.57
-0.86
-1.07
-1.15
-1.10
-0.96
-0.78
-0.65
-0.62
-0.69
-0.78
-0.78
-0.60
-0.24
0.19
0.55
0.72
0.64
0.41
0.14
-0.04
-0.08
0.01
0.19
0.36
0.49
0.53
0.47
0.35
0.22
0.17
0.23
0.42
0.69
0.97
1.20
1.34
1.38
1.30
1.10
0.76
0.33
-0.14
-0.56
-0.89
-1.11
-1.26
-1.38
-1.45
-1.48
-1.44
-1.32
-1.14
-0.93
-0.76
-0.66
-0.71
-0.87
-1.08
-1.22
-1.15
-0.84
-0.33
0.21
0.62
0.84
0.89
0.86
0.84
0.83
0.77
0.64
0.47
0.37
0.47
0.76
1.17
1.48
1.53
1.21
0.61
-0.12
-0.77
-1.16
-1.18
-0.84
-0.25
0.42
0.98
1.29
1.27
0.99
0.62
0.33
0.24
0.34
0.53
0.62
0.53
0.21
-0.21
-0.60
-0.84
-0.90
-0.85
-0.78
-0.77
-0.83
-0.92
-0.98
-0.96
-0.88
-0.76
-0.66
-0.58
-0.50
-0.37
-0.15
0.19
0.61
1.04
1.40
1.61
1.65
1.54
1.27
0.89
0.44
-0.02
-0.43
-0.72
-0.86
-0.85
-0.76
-0.63
-0.50
-0.40
-0.31
-0.24
-0.18
-0.13
-0.09
-0.03
0.02
0.06
0.05
-0.02
-0.16
-0.36
-0.58
-0.74
-0.80
-0.69
-0.40
0.01
0.43
0.77
0.96
0.99
0.93
0.86
0.82
0.83
0.87
0.88
0.84
0.73
0.59
0.46
0.39
0.40
0.47
0.55
0.57
0.47
0.22
-0.15
-0.53
-0.81
-0.91
-0.85
-0.65
-0.39
-0.14
0.04
0.12
0.08
-0.06
-0.25
-0.46
-0.64
-0.82
-1.02
-1.24
-1.48
-1.67
-1.68
-1.43
-0.92
-0.24
0.42
0.86
1.02
0.97
0.85
0.81
0.91
1.06
1.10
0.93
0.57
0.15
-0.10
-0.08
0.19
0.53
0.75
0.75
0.59
0.42
0.34
0.40
0.49
0.49
0.33
0.06
-0.20
-0.31
-0.20
0.07
0.35
0.48
0.38
0.06
-0.35
-0.69
-0.80
-0.64
-0.25
0.22
0.61
0.82
0.84
0.74
0.60
0.44
0.27
0.04
-0.28
-0.65
-0.99
-1.22
-1.29
-1.20
-1.04
-0.89
-0.82
-0.83
-0.87
-0.87
-0.80
-0.67
-0.54
-0.49
-0.50
-0.56
-0.58
-0.52
-0.36
-0.16
0.03
0.20
0.40
0.65
0.97
1.28
1.51
1.55
1.39
1.05
0.61
0.17
-0.20
-0.44
-0.56
-0.54
-0.43
-0.24
-0.02
0.20
0.40
0.53
0.58
0.52
0.37
0.21
0.12
0.14
0.30
0.50
0.66
0.66
0.50
0.23
-0.08
-0.34
-0.58
-0.81
-1.04
-1.26
-1.38
-1.32
-1.06
-0.64
-0.16
0.24
0.48
0.55
0.49
0.37
0.26
0.21
0.21
0.23
0.22
0.18
0.15
0.18
0.27
0.40
0.46
0.41
0.24
0.03
-0.12
-0.17
-0.17
-0.21
-0.35
-0.59
-0.82
-0.90
-0.79
-0.55
-0.30
-0.18
-0.26
-0.50
-0.78
-0.96
-0.98
-0.80
-0.47
-0.10
0.16
0.23
0.08
-0.23
-0.57
-0.78
-0.75
-0.42
0.14
0.82
1.42
1.77
1.74
1.36
0.73
0.05
-0.44
-0.63
-0.49
-0.13
0.35
0.81
1.18
1.36
1.29
0.93
0.34
-0.31
-0.81
-1.00
-0.82
-0.38
0.12
0.49
0.66
0.62
0.48
0.32
0.23
0.21
0.29
0.43
0.60
0.74
0.79
0.74
0.60
0.42
0.29
0.23
0.25
0.28
0.26
0.15
-0.01
-0.12
-0.09
0.04
0.20
0.26
0.16
-0.09
-0.40
-0.63
-0.71
-0.64
-0.50
-0.37
-0.27
-0.18
-0.06
0.11
0.30
0.44
0.46
0.35
0.10
-0.27
-0.69
-1.07
-1.29
-1.25
-0.92
-0.38
0.19
0.61
0.74
0.57
0.24
-0.08
-0.22
-0.11
0.18
0.55
0.86
1.05
1.09
0.99
0.80
0.61
0.47
0.41
0.42
0.40
0.30
0.06
-0.26
-0.60
-0.84
-0.97
-0.98
-0.95
-0.94
-0.99
-1.11
-1.29
-1.49
-1.67
-1.75
-1.65
-1.31
-0.76
-0.12
0.46
0.85
1.00
0.94
0.80
0.69
0.66
0.69
0.74
0.74
0.69
0.63
0.59
0.58
0.59
0.58
0.52
0.40
0.26
0.11
-0.01
-0.11
-0.19
-0.26
-0.31
-0.32
-0.26
-0.12
0.07
0.29
0.45
0.51
0.43
0.23
-0.04
-0.32
-0.54
-0.66
-0.66
-0.53
-0.31
-0.04
0.21
0.38
0.41
0.33
0.20
0.15
0.25
0.52
0.87
1.13
1.19
0.99
0.61
0.21
-0.07
-0.18
-0.17
-0.17
-0.23
-0.34
-0.41
-0.34
-0.12
0.15
0.33
0.33
0.17
-0.05
-0.23
-0.35
-0.43
-0.56
-0.76
-0.96
-1.05
-0.93
-0.63
-0.27
-0.03
-0.02
-0.24
-0.57
-0.82
-0.88
-0.73
-0.45
-0.19
-0.05
-0.07
-0.17
-0.29
-0.36
-0.37
-0.36
-0.35
-0.35
-0.28
-0.09
0.25
0.71
1.19
1.56
1.77
1.79
1.69
1.54
1.40
1.26
1.08
0.78
0.40
-0.00
-0.32
-0.47
-0.48
-0.41
-0.32
-0.26
-0.23
-0.24
-0.33
-0.56
-0.92
-1.30
-1.51
-1.41
-0.97
-0.33
0.27
0.65
0.73
0.61
0.40
0.21
0.05
-0.12
-0.32
-0.52
-0.63
-0.58
-0.34
0.04
0.48
0.87
1.14
1.23
1.12
0.79
0.31
-0.24
-0.74
-1.08
-1.23
-1.22
-1.10
-0.96
-0.82
-0.66
-0.44
-0.13
0.23
0.54
0.68
0.57
0.25
-0.20
-0.60
-0.85
-0.85
-0.62
-0.18
0.38
0.96
1.47
1.78
1.82
1.56
1.08
0.52
0.01
-0.31
-0.41
-0.30
-0.03
0.34
0.73
1.08
1.28
1.29
1.13
0.83
0.45
0.04
-0.36
-0.70
-0.93
-0.97
-0.81
-0.49
-0.15
0.08
0.09
-0.09
-0.36
-0.57
-0.64
-0.58
-0.48
-0.45
-0.55
-0.78
-1.04
-1.23
-1.28
-1.18
-0.96
-0.70
-0.51
-0.41
-0.38
-0.36
-0.25
-0.00
0.38
0.81
1.17
1.33
1.25
0.97
0.60
0.29
0.16
0.28
0.59
0.99
1.32
1.47
1.36
1.03
0.59
0.14
-0.22
-0.51
-0.73
-0.93
-1.08
-1.11
-0.99
-0.71
-0.36
-0.04
0.16
0.22
0.20
0.18
0.20
0.26
0.27
0.16
-0.11
-0.48
-0.80
-0.97
-0.91
-0.69
-0.46
-0.36
-0.48
-0.77
-1.08
-1.29
-1.36
-1.32
-1.21
-1.06
-0.81
-0.40
0.17
0.81
1.34
1.60
1.55
1.26
0.90
0.60
0.46
0.45
0.50
0.57
0.63
0.70
0.78
0.87
0.92
0.90
0.78
0.60
0.43
0.34
0.36
0.51
0.69
0.77
0.62
0.20
-0.42
-1.04
-1.46
-1.57
-1.40
-1.07
-0.79
-0.66
-0.67
-0.76
-0.82
-0.85
-0.87
-0.93
-1.02
-1.06
-0.94
-0.60
-0.06
0.57
1.13
1.49
1.59
1.48
1.28
1.10
1.01
1.03
1.09
1.13
1.09
0.97
0.82
0.68
0.60
0.56
0.49
0.37
0.21
0.05
-0.03
-0.02
0.07
0.18
0.20
0.08
-0.21
-0.62
-1.07
-1.44
-1.65
-1.66
-1.49
-1.21
-0.87
-0.51
-0.13
0.25
0.58
0.78
0.76
0.46
-0.03
-0.55
-0.90
-0.94
-0.66
-0.16
0.40
0.85
1.09
1.12
1.01
0.85
0.71
0.57
0.38
0.12
-0.20
-0.50
-0.68
-0.65
-0.40
-0.01
0.41
0.75
0.94
0.97
0.86
0.64
0.33
-0.04
-0.44
-0.83
-1.15
-1.33
-1.33
-1.14
-0.78
-0.32
0.14
0.49
0.64
0.54
0.19
-0.35
-0.93
-1.39
-1.61
-1.55
-1.23
-0.79
-0.33
0.06
0.36
0.59
0.76
0.80
0.65
0.30
-0.20
-0.69
-1.00
-1.03
-0.75
-0.26
0.28
0.72
0.96
0.96
0.75
0.41
0.02
-0.35
-0.63
-0.78
-0.76
-0.58
-0.25
0.16
0.56
0.83
0.91
0.82
0.60
0.38
0.22
0.13
0.06
-0.01
-0.08
-0.08
0.04
0.30
0.66
1.03
1.29
1.41
1.40
1.33
1.25
1.18
1.10
0.97
0.73
0.36
-0.11
-0.60
-1.01
-1.23
-1.24
-1.05
-0.74
-0.35
0.06
0.45
0.73
0.82
0.64
0.21
-0.35
-0.86
-1.18
-1.26
-1.11
-0.84
-0.50
-0.12
0.29
0.65
0.83
0.75
0.42
-0.06
-0.50
-0.80
-0.96
-1.05
-1.13
-1.14
-0.98
-0.55
0.13
0.92
1.56
1.86
1.72
1.19
0.43
-0.34
-0.91
-1.14
-1.00
-0.60
-0.14
0.23
0.42
0.50
0.59
0.77
1.02
1.19
1.13
0.78
0.20
-0.46
-1.04
-1.47
-1.74
-1.87
-1.85
-1.65
-1.24
-0.64
0.05
0.67
1.09
1.21
1.06
0.71
0.28
-0.13
-0.44
-0.62
-0.66
-0.54
-0.27
0.12
0.55
0.95
1.22
1.33
1.30
1.18
1.03
0.89
0.74
0.55
0.31
0.05
-0.14
-0.24
-0.21
-0.11
0.02
0.12
0.22
0.33
0.48
0.66
0.82
0.91
0.87
0.73
0.49
0.21
-0.10
-0.44
-0.80
-1.13
-1.39
-1.53
-1.54
-1.45
-1.30
-1.14
-0.98
-0.80
-0.62
-0.44
-0.29
-0.21
-0.21
-0.25
-0.30
-0.32
-0.28
-0.16
0.07
0.43
0.87
1.30
1.59
1.67
1.50
1.16
0.74
0.37
0.13
0.01
-0.02
-0.00
0.03
0.03
-0.01
-0.12
-0.26
-0.37
-0.38
-0.27
-0.06
0.15
0.29
0.31
0.23
0.08
-0.09
-0.26
-0.43
-0.57
-0.64
-0.58
-0.38
-0.10
0.17
0.31
0.30
0.15
-0.07
-0.28
-0.43
-0.50
-0.49
-0.40
-0.24
-0.01
0.23
0.42
0.50
0.44
0.24
-0.04
-0.32
-0.55
-0.66
-0.62
-0.40
0.00
0.53
1.10
1.59
1.92
2.03
1.95
1.76
1.54
1.36
1.23
1.10
0.93
0.69
0.40
0.11
-0.14
-0.33
-0.48
-0.61
-0.76
-0.98
-1.30
-1.70
-2.10
-2.41
-2.52
-2.36
-1.92
-1.32
-0.72
-0.27
-0.07
-0.09
-0.19
-0.24
-0.11
0.17
0.49
0.70
0.71
0.53
0.29
0.11
0.06
0.11
0.15
0.10
-0.06
-0.24
-0.32
-0.24
0.00
0.29
0.52
0.59
0.51
0.31
0.08
-0.15
-0.33
-0.45
-0.51
-0.50
-0.43
-0.30
-0.10
0.16
0.47
0.82
1.12
1.32
1.35
1.22
1.00
0.76
0.57
0.44
0.35
0.26
0.17
0.07
-0.01
-0.07
-0.12
-0.17
-0.20
-0.21
-0.19
-0.17
-0.20
-0.35
-0.59
-0.86
-1.06
-1.13
-1.06
-0.91
-0.80
-0.74
-0.72
-0.62
-0.40
-0.05
0.38
0.77
1.04
1.14
1.11
0.98
0.79
0.56
0.27
-0.04
-0.34
-0.55
-0.60
-0.50
-0.32
-0.16
-0.13
-0.25
-0.49
-0.71
-0.80
-0.66
-0.25
0.33
0.94
1.40
1.55
1.36
0.89
0.28
-0.25
-0.55
-0.59
-0.42
-0.19
-0.02
0.04
0.02
-0.00
0.03
0.12
0.18
0.14
-0.03
-0.31
-0.58
-0.74
-0.71
-0.50
-0.18
0.15
0.42
0.57
0.60
0.50
0.30
0.06
-0.15
-0.25
-0.19
0.04
0.38
0.76
1.08
1.28
1.34
1.27
1.11
0.93
0.80
0.75
0.81
0.89
0.90
0.74
0.36
-0.16
-0.63
-0.89
-0.83
-0.47
0.01
0.44
0.66
0.61
0.33
-0.07
-0.48
-0.81
-0.99
-0.99
-0.84
-0.58
-0.27
0.00
0.16
0.19
0.11
-0.02
-0.11
-0.14
-0.09
-0.00
0.09
0.19
0.27
0.33
0.35
0.31
0.20
-0.03
-0.36
-0.78
-1.22
-1.59
-1.77
-1.69
-1.33
-0.74
-0.08
0.47
0.76
0.73
0.45
0.06
-0.29
-0.51
-0.57
-0.55
-0.55
-0.62
-0.79
-0.98
-1.11
-1.06
-0.81
-0.37
0.17
0.68
1.05
1.21
1.16
0.96
0.72
0.54
0.47
0.51
0.62
0.74
0.85
0.95
1.07
1.19
1.26
1.21
0.99
0.62
0.19
-0.15
-0.27
-0.13
0.21
0.58
0.78
0.67
0.24
-0.38
-0.96
-1.30
-1.29
-0.99
-0.56
-0.21
-0.08
-0.17
-0.38
-0.57
-0.65
-0.59
-0.44
-0.27
-0.10
0.06
0.25
0.46
0.64
0.71
0.63
0.39
0.08
-0.18
-0.29
-0.21
0.02
0.31
0.55
0.67
0.66
0.54
0.38
0.23
0.12
0.03
-0.08
-0.18
-0.26
-0.27
-0.21
-0.09
0.00
0.02
-0.05
-0.16
-0.25
-0.30
-0.34
-0.44
-0.63
-0.85
-0.99
-0.94
-0.66
-0.26
0.10
0.28
0.24
0.04
-0.15
-0.23
-0.17
-0.05
0.06
0.09
0.08
0.11
0.23
0.43
0.60
0.61
0.42
0.05
-0.34
-0.63
-0.73
-0.67
-0.57
-0.54
-0.66
-0.92
-1.22
-1.45
-1.52
-1.40
-1.12
-0.74
-0.33
0.06
0.44
0.80
1.14
1.40
1.51
1.44
1.20
0.90
0.69
0.70
0.95
1.37
1.77
2.00
1.92
1.57
1.04
0.48
0.00
-0.34
-0.57
-0.71
-0.79
-0.81
-0.74
-0.58
-0.34
-0.07
0.18
0.38
0.53
0.65
0.79
0.94
1.04
0.98
0.69
0.16
-0.54
-1.23
-1.74
-1.95
-1.87
-1.60
-1.31
-1.11
-1.04
-1.05
-1.06
-1.01
-0.92
-0.84
-0.81
-0.84
-0.91
-0.93
-0.86
-0.70
-0.49
-0.34
-0.31
-0.39
-0.50
-0.48
-0.19
0.42
1.29
2.23
3.00
3.45
3.55
3.37
3.00
2.56
2.05
1.51
0.98
0.54
0.28
0.22
0.30
0.38
0.36
0.16
-0.17
-0.53
-0.82
-0.98
-1.01
-0.97
-0.93
-0.95
-1.09
-1.35
-1.70
-2.04
-2.24
-2.17
-1.81
-1.22
-0.55
0.06
0.51
0.82
1.03
1.23
1.41
1.57
1.62
1.52
1.25
0.86
0.42
0.04
-0.18
-0.22
-0.10
0.10
0.27
0.33
0.26
0.14
0.06
0.07
0.14
0.17
0.08
-0.17
-0.53
-0.92
-1.27
-1.51
-1.62
-1.59
-1.41
-1.11
-0.74
-0.40
-0.19
-0.14
-0.26
-0.47
-0.68
-0.85
-0.94
-0.92
-0.75
-0.43
0.04
0.57
1.04
1.34
1.41
1.29
1.09
0.92
0.85
0.89
1.01
1.12
1.17
1.13
0.98
0.73
0.45
0.21
0.07
0.05
0.13
0.25
0.35
0.39
0.38
0.32
0.23
0.08
-0.14
-0.40
-0.66
-0.87
-1.00
-1.01
-0.92
-0.78
-0.62
-0.47
-0.34
-0.24
-0.15
-0.06
0.03
0.09
0.13
0.14
0.14
0.19
0.31
0.54
0.83
1.09
1.22
1.14
0.89
0.55
0.26
0.13
0.17
0.30
0.37
0.28
0.01
-0.34
-0.65
-0.80
-0.81
-0.76
-0.77
-0.90
-1.12
-1.35
-1.48
-1.46
-1.33
-1.13
-0.95
-0.83
-0.75
-0.69
-0.62
-0.54
-0.50
-0.55
-0.68
-0.84
-0.93
-0.85
-0.56
-0.09
0.47
1.01
1.45
1.77
1.96
2.04
2.01
1.87
1.64
1.35
1.04
0.75
0.50
0.30
0.14
0.03
-0.04
-0.08
-0.10
-0.13
-0.21
-0.36
-0.58
-0.83
-1.06
-1.19
-1.19
-1.08
-0.88
-0.67
-0.49
-0.38
-0.34
-0.35
-0.35
-0.27
-0.05
0.37
0.95
1.61
2.21
2.60
2.69
2.48
2.04
1.46
0.84
0.21
-0.35
-0.77
-0.96
-0.85
-0.46
0.11
0.68
1.09
1.23
1.11
0.83
0.50
0.20
-0.07
-0.36
-0.71
-1.13
-1.58
-1.97
-2.20
-2.23
-2.07
-1.76
-1.39
-1.02
-0.66
-0.32
-0.01
0.24
0.39
0.44
0.41
0.39
0.45
0.60
0.83
1.05
1.21
1.24
1.17
1.01
0.81
0.58
0.34
0.10
-0.07
-0.09
0.08
0.43
0.79
0.96
0.76
0.15
-0.73
-1.59
-2.17
-2.31
-2.03
-1.52
-0.99
-0.55
-0.23
0.00
0.17
0.25
0.19
-0.03
-0.33
-0.58
-0.60
-0.32
0.19
0.77
1.23
1.42
1.33
1.05
0.72
0.48
0.36
0.35
0.37
0.34
0.25
0.12
0.01
-0.02
0.04
0.13
0.20
0.21
0.17
0.15
0.22
0.38
0.57
0.72
0.72
0.57
0.31
0.02
-0.21
-0.35
-0.41
-0.42
-0.41
-0.37
-0.27
-0.04
0.32
0.73
1.06
1.13
0.85
0.24
-0.51
-1.14
-1.47
-1.43
-1.15
-0.85
-0.72
-0.81
-1.08
-1.38
-1.57
-1.60
-1.50
-1.33
-1.13
-0.94
-0.74
-0.54
-0.32
-0.10
0.16
0.45
0.75
1.01
1.18
1.24
1.21
1.13
1.06
1.01
0.92
0.75
0.50
0.26
0.12
0.18
0.43
0.75
1.00
1.10
1.06
0.95
0.85
0.79
0.73
0.59
0.34
-0.03
-0.43
-0.79
-1.07
-1.23
-1.28
-1.20
-1.02
-0.74
-0.41
-0.06
0.26
0.55
0.80
1.00
1.14
1.15
1.03
0.75
0.37
-0.06
-0.42
-0.65
-0.70
-0.57
-0.32
-0.00
0.31
0.57
0.75
0.87
0.94
0.93
0.84
0.64
0.35
0.04
-0.22
-0.34
-0.35
-0.31
-0.32
-0.44
-0.66
-0.87
-0.94
-0.77
-0.41
0.04
0.42
0.58
0.49
0.21
-0.17
-0.52
-0.76
-0.84
-0.80
-0.67
-0.53
-0.40
-0.29
-0.20
-0.11
-0.02
0.05
0.12
0.20
0.33
0.52
0.76
0.97
1.06
1.00
0.80
0.56
0.38
0.35
0.43
0.55
0.61
0.52
0.29
-0.01
-0.29
-0.46
-0.49
-0.37
-0.15
0.09
0.26
0.30
0.19
-0.03
-0.27
-0.43
-0.47
-0.41
-0.36
-0.43
-0.66
-0.98
-1.26
-1.35
-1.20
-0.86
-0.48
-0.23
-0.18
-0.30
-0.50
-0.65
-0.68
-0.58
-0.34
-0.00
0.39
0.75
0.96
0.96
0.72
0.32
-0.15
-0.58
-0.90
-1.06
-1.08
-0.93
-0.63
-0.21
0.26
0.67
0.96
1.06
0.99
0.77
0.43
-0.01
-0.50
-0.96
-1.26
-1.29
-1.01
-0.45
0.25
0.91
1.39
1.61
1.57
1.34
1.00
0.64
0.30
0.04
-0.12
-0.15
-0.04
0.16
0.37
0.50
0.52
0.46
0.39
0.40
0.49
0.62
0.67
0.58
0.37
0.14
-0.03
-0.10
-0.13
-0.26
-0.55
-1.01
-1.49
-1.84
-1.96
-1.85
-1.60
-1.32
-1.06
-0.83
-0.59
-0.34
-0.13
-0.04
-0.13
-0.42
-0.83
-1.23
-1.52
-1.65
-1.65
-1.60
-1.56
-1.58
-1.68
-1.86
-2.14
-2.49
-2.88
-3.20
-3.33
-3.10
-2.37
-1.07
0.80
3.05
5.31
7.10
7.97
7.71
6.41
4.49
2.48
0.82
-0.31
-0.96
-1.33
-1.52
-1.53
-1.26
-0.63
0.34
1.48
2.56
3.37
3.79
3.84
3.63
3.33
3.07
2.94
2.90
2.86
2.72
2.44
2.04
1.61
1.26
1.02
0.89
0.77
0.60
0.34
0.02
-0.24
-0.30
-0.08
0.46
1.20
1.97
2.53
2.66
2.27
1.39
0.22
-0.94
-1.77
-2.10
-1.89
-1.29
-0.57
0.02
0.33
0.36
0.23
0.09
0.11
0.35
0.76
1.21
1.46
1.29
0.48
-1.00
-2.95
-4.99
-6.76
-8.05
-9.00
-9.95
-11.27
-13.07
-15.18
-17.09
-18.29
-18.38
-17.22
-14.93
-11.76
-8.01
-3.98
-0.00
3.61
6.57
8.71
10.01
10.54
10.47
9.94
9.10
8.05
6.85
5.48
3.92
2.15
0.24
-1.60
-3.08
-3.87
-3.75
-2.70
-0.88
1.38
3.62
5.36
6.22
6.01
4.81
3.03
1.21
-0.10
-0.57
-0.19
0.77
1.93
2.92
3.57
3.83
3.76
3.42
2.90
2.29
1.72
1.30
1.08
1.03
1.10
1.19
1.26
1.32
1.37
1.43
1.47
1.49
1.48
1.45
1.40
1.34
1.27
1.20
1.11
1.00
0.84
0.58
0.21
-0.24
-0.67
-0.95
-0.99
-0.80
-0.50
-0.24
-0.14
-0.22
-0.37
-0.44
-0.35
-0.10
0.19
0.35
0.30
0.07
-0.23
-0.43
-0.49
-0.46
-0.44
-0.49
-0.55
-0.46
-0.10
0.53
1.25
1.74
1.73
1.09
-0.05
-1.38
-2.56
-3.31
-3.52
-3.21
-2.47
-1.46
-0.33
0.75
1.58
2.03
2.02
1.61
0.95
0.21
-0.46
-0.98
-1.33
-1.49
-1.44
-1.16
-0.66
0.02
0.76
1.41
1.85
1.99
1.79
1.29
0.59
-0.17
-0.82
-1.21
-1.23
-0.90
-0.31
0.38
1.01
1.48
1.70
1.69
1.46
1.06
0.56
0.05
-0.39
-0.68
-0.80
-0.73
-0.50
-0.16
0.23
0.59
0.84
0.93
0.87
0.68
0.46
0.27
0.14
0.06
-0.02
-0.15
-0.33
-0.56
-0.77
-0.95
-1.06
-1.10
-1.05
-0.92
-0.70
-0.38
-0.02
0.32
0.53
0.56
0.41
0.14
-0.16
-0.40
-0.59
-0.78
-1.06
-1.51
-2.09
-2.74
-3.32
-3.69
-3.78
-3.58
-3.12
-2.51
-1.80
-1.08
-0.42
0.14
0.51
0.65
0.53
0.21
-0.15
-0.35
-0.19
0.35
1.11
1.81
2.14
1.94
1.30
0.45
-0.33
-0.88
-1.22
-1.49
-1.78
-2.08
-2.22
-2.06
-1.56
-0.91
-0.45
-0.54
-1.33
-2.75
-4.44
-6.02
-7.17
-7.78
-7.90
-7.69
-7.23
-6.56
-5.71
-4.77
-3.86
-3.09
-2.47
-1.88
-1.12
-0.09
1.16
2.43
3.45
4.03
4.11
3.76
3.11
2.29
1.40
0.60
0.00
-0.25
-0.10
0.39
1.06
1.70
2.14
2.27
2.13
1.86
1.64
1.68
2.13
3.02
4.24
5.59
6.81
7.65
8.02
7.92
7.48
6.88
6.27
5.75
5.37
5.12
4.98
4.88
4.73
4.43
3.88
3.10
2.21
1.41
0.89
0.77
1.00
1.39
1.75
1.93
1.88
1.66
1.35
1.02
0.65
0.18
-0.39
-1.05
-1.72
-2.33
-2.83
-3.26
-3.67
-4.11
-4.60
-5.00
-5.11
-4.72
-3.73
-2.26
-0.62
0.82
1.78
2.22
2.30
2.27
2.34
2.59
2.98
3.44
3.93
4.41
4.82
5.07
5.01
4.61
3.89
2.97
1.94
0.88
-0.21
-1.31
-2.33
-3.15
-3.70
-3.99
-4.14
-4.34
-4.70
-5.23
-5.75
-6.07
-6.01
-5.54
-4.72
-3.69
-2.61
-1.61
-0.78
-0.20
0.08
0.04
-0.27
-0.69
-0.95
-0.76
0.10
1.62
3.51
5.26
6.30
6.29
5.22
3.44
1.48
-0.16
-1.19
-1.64
-1.70
-1.58
-1.41
-1.17
-0.78
-0.23
0.41
0.96
1.23
1.15
0.74
0.08
-0.71
-1.52
-2.26
-2.81
-3.04
-2.85
-2.22
-1.20
0.04
1.29
2.38
3.20
3.67
3.74
3.38
2.59
1.46
0.15
-1.11
-2.13
-2.76
-2.96
-2.76
-2.22
-1.42
-0.46
0.49
1.24
1.61
1.47
0.78
-0.36
-1.75
-3.10
-4.14
-4.65
-4.51
-3.73
-2.48
-0.98
0.47
1.63
2.31
2.45
2.08
1.32
0.33
-0.72
-1.66
-2.34
-2.61
-2.38
-1.65
-0.56
0.64
1.66
2.25
2.30
1.86
1.12
0.27
-0.50
-1.05
-1.28
-1.14
-0.64
0.15
1.04
1.79
2.21
2.20
1.79
1.07
0.17
-0.80
-1.71
-2.38
-2.63
-2.28
-1.33
0.06
1.55
2.74
3.28
3.03
2.07
0.65
-0.85
-2.04
-2.69
-2.66
-2.03
-0.96
0.29
1.48
2.40
2.88
2.82
2.19
1.10
-0.27
-1.60
-2.56
-2.89
-2.46
-1.38
0.11
1.66
2.94
3.68
3.73
3.11
1.96
0.52
-0.92
-2.09
-2.78
-2.86
-2.31
-1.27
0.04
1.32
2.27
2.68
2.55
2.02
1.35
0.75
0.36
0.19
0.20
0.35
0.58
0.88
1.14
1.26
1.10
0.61
-0.15
-1.05
-1.90
-2.53
-2.85
-2.82
-2.47
-1.90
-1.27
-0.73
-0.41
-0.35
-0.46
-0.60
-0.59
-0.36
0.06
0.54
0.93
1.13
1.10
0.89
0.58
0.27
0.04
-0.07
-0.07
-0.02
0.00
-0.07
-0.27
-0.54
-0.80
-0.97
-0.93
-0.65
-0.15
0.42
0.83
0.81
0.14
-1.17
-2.86
-4.38
-5.11
-4.61
-2.86
-0.39
1.96
3.34
3.32
1.99
-0.07
-2.18
-3.85
-5.01
-5.91
-6.88
-8.07
-9.35
-10.41
-10.93
-10.71
-9.65
-7.64
-4.51
-0.18
5.13
10.72
15.52
18.35
18.43
15.71
10.98
5.52
0.59
-3.01
-5.06
-5.86
-5.85
-5.33
-4.42
-3.13
-1.54
0.10
1.49
2.45
3.10
3.82
5.06
7.00
9.39
11.61
12.83
12.47
10.36
6.84
2.62
-1.50
-4.88
-7.17
-8.33
-8.55
-8.10
-7.23
-6.10
-4.79
-3.33
-1.74
-0.02
1.79
3.67
5.54
7.25
8.56
9.19
8.93
7.67
5.55
2.89
0.13
-2.34
-4.30
-5.70
-6.64
-7.24
-7.58
-7.63
-7.31
-6.50
-5.18
-3.42
-1.36
0.80
2.86
4.61
5.89
6.57
6.55
5.81
4.40
2.51
0.34
-1.87
-3.90
-5.56
-6.73
-7.31
-7.22
-6.43
-4.91
-2.73
-0.04
2.90
5.75
8.10
9.54
9.75
8.61
6.23
2.99
-0.56
-3.80
-6.24
-7.59
-7.80
-6.98
-5.33
-3.07
-0.42
2.36
4.94
6.93
8.02
8.03
6.98
5.05
2.58
-0.09
-2.60
-4.60
-5.82
-6.08
-5.40
-3.97
-2.12
-0.15
1.66
3.16
4.23
4.78
4.70
3.93
2.50
0.58
-1.59
-3.67
-5.36
-6.42
-6.64
-5.96
-4.42
-2.20
0.33
2.74
4.61
5.62
5.67
4.83
3.38
1.63
-0.07
-1.44
-2.29
-2.55
-2.25
-1.54
-0.58
0.43
1.35
2.08
2.53
2.61
2.23
1.36
0.06
-1.42
-2.74
-3.59
-3.79
-3.34
-2.42
-1.29
-0.16
0.82
1.58
2.02
2.07
1.67
0.85
-0.24
-1.33
-2.14
-2.43
-2.11
-1.25
-0.07
1.15
2.13
2.68
2.74
2.35
1.63
0.74
-0.17
-0.93
-1.40
-1.51
-1.27
-0.73
-0.03
0.72
1.39
1.88
2.12
2.00
1.48
0.57
-0.60
-1.82
-2.84
-3.42
-3.45
-2.94
-2.01
-0.87
0.23
1.08
1.55
1.65
1.43
0.97
0.38
-0.26
-0.83
-1.22
-1.33
-1.12
-0.62
0.05
0.75
1.33
1.68
1.76
1.57
1.16
0.63
0.10
-0.32
-0.55
-0.59
-0.48
-0.29
-0.06
0.16
0.32
0.39
0.30
0.05
-0.32
-0.73
-1.07
-1.24
-1.19
-0.92
-0.47
0.06
0.55
0.87
0.99
0.92
0.71
0.45
0.21
0.01
-0.13
-0.19
-0.13
0.06
0.36
0.67
0.86
0.85
0.61
0.24
-0.13
-0.39
-0.49
-0.48
-0.44
-0.43
-0.44
-0.40
-0.21
0.15
0.62
1.05
1.26
1.17
0.79
0.24
-0.29
-0.65
-0.78
-0.72
-0.57
-0.43
-0.33
-0.25
-0.16
-0.01
0.20
0.41
0.57
0.65
0.66
0.64
0.62
0.58
0.51
0.41
0.27
0.13
0.03
-0.03
-0.08
-0.15
-0.25
-0.33
-0.29
-0.07
0.32
0.75
1.00
0.90
0.42
-0.29
-0.96
-1.34
-1.30
-0.90
-0.38
-0.01
0.07
-0.12
-0.41
-0.59
-0.53
-0.28
0.04
0.25
0.28
0.15
-0.03
-0.13
-0.06
0.16
0.48
0.79
1.01
1.10
1.05
0.90
0.70
0.50
0.34
0.22
0.13
0.03
-0.09
-0.23
-0.35
-0.44
-0.49
-0.52
-0.54
-0.55
-0.53
-0.44
-0.31
-0.19
-0.18
-0.32
-0.57
-0.85
-1.03
-1.04
-0.93
-0.76
-0.63
-0.54
-0.42
-0.22
0.08
0.42
0.67
0.74
0.62
0.42
0.24
0.18
0.26
0.41
0.53
0.57
0.52
0.43
0.36
0.34
0.36
0.38
0.37
0.33
0.30
0.32
0.40
0.49
0.48
0.33
0.05
-0.26
-0.45
-0.44
-0.22
0.12
0.43
0.56
0.47
0.13
-0.36
-0.87
-1.29
-1.50
-1.51
-1.38
-1.25
-1.22
-1.28
-1.36
-1.36
-1.24
-1.08
-1.02
-1.17
-1.52
-1.93
-2.24
-2.29
-2.08
-1.72
-1.35
-1.06
-0.81
-0.52
-0.10
0.47
1.13
1.78
2.33
2.74
2.99
3.06
2.98
2.76
2.47
2.18
1.96
1.87
1.90
2.00
2.11
2.17
2.16
2.06
1.88
1.62
1.28
0.88
0.42
-0.08
-0.59
-1.03
-1.30
-1.34
-1.14
-0.79
-0.46
-0.30
-0.35
-0.54
-0.73
-0.79
-0.69
-0.49
-0.32
-0.27
-0.35
-0.46
-0.52
-0.45
-0.30
-0.17
-0.15
-0.28
-0.51
-0.74
-0.88
-0.90
-0.80
-0.66
-0.54
-0.46
-0.42
-0.38
-0.34
-0.32
-0.38
-0.54
-0.77
-0.98
-1.06
-0.95
-0.69
-0.42
-0.25
-0.29
-0.50
-0.76
-0.91
-0.82
-0.46
0.06
0.55
0.85
0.89
0.70
0.42
0.18
0.06
0.08
0.16
0.23
0.24
0.16
0.01
-0.18
-0.42
-0.70
-1.02
-1.31
-1.49
-1.53
-1.41
-1.20
-0.98
-0.83
-0.75
-0.74
-0.76
-0.80
-0.86
-0.92
-0.93
-0.83
-0.59
-0.23
0.17
0.49
0.70
0.83
0.99
1.29
1.73
2.26
2.74
3.07
3.19
3.12
2.89
2.52
2.05
1.51
0.96
0.43
-0.04
-0.43
-0.76
-1.05
-1.34
-1.63
-1.88
-2.05
-2.06
-1.84
-1.37
-0.70
0.03
0.67
1.07
1.15
0.97
0.63
0.29
0.05
-0.03
0.04
0.20
0.38
0.56
0.69
0.77
0.77
0.65
0.39
0.04
-0.33
-0.54
-0.46
-0.05
0.57
1.19
1.59
1.64
1.40
1.03
0.76
0.67
0.72
0.79
0.81
0.78
0.80
0.99
1.35
1.75
2.02
2.03
1.78
1.43
1.17
1.11
1.24
1.42
1.50
1.40
1.12
0.76
0.41
0.16
0.01
-0.09
-0.18
-0.30
-0.42
-0.53
-0.61
-0.67
-0.76
-0.92
-1.17
-1.46
-1.69
-1.76
-1.61
-1.31
-1.00
-0.80
-0.80
-1.00
-1.32
-1.69
-2.06
-2.36
-2.51
-2.43
-2.06
-1.45
-0.78
-0.28
-0.09
-0.21
-0.46
-0.63
-0.57
-0.31
0.01
0.24
0.31
0.29
0.27
0.33
0.48
0.61
0.62
0.48
0.20
-0.10
-0.33
-0.44
-0.44
-0.39
-0.34
-0.32
-0.33
-0.36
-0.40
-0.48
-0.59
-0.70
-0.75
-0.69
-0.54
-0.39
-0.35
-0.47
-0.68
-0.85
-0.84
-0.60
-0.21
0.17
0.40
0.43
0.35
0.28
0.33
0.52
0.80
1.08
1.28
1.38
1.37
1.28
1.12
0.90
0.62
0.29
-0.05
-0.33
-0.51
-0.58
-0.59
-0.58
-0.59
-0.60
-0.54
-0.38
-0.10
0.24
0.57
0.84
1.05
1.21
1.35
1.43
1.37
1.11
0.69
0.23
-0.13
-0.25
-0.14
0.12
0.39
0.58
0.67
0.71
0.72
0.72
0.67
0.55
0.35
0.12
-0.09
-0.26
-0.36
-0.38
-0.33
-0.21
-0.05
0.08
0.08
-0.11
-0.51
-1.04
-1.59
-2.06
-2.38
-2.52
-2.50
-2.30
-1.93
-1.41
-0.79
-0.11
0.55
1.17
1.69
2.05
2.20
2.07
1.67
1.06
0.38
-0.22
-0.63
-0.79
-0.70
-0.41
-0.02
0.42
0.85
1.20
1.41
1.43
1.22
0.81
0.27
-0.28
-0.72
-0.96
-0.97
-0.78
-0.42
0.01
0.42
0.69
0.71
0.46
-0.02
-0.58
-1.02
-1.19
-1.02
-0.57
0.04
0.64
1.12
1.41
1.55
1.57
1.50
1.37
1.17
0.93
0.68
0.46
0.31
0.24
0.21
0.19
0.16
0.14
0.14
0.16
0.13
0.01
-0.21
-0.48
-0.69
-0.72
-0.57
-0.34
-0.16
-0.14
-0.30
-0.58
-0.88
-1.10
-1.22
-1.23
-1.18
-1.09
-0.98
-0.89
-0.87
-0.96
-1.17
-1.44
-1.67
-1.77
-1.70
-1.49
-1.25
-1.05
-0.91
-0.77
-0.53
-0.12
0.45
1.06
1.59
1.92
2.01
1.90
1.69
1.46
1.25
1.09
0.98
0.90
0.86
0.87
0.96
1.11
1.26
1.32
1.23
1.00
0.67
0.35
0.14
0.08
0.14
0.23
0.28
0.20
-0.03
-0.40
-0.84
-1.25
-1.51
-1.52
-1.29
-0.90
-0.53
-0.28
-0.19
-0.20
-0.20
-0.15
-0.05
0.05
0.13
0.23
0.41
0.70
1.00
1.16
1.06
0.68
0.17
-0.30
-0.55
-0.55
-0.36
-0.09
0.16
0.38
0.55
0.71
0.85
0.96
1.04
1.10
1.11
1.07
0.95
0.73
0.44
0.12
-0.16
-0.41
-0.63
-0.86
-1.14
-1.45
-1.73
-1.94
-2.03
-2.01
-1.90
-1.77
-1.64
-1.56
-1.53
-1.49
-1.37
-1.10
-0.63
-0.03
0.58
1.07
1.35
1.44
1.42
1.36
1.28
1.17
1.02
0.85
0.78
0.89
1.16
1.50
1.75
1.79
1.56
1.14
0.66
0.25
0.01
-0.02
0.12
0.34
0.53
0.59
0.45
0.14
-0.24
-0.59
-0.83
-0.93
-0.93
-0.85
-0.73
-0.63
-0.60
-0.67
-0.86
-1.11
-1.34
-1.44
-1.38
-1.16
-0.83
-0.48
-0.15
0.11
0.27
0.34
0.32
0.29
0.32
0.47
0.72
0.98
1.13
1.09
0.89
0.60
0.36
0.19
0.08
-0.01
-0.10
-0.17
-0.16
-0.04
0.15
0.36
0.57
0.77
0.95
1.05
1.00
0.73
0.21
-0.45
-1.09
-1.55
-1.78
-1.80
-1.70
-1.54
-1.34
-1.10
-0.85
-0.60
-0.43
-0.35
-0.32
-0.29
-0.17
0.09
0.50
0.99
1.47
1.85
2.03
1.99
1.72
1.34
0.94
0.63
0.45
0.42
0.50
0.70
1.02
1.44
1.89
2.20
2.18
1.78
1.05
0.22
-0.47
-0.84
-0.90
-0.76
-0.60
-0.50
-0.50
-0.58
-0.70
-0.82
-0.91
-0.96
-0.95
-0.88
-0.80
-0.76
-0.81
-0.94
-1.10
-1.23
-1.29
-1.26
-1.11
-0.85
-0.48
-0.09
0.20
0.26
0.02
-0.43
-0.94
-1.29
-1.35
-1.07
-0.53
0.15
0.89
1.57
2.10
2.35
2.24
1.73
0.92
0.04
-0.64
-0.94
-0.86
-0.55
-0.27
-0.20
-0.39
-0.73
-1.02
-1.14
-1.03
-0.80
-0.55
-0.33
-0.11
0.19
0.60
1.04
1.38
1.51
1.39
1.13
0.90
0.83
0.97
1.23
1.47
1.57
1.48
1.25
0.95
0.69
0.55
0.55
0.68
0.92
1.20
1.44
1.56
1.51
1.29
0.92
0.51
0.15
-0.05
-0.11
-0.07
-0.06
-0.17
-0.41
-0.70
-0.91
-0.93
-0.79
-0.61
-0.51
-0.60
-0.83
-1.08
-1.21
-1.17
-1.03
-0.91
-0.89
-1.00
-1.15
-1.22
-1.15
-0.96
-0.75
-0.64
-0.66
-0.76
-0.83
-0.79
-0.64
-0.47
-0.41
-0.46
-0.56
-0.59
-0.43
-0.09
0.32
0.69
0.95
1.14
1.31
1.48
1.57
1.48
1.16
0.64
0.08
-0.36
-0.55
-0.49
-0.27
0.00
0.19
0.25
0.14
-0.11
-0.46
-0.82
-1.12
-1.28
-1.31
-1.26
-1.22
-1.22
-1.26
-1.28
-1.22
-1.06
-0.80
-0.47
-0.12
0.21
0.53
0.80
1.01
1.12
1.09
0.96
0.81
0.71
0.74
0.88
1.02
1.04
0.87
0.52
0.13
-0.13
-0.14
0.08
0.38
0.55
0.48
0.20
-0.13
-0.30
-0.24
-0.00
0.22
