1530298612.00
64.000000
-0.00
-0.00
-0.00
-0.00
-0.00
-0.00
-0.00
-0.00
-0.00
-0.00
0.00
0.01
0.01
-0.00
-0.03
-0.05
-0.05
0.00
0.13
0.36
0.66
1.01
1.37
1.72
2.06
2.40
2.79
3.24
3.80
4.42
5.06
5.66
6.20
6.68
7.15
7.68
8.31
9.14
10.09
11.04
11.88
12.56
13.14
13.76
14.65
15.96
17.91
20.32
22.90
25.38
27.58
29.57
31.68
34.32
37.81
42.54
48.15
54.10
59.83
64.97
69.58
74.14
79.34
85.71
93.76
103.00
112.62
121.73
129.77
136.75
143.30
150.75
157.77
166.64
177.95
191.79
206.97
220.57
228.25
225.36
208.53
176.87
132.76
80.05
23.07
-34.94
-92.44
-149.16
-205.23
-260.37
-313.73
-363.84
-409.80
-450.88
-486.53
-515.85
-537.46
-549.59
-550.47
-538.98
-514.88
-479.38
-434.60
-383.19
-327.80
-270.69
-213.55
-157.64
-103.96
-53.37
-6.88
34.61
70.38
100.15
124.05
142.64
156.70
166.99
174.14
178.49
180.23
179.47
176.43
171.48
165.13
157.97
150.47
142.92
135.35
127.63
119.56
111.02
102.10
93.09
84.35
76.24
68.88
62.14
55.72
49.20
42.35
35.16
27.90
21.00
14.87
9.78
5.66
2.24
-0.99
-4.68
-9.42
-15.47
-22.39
-28.89
-32.89
-32.10
-24.82
-10.65
9.08
31.61
53.49
71.60
83.88
89.62
89.24
83.85
74.78
63.27
50.44
37.34
24.93
14.12
5.59
-0.35
-3.83
-5.29
-5.17
-3.72
-0.98
3.04
8.09
13.46
18.14
21.16
21.94
20.49
17.27
12.91
7.92
2.64
-2.63
-7.48
-11.34
-13.71
-14.33
-13.41
-11.52
-9.35
-7.41
-5.98
-5.01
-4.32
-3.74
-3.18
-2.69
-2.35
-2.25
-2.41
-2.73
-3.07
-3.24
-3.10
-2.54
-1.58
-0.36
0.84
1.71
1.99
1.59
0.67
-0.40
-1.11
-1.08
-0.13
1.53
3.43
4.96
5.67
5.37
4.28
2.97
2.04
2.18
3.58
6.01
8.87
11.07
11.56
9.21
3.42
-5.59
-16.45
-26.57
-32.77
-32.33
-24.24
-9.81
7.27
22.55
32.11
34.34
30.21
22.16
12.26
0.66
-13.89
-32.19
-52.28
-69.81
-79.97
-80.45
-73.06
-62.44
-52.82
-44.48
-33.75
-15.74
10.37
38.90
59.84
64.24
49.87
22.98
-4.81
-22.49
-24.21
-11.15
11.41
38.25
66.07
93.07
116.52
131.58
130.08
109.07
71.14
24.48
-19.79
-52.56
-70.18
-75.02
-73.13
-71.11
-72.60
-77.97
-84.69
-88.05
-83.08
-66.18
-36.95
0.80
39.52
70.51
86.99
87.12
75.24
59.92
49.94
49.98
58.45
68.51
71.88
62.96
41.34
11.98
-17.75
-41.80
-57.80
-67.37
-73.10
-75.87
-73.23
-62.24
-42.57
-18.92
0.81
9.98
7.24
-1.65
-7.01
-1.07
16.97
40.29
58.12
61.97
50.18
28.34
6.16
-7.90
-10.21
-2.78
8.78
18.09
20.43
13.97
0.01
-17.12
-31.55
-37.77
-32.67
-16.82
5.40
27.57
43.17
48.57
44.89
36.85
30.25
29.02
33.64
41.50
48.82
51.81
49.29
43.88
40.55
44.09
56.47
75.93
97.69
116.06
124.72
119.45
100.51
71.92
40.00
11.54
-7.54
-13.72
-5.95
11.50
31.07
45.31
48.17
36.45
10.59
-24.09
-58.47
-68.55
-36.96
30.89
109.36
171.46
204.49
209.62
198.39
178.88
155.05
126.59
90.36
52.80
20.92
0.52
-7.18
-6.36
-7.12
-18.96
-46.10
-89.03
-143.45
-200.57
-250.37
-284.23
-296.88
-291.57
-276.92
-261.19
-254.96
-265.39
-289.01
-314.16
-324.57
-307.02
-262.08
-201.51
-137.74
-85.45
-55.34
-46.97
-55.47
-73.52
-72.77
-39.14
-12.53
-9.82
-20.04
-36.09
-51.08
-65.88
-84.68
-112.28
-155.04
-215.65
-286.31
-359.76
-431.71
-467.06
-445.04
-366.45
-251.73
-128.98
-19.91
67.66
131.12
170.84
192.43
199.25
194.84
182.58
163.80
139.59
114.59
92.83
76.69
68.62
65.45
62.86
57.73
48.27
34.65
19.69
6.04
-4.72
-11.53
-15.90
-19.91
-24.89
-31.14
-37.98
-43.52
-45.40
-40.60
-30.86
-17.17
-0.64
17.64
36.65
55.41
73.19
89.89
106.21
123.36
142.71
164.84
189.63
216.63
245.25
274.74
303.82
330.10
350.20
361.39
362.04
352.80
336.60
317.20
297.41
277.93
258.05
237.17
216.43
198.17
184.16
173.52
162.04
143.69
113.12
68.16
10.51
-54.86
-121.31
-181.94
-230.36
-261.23
-271.06
-259.56
-230.52
-191.39
-151.29
-118.24
-96.87
-87.95
-89.85
-100.26
-117.43
-139.39
-162.62
-181.57
-190.20
-185.48
-170.48
-154.94
-152.14
-172.53
-217.82
-278.74
-338.29
-378.69
-388.77
-367.67
-323.54
-268.44
-212.66
-161.48
-115.40
-72.72
-32.11
6.14
40.88
71.77
100.43
129.90
162.72
198.91
235.13
265.63
284.47
288.15
277.13
255.65
229.86
205.55
186.28
172.81
163.63
156.29
148.63
139.60
129.32
118.80
109.31
101.87
96.85
93.94
92.33
91.01
89.23
86.62
83.22
79.26
74.90
70.18
65.03
59.45
53.60
47.78
42.30
37.37
33.04
29.22
25.84
22.88
20.36
18.31
16.73
15.54
14.59
13.69
12.71
11.60
10.45
9.41
8.65
8.22
7.99
7.71
7.10
6.01
4.45
2.57
0.55
-1.50
-3.57
-5.63
-7.64
-9.43
-10.85
-11.83
-12.49
-13.02
-13.59
-14.23
-14.82
-15.20
-15.28
-15.11
-14.85
-14.62
-14.42
-14.10
-13.49
-12.56
-11.50
-10.65
-10.36
-10.77
-11.81
-13.23
-14.77
-16.29
-17.76
-19.14
-20.38
-21.38
-22.08
-22.55
-22.92
-23.35
-23.82
-24.24
-24.55
-24.96
-25.94
-28.03
-31.43
-35.74
-40.01
-43.07
-44.07
-42.81
-39.72
-35.55
-31.07
-26.83
-23.25
-20.64
-19.25
-19.10
-19.87
-20.94
-21.62
-21.48
-20.57
-19.29
-18.11
-17.24
-16.53
-15.56
-13.91
-11.40
-8.18
-4.71
-1.62
0.47
1.15
0.43
-1.23
-3.03
-4.21
-4.30
-3.37
-1.89
-0.42
0.68
1.37
1.79
2.02
1.91
1.20
-0.18
-1.95
-3.57
-4.61
-5.11
-5.62
-6.93
-9.48
-12.98
-16.44
-18.73
-19.19
-18.14
-16.67
-16.07
-17.10
-19.59
-22.62
-25.13
-26.41
-26.35
-25.15
-22.86
-19.15
-13.41
-5.26
4.96
16.19
27.11
36.75
44.85
51.66
57.37
61.68
63.78
62.94
59.27
53.91
48.66
45.13
44.02
44.92
46.80
48.73
50.45
52.39
55.15
58.87
62.90
65.93
66.48
63.50
56.76
46.90
35.17
22.94
11.32
0.97
-7.80
-14.79
-19.63
-21.85
-21.20
-17.94
-13.02
-7.76
-3.40
-0.54
0.89
1.45
1.72
2.05
2.47
3.05
4.07
5.95
8.87
12.21
14.35
13.03
6.26
-6.70
-24.86
-45.77
-66.52
-84.74
-99.27
-110.18
-118.22
-124.17
-128.39
-130.87
-131.53
-130.39
-127.61
-123.25
-117.13
-108.92
-98.43
-85.85
-71.78
-56.92
-41.77
-26.40
-10.67
5.41
21.36
36.27
49.31
60.25
69.82
79.43
90.29
102.50
114.63
124.17
128.54
126.35
117.98
105.34
90.94
76.92
64.44
53.57
43.37
31.85
15.87
-8.23
-43.02
-87.85
-137.49
-182.83
-213.79
-223.36
-210.62
-181.06
-143.90
-108.06
-78.85
-57.16
-41.06
-28.36
-18.43
-12.22
-10.92
-14.36
-20.50
-25.91
-27.43
-23.38
-14.16
-1.83
10.90
21.81
29.72
34.52
36.70
36.92
35.74
33.55
30.70
27.63
24.93
23.23
23.17
25.21
29.50
35.69
42.85
49.58
54.40
56.28
55.05
51.45
46.86
42.70
39.90
38.64
38.45
38.57
38.40
37.71
36.60
35.36
34.23
33.24
32.20
30.88
29.19
27.22
25.22
23.43
21.91
20.51
18.95
16.99
14.59
11.94
9.44
7.51
6.54
6.74
8.12
10.51
13.51
16.73
19.86
22.92
26.22
30.24
35.28
41.10
46.88
51.62
54.47
55.32
54.86
54.35
55.15
58.29
64.26
73.00
83.66
94.36
102.01
102.80
93.40
72.49
41.76
5.78
-29.60
-59.36
-81.00
-94.94
-103.39
-108.51
-110.99
-109.89
-103.82
-92.48
-77.67
-62.96
-52.20
-47.80
-49.56
-54.81
-59.76
-61.25
-58.11
-51.38
-43.49
-36.80
-32.44
-30.01
-28.04
-24.94
-19.70
-12.03
-2.15
9.69
23.37
38.75
55.49
72.40
87.21
96.79
97.92
88.33
67.86
38.97
6.32
-24.52
-48.98
-64.77
-72.22
-73.46
-71.17
-67.48
-63.57
-60.05
-57.01
-54.63
-52.94
-51.45
-49.05
-44.27
-35.78
-22.99
-6.76
11.91
30.99
48.39
62.52
72.67
79.09
82.74
84.76
85.07
84.82
84.11
83.25
83.06
84.82
89.68
97.99
108.91
119.14
127.58
132.32
132.66
129.44
124.70
120.80
119.35
120.45
120.77
119.52
114.26
103.58
87.68
67.99
46.30
23.70
11.37
-4.65
-24.03
-48.08
-77.61
-112.81
-153.45
-198.00
-243.15
-284.07
-317.83
-340.72
-355.50
-369.63
-392.38
-430.18
-482.63
-541.44
-593.34
-626.82
-633.16
-612.80
-572.51
-521.52
-467.41
-413.85
-360.86
-306.74
-251.03
-193.18
-135.09
-79.41
-27.96
18.80
61.73
102.26
141.43
179.31
216.21
252.33
288.40
325.25
362.37
396.47
421.17
428.84
413.54
374.55
317.09
250.98
186.90
132.30
88.87
53.29
20.52
-12.13
-42.91
-66.20
-75.63
-68.30
-46.27
-16.92
10.09
27.03
31.53
26.95
19.79
16.74
21.97
38.48
67.26
107.80
158.20
215.08
273.14
325.11
365.02
389.73
403.16
411.91
420.98
430.68
437.07
433.95
415.56
381.28
334.57
285.30
242.87
212.83
196.18
191.35
195.77
207.11
225.99
228.56
200.07
141.05
66.25
-8.25
-73.84
-122.25
-159.03
-185.29
-200.74
-203.80
-197.42
-190.84
-193.50
-211.48
-247.59
-299.82
-360.04
-418.67
-463.89
-486.29
-481.12
-449.11
-383.95
-293.37
-198.16
-119.51
-67.42
-35.33
-7.04
27.63
69.11
110.20
137.45
140.97
119.32
77.84
27.20
-22.92
-61.11
-78.55
-73.78
-54.80
-32.21
-13.87
-4.13
-2.54
-6.14
-11.32
-15.85
-19.75
-26.75
-38.33
-53.58
-71.23
-89.01
-104.84
-117.28
-125.11
-126.88
-121.13
-106.03
-75.03
-32.84
10.70
46.32
69.13
79.21
79.58
73.61
64.39
54.37
44.66
37.44
36.59
43.28
56.43
72.38
85.82
91.42
86.00
69.04
44.65
19.56
-0.24
-11.85
-16.43
-17.69
-19.77
-24.44
-31.09
-36.60
-37.68
-33.15
-24.41
-14.49
-6.28
-1.01
2.07
4.61
8.60
15.13
23.72
32.90
40.93
46.58
49.58
50.61
50.49
49.75
48.14
44.73
38.60
29.46
18.20
6.70
-2.73
-8.21
-8.96
-5.50
0.61
7.52
13.70
18.43
21.74
24.16
26.12
27.66
28.36
27.62
25.14
21.15
16.36
11.70
7.89
5.28
3.78
3.02
2.58
2.17
1.66
1.01
0.28
-0.56
-1.56
-2.77
-4.20
-5.74
-7.21
-8.47
-9.41
-10.03
-10.37
-10.45
-10.29
-9.92
-9.44
-9.03
-8.90
-9.16
-9.73
-10.32
-10.51
-10.00
-8.73
-6.92
-4.96
-3.14
-1.50
0.18
2.21
4.78
7.82
11.01
13.97
16.33
17.91
18.61
18.36
17.05
14.58
11.01
6.67
2.17
-1.80
-4.70
-6.31
-6.79
-6.50
-5.79
-4.87
-3.84
-2.78
-1.84
-1.24
-1.14
-1.54
-2.24
-2.90
-3.25
-3.16
-2.67
-1.99
-1.32
-0.79
-0.43
-0.17
0.12
0.52
1.07
1.67
2.12
2.19
1.68
0.58
-0.98
-2.70
-4.27
-5.49
-6.28
-6.74
-7.00
-7.18
-7.33
-7.49
-7.75
-8.32
-9.45
-11.26
-13.58
-15.93
-17.68
-18.25
-17.50
-15.73
-13.61
-11.78
-10.58
-9.91
-9.45
-8.84
-8.00
-7.12
-6.56
-6.60
-7.33
-8.60
-10.15
-11.72
-13.03
-13.81
-13.73
-12.47
-9.94
-6.42
-2.59
0.70
2.76
3.37
2.84
1.80
0.98
0.85
1.42
2.38
3.21
3.49
3.03
1.97
0.70
-0.30
-0.65
-0.24
0.78
2.12
3.51
4.84
6.09
7.20
7.88
7.66
6.11
3.16
-0.73
-4.63
-7.54
-8.84
-8.61
-7.52
-6.56
-6.50
-7.60
-9.58
-11.78
-13.53
-14.31
-13.89
-12.31
-9.81
-6.81
-3.83
-1.37
0.21
0.86
0.81
0.44
0.16
0.16
0.40
0.69
0.85
0.75
0.39
-0.15
-0.84
-1.62
-2.47
-3.32
-4.12
-4.79
-5.28
-5.56
-5.67
-5.74
-5.91
-6.31
-6.95
-7.71
-8.38
-8.73
-8.64
-8.10
-7.23
-6.21
-5.22
-4.38
-3.70
-3.09
-2.34
-1.22
0.45
2.65
5.10
7.33
8.82
9.24
8.59
7.20
5.63
4.51
4.30
5.12
6.71
8.49
9.80
10.16
9.43
7.76
5.42
2.59
-0.68
-4.23
-7.63
-10.19
-11.20
-10.43
-8.36
-6.05
-4.59
-4.61
-5.99
-8.10
-10.25
-12.02
-13.38
-14.41
-15.07
-15.13
-14.36
-12.78
-10.80
-9.09
-8.30
-8.83
-10.71
-13.56
-16.79
-19.69
-21.67
-22.42
-22.00
-20.74
-19.05
-17.27
-15.47
-13.66
-11.87
-10.30
-9.28
-8.98
-9.25
-9.52
-9.07
-7.35
-4.26
-0.13
4.46
8.94
12.90
16.16
18.58
20.06
20.52
19.88
18.20
15.65
12.47
8.98
5.53
2.55
0.44
-0.52
-0.36
0.51
1.47
1.86
1.39
0.20
-1.11
-1.86
-1.55
-0.14
2.04
4.51
6.88
9.06
11.09
13.02
14.70
15.80
15.96
15.06
13.26
10.99
8.74
6.89
5.62
5.02
5.09
5.84
7.13
8.66
9.94
10.44
9.83
8.10
5.63
3.02
0.86
-0.50
-0.99
-0.84
-0.37
0.19
0.76
1.35
1.99
2.61
2.99
2.86
2.06
0.61
-1.20
-3.01
-4.48
-5.43
-5.85
-5.82
-5.43
-4.70
-3.66
-2.38
-1.09
-0.05
0.51
0.50
0.07
-0.53
-1.12
-1.71
-2.57
-4.08
-6.44
-9.46
-12.46
-14.52
-14.83
-13.06
-9.53
-5.08
-0.64
3.09
5.89
7.91
9.40
10.50
11.13
11.14
10.50
9.44
8.39
7.73
7.60
7.78
7.84
7.36
6.16
4.34
2.24
0.15
-1.77
-3.55
-5.32
-7.11
-8.82
-10.18
-10.90
-10.79
-9.83
-8.16
-6.03
-3.73
-1.51
0.42
1.96
3.03
3.67
3.98
4.11
4.21
4.38
4.67
5.12
5.71
6.43
7.24
8.06
8.76
9.18
9.16
8.58
7.38
5.67
3.72
1.95
0.77
0.33
0.47
0.65
0.25
-1.10
-3.34
-5.90
-8.08
-9.29
-9.35
-8.41
-6.83
-4.88
-2.73
-0.40
2.05
4.42
6.43
7.76
8.21
7.76
6.60
5.07
3.52
2.25
1.35
0.73
0.16
-0.64
-1.76
-3.10
-4.39
-5.38
-5.92
-6.12
-6.23
-6.54
-7.33
-8.79
-11.07
-14.20
-18.00
-21.87
-24.78
-25.47
-22.91
-16.88
-8.22
1.28
9.51
14.75
16.23
14.16
9.39
2.93
-4.42
-12.09
-19.64
-26.60
-32.39
-36.51
-38.70
-39.10
-38.22
-36.74
-35.24
-33.99
-32.79
-31.10
-28.37
-24.39
-19.52
-14.68
-10.93
-8.96
-8.71
-9.37
-9.72
-8.76
-6.06
-1.91
2.96
7.81
12.23
16.24
19.99
23.58
26.83
29.32
30.56
30.17
28.04
24.40
19.74
14.65
9.71
5.35
1.89
-0.63
-2.36
-3.55
-4.29
-4.46
-3.78
-2.01
0.91
4.79
9.02
12.63
14.59
14.25
11.62
7.35
2.55
-1.53
-3.78
-3.82
-2.24
-0.18
1.23
1.40
0.32
-1.46
-3.03
-2.91
0.40
7.87
19.49
33.91
48.19
58.17
60.03
50.76
31.67
8.92
-10.19
-21.30
-24.36
-22.22
-18.35
-14.99
-12.55
-10.06
-6.60
-2.39
1.44
3.72
3.89
2.19
-0.47
-2.94
-4.13
-3.55
-1.61
0.77
2.62
3.23
2.39
0.39
-2.07
-4.06
-4.80
-4.14
-2.65
-1.07
-0.23
-0.50
-1.77
-3.64
-6.04
-9.61
-15.24
-23.23
-31.41
-35.75
-31.62
-16.07
10.24
42.83
75.21
101.61
119.05
127.67
129.17
124.98
115.36
100.07
79.94
58.05
39.23
28.05
26.78
34.21
46.48
59.19
69.41
76.64
82.14
87.14
91.33
92.65
88.60
78.06
62.72
47.10
36.81
36.23
46.27
63.62
81.83
93.53
92.80
76.40
45.43
3.19
-45.38
-95.45
-143.77
-189.57
-234.51
-281.43
-332.63
-387.94
-443.80
-493.34
-528.22
-541.24
-528.56
-490.92
-433.46
-364.47
-293.88
-231.76
-186.63
-163.70
-163.19
-179.65
-203.02
-221.69
-226.47
-213.43
-184.65
-146.02
-103.97
-62.82
-23.85
13.67
50.68
87.07
121.73
153.36
181.66
207.69
233.51
261.15
291.93
326.11
363.19
401.92
439.91
473.13
496.00
502.61
488.95
454.98
405.46
348.66
293.66
247.32
212.71
189.21
174.17
164.61
158.05
152.40
145.30
133.71
114.42
85.21
46.22
0.63
-45.72
-85.98
-114.61
-129.18
-131.07
-124.47
-114.57
-105.95
-101.73
-103.62
-112.32
-127.70
-148.48
-171.97
-194.37
-211.63
-220.87
-221.17
-213.40
-199.15
-179.79
-156.03
-128.53
-98.50
-67.92
-39.31
-14.95
3.63
15.76
21.40
20.92
15.07
5.39
-5.15
-12.67
-13.44
-5.26
11.54
34.03
57.54
77.35
90.32
96.47
98.04
97.88
97.98
99.00
100.47
101.45
101.06
99.07
97.18
97.11
99.13
101.68
102.40
99.65
93.18
83.94
73.62
66.13
64.74
70.29
81.04
93.92
105.81
113.75
114.85
106.96
92.71
77.48
67.07
66.33
78.40
104.35
142.51
188.69
219.71
218.22
182.86
128.49
72.35
22.16
-23.53
-69.41
-118.13
-168.11
-211.36
-240.33
-253.30
-252.98
-244.97
-234.61
-225.13
-217.31
-210.22
-200.34
-181.03
-153.53
-123.62
-97.74
-79.29
-67.82
-60.37
-53.68
-44.52
-30.84
-13.89
3.24
17.09
25.50
28.03
25.62
19.95
13.83
9.33
7.55
8.53
11.34
14.75
17.41
17.95
15.08
8.55
-0.01
-7.55
-10.00
-3.48
13.98
40.93
72.47
99.89
112.71
105.81
83.35
55.19
29.90
10.82
-4.09
-18.84
-34.95
-50.99
-63.82
-71.33
-74.38
-74.23
-73.95
-76.55
-83.21
-93.00
-103.68
-112.83
-119.09
-122.61
-124.19
-119.86
-107.22
-87.15
-63.84
-41.88
-23.52
-8.40
4.87
17.43
29.41
39.74
46.84
49.84
49.03
45.66
41.16
36.63
32.78
28.98
25.19
22.03
20.82
23.13
29.94
41.07
54.95
69.04
80.56
87.10
87.43
81.84
71.98
59.96
47.67
36.22
25.96
16.69
8.10
0.10
-6.94
-12.30
-15.34
-15.89
-14.30
-11.24
-7.31
-2.84
2.16
7.91
14.63
22.25
30.32
38.07
44.78
49.99
53.75
56.55
59.20
62.57
67.54
74.82
84.68
96.59
108.86
118.50
121.79
115.37
97.68
69.97
36.10
1.33
-29.69
-54.39
-72.71
-86.31
-96.97
-105.41
-111.03
-112.63
-109.55
-102.45
-93.29
-84.59
-78.37
-75.48
-75.43
-76.77
-77.79
-77.09
-73.96
-68.39
-60.91
-52.25
-43.02
-33.68
-24.53
-15.99
-8.67
-3.33
-0.58
-0.60
-2.93
-6.60
-10.43
-13.49
-15.40
-16.36
-16.97
-17.89
-19.51
-21.82
-24.38
-26.58
-27.91
-28.13
-27.30
-25.71
-23.58
-21.01
-17.88
-14.07
-9.60
-4.72
0.08
4.32
7.65
9.98
11.51
12.56
13.46
14.44
15.53
16.68
17.84
19.04
20.43
22.17
24.27
26.57
28.78
30.64
32.07
33.25
34.47
35.95
37.71
39.50
40.99
41.97
42.55
43.14
44.22
46.14
48.81
51.74
54.15
55.31
54.84
52.86
49.91
46.67
43.69
41.11
38.66
35.74
31.65
25.83
17.97
8.14
-3.21
-15.28
-27.10
-37.69
-46.39
-52.96
-57.66
-61.01
-63.56
-65.68
-67.49
-69.02
-70.45
-72.16
-74.78
-78.97
-85.18
-93.41
-103.11
-113.22
-122.42
-129.37
-133.20
-133.67
-131.22
-126.69
-120.87
-114.15
-106.50
-97.61
-87.33
-75.92
-64.09
-52.71
-42.42
-33.42
-25.46
-18.05
-10.82
-3.69
3.13
9.30
14.60
19.08
23.06
26.90
30.79
34.61
37.95
40.31
41.41
41.24
40.10
38.38
36.43
34.42
32.38
30.29
28.16
26.04
23.93
21.79
19.42
16.67
13.51
10.21
7.42
5.93
6.47
9.37
14.45
21.01
28.06
34.64
39.97
43.61
45.34
45.17
43.28
40.02
35.92
31.59
27.63
24.41
22.08
20.54
19.60
19.13
19.17
19.87
21.37
23.70
26.70
30.05
33.33
36.18
38.36
39.80
40.67
41.26
41.94
43.06
44.89
47.53
50.88
54.70
58.59
62.04
64.50
65.54
64.98
63.01
60.09
56.81
53.67
50.87
48.39
46.07
43.76
41.47
39.31
37.38
35.66
33.95
31.89
29.15
25.51
21.02
16.03
11.04
6.55
2.91
0.10
-2.14
-4.22
-6.40
-8.75
-11.11
-13.28
-15.14
-16.74
-18.24
-19.76
-21.29
-22.63
-23.59
-24.01
-24.00
-23.82
-23.78
-24.14
-24.92
-25.95
-26.99
-27.77
-28.16
-28.12
-27.72
-27.08
-26.30
-25.50
-24.73
-24.00
-23.22
-22.26
-20.93
-19.14
-16.92
-14.46
-11.98
-9.68
-7.58
-5.63
-3.76
-1.98
-0.43
0.74
1.47
1.87
2.19
2.67
3.37
4.21
4.95
5.42
5.61
5.67
5.81
6.11
6.47
6.63
6.35
5.56
4.38
3.13
2.04
1.17
0.40
-0.50
-1.65
-3.00
-4.33
-5.47
-6.36
-7.14
-8.04
-9.20
-10.53
-11.72
-12.38
-12.24
-11.23
-9.54
-7.43
-5.16
-2.88
-0.63
1.57
3.67
5.53
6.98
7.86
8.13
7.93
7.47
7.04
6.86
7.05
7.59
8.35
9.14
9.79
10.15
10.18
9.89
9.36
8.71
8.10
7.62
7.31
7.09
6.83
6.35
5.60
4.61
3.54
2.60
1.88
1.38
0.92
0.29
-0.63
-1.83
-3.18
-4.52
-5.75
-6.90
-8.11
-9.47
-11.03
-12.69
-14.30
-15.68
-16.65
-17.06
-16.78
-15.74
-13.93
-11.49
-8.66
-5.74
-3.01
-0.63
1.35
2.98
4.31
5.37
6.13
6.61
6.86
6.98
7.07
7.23
7.49
7.85
8.26
8.63
8.90
8.96
8.77
8.32
7.65
6.84
5.97
5.10
4.27
3.49
2.77
2.13
1.58
1.07
0.54
-0.11
-0.95
-1.97
-3.10
-4.22
-5.26
-6.20
-7.12
-8.10
-9.25
-10.56
-11.92
-13.15
-14.02
-14.37
-14.07
-13.08
-11.42
-9.19
-6.54
-3.73
-1.08
1.14
2.76
3.83
4.52
5.07
5.62
6.15
6.52
6.61
6.45
6.22
6.19
6.50
7.09
7.72
8.08
7.96
7.39
6.57
5.74
5.08
4.58
4.11
3.50
2.67
1.65
0.57
-0.46
-1.41
-2.37
-3.49
-4.85
-6.37
-7.88
-9.20
-10.27
-11.18
-12.16
-13.36
-14.74
-16.02
-16.82
-16.82
-15.89
-14.15
-11.80
-9.07
-6.10
-3.02
0.01
2.74
4.93
6.38
7.10
7.25
7.12
7.00
7.08
7.44
8.02
8.70
9.34
9.81
10.03
9.99
9.76
9.45
9.13
8.85
8.60
8.32
7.95
7.41
6.65
5.67
4.49
3.17
1.80
0.51
-0.58
-1.43
-2.05
-2.58
-3.19
-4.04
-5.18
-6.57
-8.06
-9.51
-10.87
-12.19
-13.58
-15.07
-16.54
-17.73
-18.31
-18.01
-16.73
-14.53
-11.62
-8.25
-4.68
-1.14
2.14
4.95
7.15
8.64
9.45
9.68
9.50
9.13
8.78
8.58
8.64
8.95
9.43
9.96
10.36
10.54
10.39
9.96
9.33
8.65
8.08
7.66
7.36
7.02
6.46
5.58
4.44
3.21
2.08
1.18
0.45
-0.27
-1.17
-2.33
-3.71
-5.16
-6.53
-7.76
-8.87
-9.93
-11.02
-12.20
-13.48
-14.84
-16.25
-17.66
-19.00
-20.12
-20.80
-20.76
-19.76
-17.63
-14.43
-10.50
-6.35
-2.51
0.63
2.98
4.70
6.04
7.17
8.10
8.75
9.06
9.11
9.10
9.25
9.68
10.35
11.10
11.76
12.21
12.48
12.64
12.75
12.79
12.66
12.25
11.51
10.50
9.34
8.19
7.11
6.07
4.94
3.59
2.01
0.28
-1.41
-2.88
-4.08
-5.11
-6.13
-7.32
-8.72
-10.31
-11.93
-13.40
-14.53
-15.14
-15.08
-14.19
-12.38
-9.72
-6.41
-2.85
0.46
3.11
4.85
5.70
5.95
6.01
6.24
6.84
7.77
8.81
9.72
10.35
10.65
10.71
10.65
10.58
10.51
10.45
10.30
9.98
9.42
8.57
7.45
6.15
4.78
3.48
2.33
1.38
0.58
-0.09
-0.71
-1.34
-2.00
-2.69
-3.41
-4.14
-4.87
-5.68
-6.62
-7.73
-8.97
-10.24
-11.39
-12.28
-12.78
-12.77
-12.13
-10.76
-8.68
-6.08
-3.32
-0.81
1.09
2.24
2.74
2.88
2.93
3.05
3.25
3.40
3.40
3.25
3.06
3.01
3.22
3.69
4.22
4.58
4.55
4.11
3.40
2.66
2.07
1.68
1.39
1.02
0.44
-0.36
-1.29
-2.20
-3.00
-3.68
-4.35
-5.10
-6.02
-7.08
-8.20
-9.29
-10.29
-11.20
-12.04
-12.80
-13.40
-13.68
-13.45
-12.59
-11.08
-9.05
-6.73
-4.38
-2.22
-0.37
1.12
2.27
3.07
3.54
3.73
3.69
3.55
3.42
3.43
3.60
3.92
4.32
4.68
4.97
5.13
5.14
4.98
4.60
4.03
3.33
2.58
1.89
1.29
0.72
0.06
-0.79
-1.87
-3.04
-4.12
-4.95
-5.57
-6.17
-7.03
-8.34
-10.06
-11.86
-13.27
-13.84
-13.31
-11.72
-9.35
-6.55
-3.62
-0.79
1.79
3.97
5.60
6.56
6.89
6.78
6.59
6.65
7.16
8.10
9.24
10.29
11.02
11.37
11.40
11.19
10.80
10.22
9.42
8.39
7.25
6.17
5.30
4.66
4.13
3.48
2.49
1.06
-0.73
-2.67
-4.50
-6.04
-7.27
-8.29
-9.27
-10.36
-11.63
-13.05
-14.52
-15.88
-16.93
-17.45
-17.18
-15.97
-13.77
-10.74
-7.25
-3.78
-0.81
1.37
2.68
3.30
3.50
3.57
3.68
3.87
4.09
4.31
4.52
4.78
5.11
5.50
5.84
6.05
6.09
6.00
5.88
5.81
5.79
5.77
5.64
5.37
5.00
4.62
4.29
4.04
3.78
3.43
2.92
2.24
1.46
0.67
-0.03
-0.59
-1.05
-1.54
-2.24
-3.27
-4.63
-6.14
-7.48
-8.30
-8.41
-7.79
-6.61
-5.13
-3.53
-1.90
-0.24
1.42
3.00
4.35
5.35
5.95
6.22
6.34
6.47
6.73
7.15
7.76
8.52
9.42
10.37
11.24
11.87
12.12
11.97
11.50
10.88
10.26
9.61
8.78
7.56
5.82
3.57
1.03
-1.50
-3.79
-5.73
-7.34
-8.71
-9.96
-11.16
-12.41
-13.82
-15.44
-17.32
-19.35
-21.27
-22.72
-23.32
-22.84
-21.26
-18.78
-15.76
-12.58
-9.54
-6.83
-4.52
-2.65
-1.26
-0.42
-0.15
-0.35
-0.81
-1.24
-1.39
-1.13
-0.52
0.28
1.08
1.78
2.36
2.85
3.28
3.64
3.87
3.92
3.80
3.55
3.23
2.89
2.53
2.14
1.67
1.07
0.32
-0.55
-1.48
-2.40
-3.31
-4.26
-5.38
-6.80
-8.56
-10.52
-12.39
-13.84
-14.58
-14.47
-13.52
-11.80
-9.39
-6.40
-3.02
0.52
3.85
6.66
8.75
10.14
11.01
11.63
12.16
12.63
12.97
13.10
13.05
12.96
12.98
13.22
13.59
13.93
14.03
13.80
13.24
12.47
11.57
10.55
9.36
7.99
6.51
5.11
3.96
3.18
2.70
2.31
1.74
0.78
-0.63
-2.38
-4.19
-5.80
-7.01
-7.85
-8.47
-9.10
-9.95
-11.07
-12.41
-13.79
-15.02
-15.88
-16.19
-15.73
-14.34
-11.96
-8.71
-4.99
-1.30
1.86
4.22
5.80
6.84
7.59
8.22
8.73
9.02
9.07
8.94
8.84
8.96
9.36
9.96
10.58
11.01
11.10
10.82
10.21
9.37
8.44
7.51
6.65
5.84
5.05
4.23
3.40
2.61
1.91
1.33
0.80
0.23
-0.50
-1.39
-2.38
-3.33
-4.18
-4.92
-5.67
-6.55
-7.62
-8.91
-10.32
-11.73
-13.07
-14.24
-15.17
-15.75
-15.80
-15.15
-13.67
-11.40
-8.55
-5.47
-2.52
0.06
2.21
3.95
5.36
6.45
7.20
7.57
7.64
7.54
7.44
7.43
7.49
7.52
7.43
7.26
7.12
7.11
7.27
7.48
7.53
7.25
6.56
5.52
4.27
2.96
1.65
0.37
-0.90
-2.14
-3.26
-4.16
-4.78
-5.15
-5.42
-5.80
-6.48
-7.54
-8.91
-10.42
-11.86
-13.12
-14.11
-14.76
-14.94
-14.46
-13.14
-10.92
-7.96
-4.59
-1.24
1.70
4.04
5.75
6.97
7.81
8.43
8.88
9.16
9.29
9.29
9.23
9.22
9.33
9.57
9.85
10.03
10.00
9.73
9.31
8.86
8.46
8.09
7.70
7.20
6.57
5.83
4.99
4.04
2.95
1.74
0.52
-0.61
-1.57
-2.40
-3.25
-4.26
-5.46
-6.74
-7.90
-8.85
-9.62
-10.39
-11.31
-12.49
-13.84
-15.16
-16.19
-16.70
-16.54
-15.62
-13.95
-11.63
-8.84
-5.82
-2.83
-0.11
2.18
3.93
5.11
5.78
6.10
6.27
6.47
6.81
7.28
7.80
8.26
8.61
8.84
9.03
9.21
9.36
9.43
9.32
9.00
8.49
7.85
7.17
6.50
5.82
5.08
4.27
3.38
2.50
1.72
1.13
0.68
0.26
-0.29
-1.10
-2.23
-3.59
-5.05
-6.45
-7.76
-8.96
-10.12
-11.28
-12.40
-13.42
-14.24
-14.77
-14.97
-14.80
-14.19
-13.02
-11.18
-8.64
-5.55
-2.23
0.90
3.45
5.22
6.19
6.56
6.58
6.47
6.38
6.37
6.48
6.72
7.05
7.41
7.70
7.80
7.69
7.40
7.03
6.67
6.36
6.06
5.68
5.15
4.44
3.58
2.66
1.75
0.90
0.14
-0.57
-1.27
-1.96
-2.61
-3.19
-3.67
-4.06
-4.47
-5.01
-5.80
-6.89
-8.23
-9.65
-10.92
-11.79
-12.04
-11.54
-10.25
-8.27
-5.81
-3.17
-0.65
1.50
3.15
4.30
5.05
5.51
5.78
5.90
5.88
5.72
5.44
5.14
4.94
4.93
5.18
5.64
6.16
6.56
6.66
6.41
5.84
5.09
4.26
3.42
2.54
1.58
0.50
-0.62
-1.66
-2.55
-3.26
-3.89
-4.57
-5.41
-6.43
-7.57
-8.71
-9.77
-10.78
-11.79
-12.83
-13.84
-14.62
-14.93
-14.52
-13.28
-11.27
-8.70
-5.86
-3.09
-0.61
1.47
3.17
4.58
5.74
6.68
7.36
7.75
7.87
7.85
7.84
8.00
8.36
8.79
9.11
9.16
8.93
8.52
8.10
7.76
7.49
7.18
6.68
5.97
5.12
4.24
3.39
2.54
1.62
0.60
-0.48
-1.51
-2.42
-3.21
-3.96
-4.77
-5.65
-6.57
-7.47
-8.35
-9.29
-10.42
-11.78
-13.25
-14.52
-15.19
-14.97
-13.73
-11.59
-8.86
-5.89
-3.01
-0.39
1.88
3.79
5.35
6.52
7.26
7.61
7.65
7.54
7.43
7.40
7.48
7.64
7.90
8.28
8.81
9.42
9.96
10.23
10.06
9.40
8.32
6.98
5.60
4.34
3.27
2.40
1.68
1.02
0.33
-0.45
-1.35
-2.38
-3.52
-4.72
-5.91
-7.05
-8.06
-8.93
-9.69
-10.42
-11.24
-12.20
-13.25
-14.14
-14.56
-14.19
-12.85
-10.59
-7.68
-4.57
-1.66
0.75
2.56
3.82
4.66
5.18
5.42
5.41
5.19
4.87
4.60
4.52
4.71
5.15
5.76
6.45
7.09
7.61
7.91
7.91
7.60
7.02
6.29
5.55
4.88
4.25
3.56
2.72
1.69
0.51
-0.74
-1.94
-3.06
-4.09
-5.08
-6.04
-7.03
-8.12
-9.37
-10.76
-12.16
-13.26
-13.70
-13.17
-11.55
-8.98
-5.84
-2.59
0.38
2.82
4.65
5.91
6.71
7.17
7.39
7.40
7.22
6.89
6.43
5.98
5.67
5.63
5.91
6.47
7.15
7.75
8.07
7.98
7.40
6.43
5.22
3.97
2.86
1.97
1.27
0.64
-0.07
-0.94
-2.00
-3.14
-4.27
-5.30
-6.20
-7.00
-7.81
-8.74
-9.87
-11.25
-12.86
-14.54
-16.06
-17.10
-17.36
-16.67
-15.03
-12.59
-9.66
-6.54
-3.46
-0.62
1.88
3.95
5.54
6.62
7.25
7.54
7.67
7.78
7.97
8.29
8.75
9.34
10.04
10.82
11.58
12.21
12.58
12.61
12.31
11.74
10.98
10.11
9.20
8.23
7.24
6.24
5.28
4.40
3.60
2.82
1.95
0.90
-0.38
-1.82
-3.28
-4.59
-5.65
-6.48
-7.19
-7.97
-9.01
-10.37
-12.04
-13.87
-15.67
-17.22
-18.34
-18.80
-18.44
-17.12
-14.87
-11.88
-8.49
-5.11
-2.07
0.47
2.51
4.19
5.63
6.87
7.87
8.56
8.95
9.18
9.41
9.78
10.31
10.89
11.35
11.59
11.61
11.49
11.33
11.18
10.97
10.59
9.98
9.16
8.20
7.24
6.33
5.46
4.61
3.74
2.84
1.95
1.04
0.08
-0.96
-2.09
-3.25
-4.34
-5.28
-6.08
-6.84
-7.71
-8.79
-10.15
-11.76
-13.52
-15.24
-16.64
-17.39
-17.20
-15.88
-13.45
-10.17
-6.47
-2.82
0.39
2.96
4.83
6.04
6.68
6.86
6.73
6.47
6.29
6.36
6.77
7.49
8.39
9.32
10.13
10.69
10.93
10.81
10.35
9.61
8.71
7.76
6.86
6.05
5.29
4.49
3.61
2.63
1.54
0.36
-0.86
-2.11
-3.31
-4.40
-5.31
-6.03
-6.62
-7.19
-7.92
-8.98
-10.49
-12.41
-14.51
-16.37
-17.48
-17.39
-15.93
-13.19
-9.58
-5.62
-1.80
1.52
4.19
6.13
7.37
7.98
8.10
7.94
7.73
7.70
7.95
8.45
9.06
9.60
9.92
9.99
9.85
9.58
9.28
8.99
8.68
8.32
7.85
7.27
6.62
5.93
5.20
4.35
3.32
2.09
0.76
-0.52
-1.54
-2.26
-2.76
-3.27
-4.02
-5.15
-6.64
-8.35
-10.05
-11.63
-13.05
-14.39
-15.74
-17.10
-18.35
-19.25
-19.53
-18.97
-17.50
-15.18
-12.16
-8.71
-5.10
-1.61
1.50
4.07
6.04
7.47
8.50
9.27
9.83
10.16
10.28
10.27
10.33
10.68
11.39
12.34
13.23
13.74
13.74
13.26
12.52
11.69
10.86
9.98
8.99
7.91
6.81
5.84
5.05
4.41
3.80
3.07
2.15
1.05
-0.13
-1.34
-2.49
-3.56
-4.54
-5.45
-6.32
-7.14
-7.92
-8.68
-9.48
-10.44
-11.64
-13.13
-14.78
-16.33
-17.44
-17.77
-17.16
-15.60
-13.25
-10.40
-7.31
-4.22
-1.32
1.28
3.48
5.21
6.43
7.13
7.38
7.34
7.25
7.31
7.66
8.29
9.03
9.72
10.23
10.54
10.68
10.71
10.59
10.23
9.59
8.69
7.67
6.71
5.96
5.45
5.08
4.68
4.15
3.46
2.66
1.83
0.99
0.09
-0.94
-2.13
-3.41
-4.65
-5.75
-6.68
-7.53
-8.42
-9.48
-10.72
-12.06
-13.36
-14.49
-15.35
-15.85
-15.88
-15.30
-13.96
-11.78
-8.88
-5.53
-2.14
0.87
3.22
4.85
5.84
6.36
6.58
6.58
6.38
6.09
5.82
5.77
6.07
6.74
7.65
8.56
9.25
9.57
9.54
9.27
8.91
8.50
7.96
7.18
6.05
4.63
3.11
1.71
0.63
-0.10
-0.61
-1.08
-1.68
-2.44
-3.31
-4.23
-5.16
-6.14
-7.26
-8.54
-9.99
-11.53
-13.07
-14.53
-15.81
-16.75
-17.15
-16.79
-15.54
-13.40
-10.59
-7.43
-4.28
-1.40
1.06
3.09
4.69
5.92
6.80
7.35
7.62
7.68
7.68
7.73
7.97
8.44
9.10
9.78
10.34
10.62
10.58
10.29
9.84
9.33
8.78
8.15
7.38
6.44
5.34
4.16
2.97
1.88
0.93
0.16
-0.49
-1.13
-1.88
-2.79
-3.82
-4.80
-5.63
-6.25
-6.77
-7.39
-8.29
-9.53
-11.07
-12.73
-14.31
-15.59
-16.27
-16.09
-14.82
-12.45
-9.24
-5.69
-2.35
0.35
2.32
3.67
4.66
5.43
6.01
6.37
6.51
6.56
6.71
7.11
7.77
8.53
9.16
9.49
9.52
9.34
9.10
8.91
8.78
8.65
8.41
7.96
7.24
6.27
5.09
3.84
2.67
1.71
1.01
0.52
0.09
-0.44
-1.19
-2.21
-3.39
-4.58
-5.60
-6.38
-6.96
-7.51
-8.29
-9.48
-11.15
-13.16
-15.17
-16.78
-17.57
-17.23
-15.68
-13.04
-9.62
-5.91
-2.38
0.59
2.81
4.31
5.27
5.88
6.27
6.52
6.66
6.70
6.71
6.77
6.97
7.34
7.85
8.41
8.89
9.15
9.10
8.72
8.08
7.28
6.44
5.59
4.74
3.83
2.81
1.67
0.46
-0.75
-1.93
-3.06
-4.14
-5.19
-6.17
-7.04
-7.78
-8.40
-9.05
-9.92
-11.16
-12.82
-14.67
-16.25
-16.98
-16.38
-14.25
-10.83
-6.70
-2.55
1.06
3.86
5.88
7.25
8.15
8.67
8.86
8.79
8.60
8.47
8.55
8.88
9.39
9.93
10.36
10.63
10.80
10.94
11.13
11.31
11.37
11.15
10.56
9.62
8.43
7.16
5.96
4.90
3.98
3.14
2.34
1.54
0.74
-0.06
-0.86
-1.71
-2.63
-3.65
-4.78
-6.04
-7.43
-8.88
-10.21
-11.13
-11.28
-10.33
-8.11
-4.72
-0.55
3.77
7.57
10.31
11.76
11.99
11.30
10.07
8.52
6.79
4.87
2.77
0.63
-1.36
-2.98
-4.19
-5.10
-5.93
-6.88
-7.98
-9.06
-9.85
-10.16
-9.95
-9.41
-8.82
-8.45
-8.40
-8.60
-8.88
-9.08
-9.14
-9.09
-9.04
-9.10
-9.28
-9.58
-9.91
-10.23
-10.54
-10.92
-11.47
-12.25
-13.28
-14.50
-15.74
-16.78
-17.30
-17.02
-15.72
-13.36
-10.12
-6.34
-2.47
1.12
4.20
6.72
8.75
10.42
11.77
12.78
13.35
13.38
12.88
11.99
11.00
10.23
9.91
10.09
10.59
11.10
11.33
11.13
10.55
9.80
9.04
8.36
7.63
6.69
5.40
3.76
1.90
0.05
-1.62
-3.00
-4.15
-5.20
-6.33
-7.63
-9.14
-10.78
-12.45
-14.06
-15.57
-16.88
-17.84
-18.19
-17.65
-15.99
-13.22
-9.55
-5.41
-1.27
2.51
5.73
8.30
10.18
11.37
11.86
11.76
11.30
10.78
10.45
10.43
10.70
11.10
11.50
11.83
12.08
12.25
12.26
11.99
11.34
10.26
8.83
7.25
5.69
4.26
2.93
1.59
0.13
-1.51
-3.30
-5.14
-6.92
-8.60
-10.13
-11.59
-13.08
-14.74
-16.68
-18.94
-21.38
-23.68
-25.35
-25.87
-24.82
-22.11
-17.97
-12.92
-7.59
-2.55
1.87
5.53
8.49
10.86
12.74
14.17
15.23
16.00
16.62
17.23
17.88
18.55
19.09
19.34
19.19
18.70
18.00
17.32
16.81
16.45
16.08
15.42
14.26
12.59
10.56
8.48
6.60
5.05
3.78
2.63
1.44
0.15
-1.22
-2.65
-4.10
-5.60
-7.16
-8.79
-10.42
-12.05
-13.73
-15.61
-17.82
-20.36
-22.95
-25.06
-26.08
-25.53
-23.26
-19.55
-14.94
-10.04
-5.34
-1.12
2.57
5.68
8.20
10.06
11.24
11.84
12.07
12.23
12.50
12.96
13.48
13.88
14.00
13.80
13.37
12.82
12.23
11.62
10.94
10.13
9.17
8.07
6.85
5.50
3.97
2.26
0.41
-1.50
-3.38
-5.14
-6.77
-8.27
-9.58
-10.59
-11.20
-11.35
-11.15
-10.87
-10.88
-11.51
-12.84
-14.72
-16.65
-18.04
-18.26
-16.92
-13.94
-9.61
-4.46
0.87
5.84
10.11
13.52
16.10
17.88
18.94
19.34
19.18
18.63
17.87
17.14
16.57
16.23
16.06
15.99
15.90
15.74
15.43
14.91
14.08
12.87
11.26
9.36
7.35
5.46
3.82
2.41
1.09
-0.32
-1.92
-3.73
-5.61
-7.44
-9.13
-10.73
-12.38
-14.23
-16.38
-18.80
-21.36
-23.81
-25.80
-26.95
-26.88
-25.34
-22.27
-17.90
-12.67
-7.20
-2.06
2.38
6.00
8.87
11.13
12.88
14.11
14.81
15.06
15.06
15.15
15.55
16.34
17.35
18.31
18.97
19.23
19.19
18.99
18.70
18.24
17.45
16.21
14.55
12.64
10.75
9.06
7.59
6.20
4.70
2.95
0.97
-1.14
-3.21
-5.07
-6.69
-8.10
-9.41
-10.80
-12.40
-14.29
-16.48
-18.85
-21.22
-23.29
-24.68
-24.99
-23.90
-21.28
-17.33
-12.52
-7.55
-3.07
0.47
2.96
4.58
5.59
6.23
6.58
6.66
6.50
6.25
6.13
6.36
7.01
7.95
8.85
9.41
9.42
8.91
8.08
7.15
6.28
5.45
4.56
3.47
2.14
0.63
-0.91
-2.33
-3.57
-4.66
-5.74
-6.91
-8.26
-9.76
-11.35
-12.96
-14.57
-16.12
-17.52
-18.51
-18.73
-17.81
-15.56
-12.07
-7.73
-3.11
1.28
5.09
8.18
10.51
12.11
12.96
13.11
12.71
12.03
11.38
10.98
10.86
10.89
10.85
10.60
10.13
9.59
9.24
9.32
9.89
10.83
11.76
12.14
11.44
9.35
5.85
1.30
-3.77
-8.81
-13.41
-17.42
-20.84
-23.78
-26.39
-28.77
-30.84
-32.30
-32.59
-31.00
-26.91
-20.05
-10.65
0.57
12.60
24.28
34.34
41.50
44.67
43.26
37.55
28.74
18.61
8.95
0.95
-5.11
-9.68
-13.45
-16.97
-20.37
-23.50
-26.10
-27.98
-28.96
-28.96
-27.95
-26.19
-24.26
-22.96
-23.11
-25.14
-28.93
-33.84
-38.91
-43.27
-46.37
-48.08
-48.66
-48.61
-48.44
-48.61
-49.44
-51.05
-53.27
-55.60
-57.17
-56.97
-54.07
-47.99
-38.90
-27.67
-15.58
-3.99
6.10
14.14
20.10
24.19
26.73
28.03
28.35
28.01
27.38
26.86
26.76
27.17
27.99
28.94
29.67
29.94
29.61
28.74
27.42
25.75
23.72
21.27
18.34
14.95
11.28
7.61
4.24
1.37
-1.01
-3.13
-5.35
-8.14
-11.80
-16.34
-21.35
-26.00
-29.22
-29.99
-27.70
-22.37
-14.69
-5.79
3.09
10.92
17.14
21.60
24.50
26.12
26.77
26.71
26.16
25.38
24.62
24.11
23.93
24.04
24.26
24.37
24.22
23.74
23.00
22.04
20.86
19.37
17.42
14.95
11.99
8.76
5.51
2.46
-0.28
-2.75
-5.17
-7.82
-11.00
-14.87
-19.23
-23.45
-26.49
-27.24
-24.89
-19.30
-11.18
-1.81
7.32
15.09
20.93
24.85
27.19
28.29
28.36
27.49
25.83
23.72
21.68
20.23
19.69
19.98
20.72
21.37
21.54
21.11
20.28
19.32
18.44
17.56
16.37
14.48
11.65
7.97
3.80
-0.31
-3.89
-6.71
-8.85
-10.63
-12.51
-14.88
-18.01
-21.92
-26.32
-30.53
-33.54
-34.24
-31.75
-25.85
-17.15
-6.97
3.02
11.41
17.42
21.02
22.70
23.12
22.77
21.89
20.61
19.09
17.62
16.56
16.17
16.47
17.24
18.12
18.80
19.15
19.20
19.05
18.72
18.08
16.90
14.99
12.33
9.11
5.66
2.32
-0.70
-3.34
-5.70
-7.94
-10.28
-12.91
-15.91
-19.11
-22.04
-23.86
-23.64
-20.62
-14.56
-5.92
4.26
14.69
24.17
31.92
37.55
41.05
42.59
42.46
41.09
39.12
37.29
36.40
37.02
39.29
42.75
46.34
48.63
48.21
44.17
36.53
26.27
15.11
4.92
-2.85
-7.59
-9.59
-9.72
-9.04
-8.48
-8.66
-9.92
-12.29
-15.55
-19.21
-22.60
-24.97
-25.79
-24.89
-22.49
-19.05
-15.01
-10.57
-5.68
0.01
6.94
15.57
26.11
38.24
50.77
61.60
68.10
67.94
60.22
46.11
28.81
12.47
0.66
-4.96
-5.06
-2.03
1.34
3.09
2.63
0.50
-2.44
-5.64
-9.07
-12.97
-17.34
-21.72
-25.27
-27.30
-27.70
-27.08
-26.48
-26.86
-28.62
-31.49
-34.74
-37.66
-39.93
-41.76
-43.75
-46.57
-50.55
-55.58
-61.08
-66.25
-70.29
-72.66
-73.07
-71.51
-68.15
-63.25
-57.10
-50.02
-42.31
-34.27
-26.09
-17.90
-9.75
-1.73
6.04
13.35
20.01
25.92
31.10
35.60
39.41
42.38
44.29
44.96
44.42
42.93
40.97
38.98
37.25
35.79
34.39
32.78
30.70
28.11
25.19
22.39
20.33
19.63
20.70
23.45
27.28
31.22
34.19
35.44
34.77
32.56
29.51
26.36
23.61
21.39
19.57
17.86
16.06
14.09
12.09
10.30
9.01
8.44
8.75
9.80
11.08
11.61
10.19
5.86
-1.49
-10.75
-19.85
-26.52
-29.28
-28.18
-24.69
-20.88
-18.34
-17.43
-17.36
-17.07
-16.08
-15.05
-15.44
-18.62
-25.08
-33.96
-43.40
-51.31
-56.25
-57.89
-56.92
-54.60
-52.11
-50.07
-48.51
-47.05
-45.27
-43.09
-40.82
-39.03
-38.31
-38.97
-40.92
-43.80
-47.14
-50.53
-53.55
-55.74
-56.68
-56.18
-54.57
-52.74
-51.90
-53.02
-56.41
-61.44
-66.85
-71.14
-73.11
-72.04
-67.66
-59.99
-49.25
-35.90
-20.77
-4.94
10.41
24.31
36.18
45.92
53.82
60.42
66.34
72.00
77.48
82.40
85.99
87.43
86.17
82.23
76.10
68.58
60.40
52.09
43.89
35.88
28.07
20.45
13.07
6.03
-0.45
-6.00
-10.16
-12.60
-13.34
-12.86
-12.09
-12.02
-13.35
-16.13
-19.66
-22.62
-23.45
-20.74
-13.67
-2.36
12.00
27.37
41.25
51.48
56.80
57.29
54.21
49.47
44.91
41.72
40.15
39.76
39.79
39.63
38.96
37.76
36.14
34.19
31.93
29.33
26.40
23.29
20.19
17.31
14.72
12.29
9.74
6.78
3.23
-0.82
-5.05
-9.01
-12.35
-14.96
-17.07
-19.16
-21.70
-24.94
-28.72
-32.48
-35.46
-36.96
-36.68
-34.74
-31.62
-27.96
-24.27
-20.87
-17.87
-15.34
-13.32
-11.87
-10.99
-10.59
-10.44
-10.29
-9.99
-9.47
-8.84
-8.21
-7.71
-7.38
-7.25
-7.27
-7.38
-7.52
-7.67
-7.87
-8.24
-8.94
-10.10
-11.72
-13.65
-15.65
-17.44
-18.84
-19.85
-20.61
-21.40
-22.51
-24.13
-26.24
-28.52
-30.28
-30.67
-28.89
-24.49
-17.66
-9.16
-0.14
8.27
15.33
20.76
24.73
27.57
29.55
30.78
31.26
31.02
30.18
29.03
27.87
26.96
26.40
26.15
26.04
25.85
25.40
24.59
23.38
21.85
20.10
18.24
16.30
14.26
12.06
9.69
7.18
4.65
2.22
-0.04
-2.16
-4.21
-6.26
-8.31
-10.26
-12.04
-13.67
-15.32
-17.26
-19.73
-22.73
-25.89
-28.46
-29.51
-28.28
-24.44
-18.28
-10.67
-2.76
4.38
10.07
14.12
16.72
18.24
19.02
19.26
19.10
18.66
18.13
17.71
17.54
17.63
17.81
17.87
17.66
17.14
16.46
15.78
15.17
14.56
13.73
12.51
10.81
8.76
6.53
4.29
2.11
-0.07
-2.33
-4.68
-7.02
-9.15
-10.92
-12.29
-13.38
-14.40
-15.54
-16.98
-18.82
-21.11
-23.81
-26.72
-29.39
-31.14
-31.20
-28.99
-24.37
-17.75
-10.07
-2.45
4.09
8.99
12.14
13.84
14.54
14.59
14.21
13.51
12.58
11.57
10.67
10.02
9.62
9.32
8.93
8.33
7.56
6.79
6.19
5.82
5.55
5.10
4.16
2.52
0.20
-2.58
-5.48
-8.12
-10.24
-11.77
-12.81
-13.61
-14.47
-15.60
-17.09
-18.84
-20.56
-21.80
-21.97
-20.57
-17.28
-12.18
-5.79
1.11
7.64
13.14
17.30
20.12
21.81
22.55
22.49
21.69
20.28
18.52
16.80
15.55
15.00
15.16
15.70
16.14
16.03
15.18
13.68
11.86
10.10
8.61
7.33
6.01
4.30
2.03
-0.70
-3.58
-6.26
-8.48
-10.19
-11.52
-12.66
-13.82
-15.12
-16.68
-18.58
-20.89
-23.52
-26.15
-28.19
-28.84
-27.42
-23.59
-17.60
-10.24
-2.60
4.25
9.59
13.19
15.27
16.27
16.61
16.57
16.26
15.72
15.05
14.41
14.05
14.11
14.57
15.26
15.87
16.13
15.90
15.22
14.27
13.31
12.49
11.81
11.08
10.06
8.53
6.45
3.95
1.35
-1.04
-3.01
-4.49
-5.59
-6.52
-7.56
-8.97
-10.89
-13.26
-15.66
-17.39
-17.63
-15.72
-11.42
-5.07
2.54
10.44
17.84
24.27
29.62
33.98
37.47
40.13
41.84
42.34
41.27
38.26
32.99
25.37
15.63
4.33
-7.70
-19.53
-30.31
-39.41
-46.51
-51.58
-54.76
-56.32
-56.59
-55.97
-54.84
-53.55
-52.29
-51.02
-49.50
-47.40
-44.53
-40.99
-37.27
-34.12
-32.23
-31.89
-32.76
-33.97
-34.32
-32.79
-28.84
-22.58
-14.69
-6.16
1.98
8.93
14.25
17.84
19.89
20.70
20.64
20.00
18.98
17.74
16.45
15.30
14.53
14.33
14.77
15.72
16.91
17.97
18.61
18.72
18.32
17.56
16.59
15.50
14.31
13.01
11.58
9.97
8.15
6.03
3.51
0.59
-2.53
-5.37
-7.18
-7.17
-4.78
0.03
6.74
14.34
21.67
27.76
32.07
34.48
35.19
34.56
32.96
30.75
28.30
25.95
24.07
23.02
23.14
24.63
27.47
31.14
34.68
36.75
36.09
31.95
24.43
14.51
3.64
-6.80
-15.94
-23.63
-30.30
-36.65
-43.23
-50.37
-58.04
-65.93
-73.47
-79.87
-84.22
-85.62
-83.46
-77.63
-68.66
-57.62
-45.87
-34.68
-24.94
-17.05
-10.98
-6.46
-3.17
-0.86
0.71
1.76
2.55
3.39
4.51
6.03
7.89
9.86
11.63
12.91
13.46
13.18
12.15
10.55
8.63
6.62
4.67
2.78
0.84
-1.34
-3.91
-6.98
-10.46
-14.04
-17.15
-19.05
-18.95
-16.35
-11.24
-4.20
3.75
11.43
17.87
22.56
25.46
26.86
27.22
26.91
26.23
25.38
24.55
23.83
23.25
22.77
22.27
21.62
20.75
19.69
18.52
17.31
16.06
14.71
13.16
11.31
9.12
6.65
4.00
1.31
-1.29
-3.68
-5.81
-7.77
-9.80
-12.25
-15.45
-19.47
-23.97
-28.08
-30.66
-30.61
-27.35
-21.06
-12.66
-3.51
5.04
12.04
17.11
20.38
22.29
23.30
23.78
23.89
23.70
23.26
22.67
22.11
21.80
21.87
22.30
22.92
23.45
23.64
23.34
22.60
21.59
20.51
19.48
18.44
17.24
15.68
13.65
11.20
8.60
6.18
4.28
3.01
2.22
1.51
0.44
-1.36
-3.94
-7.03
-10.21
-13.03
-15.28
-17.00
-18.43
-19.89
-21.64
-23.89
-26.76
-30.28
-34.27
-38.17
-41.06
-41.77
-39.36
-33.52
-24.84
-14.63
-4.52
4.13
10.63
15.00
17.70
19.29
20.12
20.37
20.16
19.68
19.23
19.11
19.47
20.21
21.06
21.73
22.02
21.94
21.56
21.01
20.34
19.53
18.58
17.46
16.21
14.85
13.35
11.66
9.71
7.54
5.32
3.25
1.53
0.21
-0.86
-1.99
-3.49
-5.55
-8.08
-10.76
-13.17
-14.97
-16.12
-16.88
-17.72
-19.11
-21.35
-24.42
-28.01
-31.58
-34.44
-35.90
-35.39
-32.57
-27.43
-20.37
-12.16
-3.77
3.80
9.84
14.04
16.50
17.62
17.91
17.76
17.43
17.02
16.57
16.14
15.81
15.67
15.75
15.97
16.18
16.25
16.13
15.86
15.52
15.11
14.53
13.60
12.20
10.35
8.28
6.31
4.71
3.52
2.52
1.36
-0.28
-2.47
-5.01
-7.54
-9.75
-11.47
-12.76
-13.83
-14.92
-16.27
-18.06
-20.43
-23.36
-26.58
-29.43
-31.00
-30.37
-26.99
-20.97
-13.15
-4.80
2.75
8.63
12.55
14.77
15.84
16.26
16.33
16.11
15.63
14.98
14.37
14.07
14.23
14.78
15.43
15.84
15.79
15.28
14.53
13.83
13.34
13.00
12.63
11.98
10.91
9.43
7.64
5.71
3.78
1.94
0.30
-1.05
-2.06
-2.80
-3.47
-4.32
-5.57
-7.30
-9.39
-11.57
-13.58
-15.26
-16.59
-17.72
-18.88
-20.30
-22.20
-24.67
-27.62
-30.69
-33.25
-34.46
-33.53
-30.06
-24.16
-16.57
-8.43
-0.91
5.13
9.34
11.92
13.36
14.23
14.88
15.44
15.84
16.02
15.96
15.79
15.67
15.71
15.90
16.14
16.29
16.30
16.18
16.01
15.80
15.48
14.92
14.01
12.72
11.12
9.39
7.71
6.19
4.84
3.61
2.41
1.20
0.01
-1.14
-2.22
-3.28
-4.41
-5.70
-7.18
-8.78
-10.37
-11.84
-13.13
-14.29
-15.46
-16.83
-18.51
-20.60
-23.11
-25.95
-28.88
-31.46
-33.04
-32.90
-30.46
-25.58
-18.69
-10.73
-2.91
3.76
8.68
11.84
13.66
14.65
15.24
15.56
15.57
15.19
14.48
13.70
13.16
13.14
13.64
14.45
15.24
15.71
15.73
15.40
14.88
14.31
13.71
12.96
11.92
10.53
8.93
7.32
5.91
4.74
3.73
2.71
1.56
0.30
-0.91
-1.92
-2.71
-3.41
-4.29
-5.56
-7.23
-9.13
-10.95
-12.42
-13.46
-14.17
-14.80
-15.69
-17.10
-19.18
-21.91
-25.02
-28.00
-30.14
-30.65
-28.95
-24.87
-18.77
-11.46
-3.99
2.71
8.01
11.72
13.95
15.04
15.30
14.98
14.25
13.24
12.12
11.14
10.52
10.43
10.88
11.69
12.60
13.35
13.79
13.95
13.90
13.72
13.40
12.85
11.99
10.76
9.20
7.40
5.50
3.65
2.01
0.70
-0.22
-0.77
-1.12
-1.51
-2.25
-3.56
-5.48
-7.87
-10.42
-12.82
-14.84
-16.49
-17.91
-19.37
-21.14
-23.40
-26.24
-29.52
-32.91
-35.78
-37.36
-36.82
-33.66
-27.92
-20.27
-11.91
-4.13
2.09
6.38
8.94
10.33
11.09
11.59
11.97
12.23
12.42
12.68
13.16
13.94
14.95
15.97
16.78
17.26
17.43
17.39
17.26
17.06
16.69
16.06
15.12
13.92
12.56
11.10
9.54
7.83
5.97
4.03
2.20
0.66
-0.50
-1.40
-2.29
-3.45
-5.04
-7.00
-9.15
-11.23
-13.09
-14.64
-15.96
-17.16
-18.39
-19.81
-21.60
-23.91
-26.72
-29.78
-32.49
-34.01
-33.50
-30.38
-24.64
-16.89
-8.25
0.02
6.90
11.82
14.83
16.30
16.76
16.65
16.19
15.50
14.66
13.85
13.31
13.26
13.80
14.81
16.04
17.17
17.93
18.21
18.04
17.54
16.85
16.03
15.11
14.03
12.73
11.20
9.46
7.56
5.59
3.66
1.87
0.35
-0.88
-1.93
-3.01
-4.39
-6.21
-8.43
-10.75
-12.83
-14.44
-15.58
-16.51
-17.57
-19.09
-21.24
-24.05
-27.37
-30.86
-33.94
-35.80
-35.62
-32.81
-27.28
-19.59
-10.77
-2.05
5.49
11.21
14.94
16.84
17.30
16.70
15.42
13.80
12.21
11.02
10.51
10.81
11.81
13.19
14.52
15.45
15.84
15.76
15.42
15.01
14.54
13.87
12.80
11.21
9.19
6.97
4.84
2.98
1.38
-0.12
-1.72
-3.56
-5.67
-7.96
-10.29
-12.56
-14.67
-16.59
-18.36
-20.13
-22.16
-24.71
-27.89
-31.43
-34.62
-36.38
-35.69
-31.94
-25.26
-16.54
-7.15
1.51
8.46
13.32
16.24
17.69
18.17
18.04
17.54
16.82
16.10
15.61
15.56
16.06
17.01
18.16
19.17
19.77
19.86
19.49
18.87
18.17
17.47
16.66
15.56
14.00
11.94
9.50
6.94
4.53
2.48
0.81
-0.63
-2.04
-3.63
-5.52
-7.68
-9.96
-12.14
-14.04
-15.57
-16.86
-18.18
-19.95
-22.54
-26.11
-30.44
-34.83
-38.23
-39.46
-37.56
-32.21
-23.91
-13.85
-3.63
5.29
12.01
16.34
18.70
19.76
20.16
20.25
20.15
19.91
19.63
19.51
19.81
20.62
21.92
23.49
25.04
26.34
27.22
27.64
27.63
27.25
26.59
25.74
24.80
23.82
22.85
21.92
21.04
20.26
19.65
19.30
19.24
19.38
19.56
19.54
19.14
18.35
17.38
16.59
16.30
16.66
17.48
18.35
18.82
18.66
17.93
16.90
15.84
14.84
13.89
12.97
12.17
11.63
11.34
10.88
9.49
6.45
1.49
-4.96
-12.01
-18.81
-24.98
-30.67
-36.19
-41.40
-45.44
-46.95
-44.68
-38.19
-28.15
-16.09
-3.79
7.35
16.62
24.05
30.04
35.07
39.39
42.96
45.45
46.44
45.61
42.94
38.73
33.61
28.31
23.52
19.70
17.05
15.55
14.99
15.03
15.29
15.41
15.10
14.23
12.89
11.35
9.97
9.05
8.68
8.71
8.88
8.91
8.63
8.02
7.16
6.16
5.08
3.93
2.75
1.61
0.70
0.18
0.10
0.35
0.68
0.82
0.65
0.28
0.01
0.15
0.80
1.74
2.51
2.59
1.66
-0.28
-2.98
-6.03
-9.11
-12.07
-14.91
-17.73
-20.64
-23.68
-26.86
-30.07
-33.11
-35.70
-37.49
-38.20
-37.69
-36.00
-33.36
-30.07
-26.46
-22.80
-19.30
-16.06
-13.14
-10.58
-8.36
-6.47
-4.88
-3.57
-2.51
-1.66
-1.01
-0.55
-0.33
-0.38
-0.74
-1.38
-2.16
-2.92
-3.50
-3.85
-4.00
-4.05
-4.09
-4.14
-4.13
-3.91
-3.33
-2.31
-0.93
0.57
1.81
2.36
1.88
0.25
-2.41
-5.79
-9.40
-12.76
-15.45
-17.17
-17.80
-17.45
-16.44
-15.27
-14.48
-14.38
-15.03
-16.16
-17.38
-18.40
-19.13
-19.70
-20.29
-20.95
-21.53
-21.80
-21.55
-20.81
-19.76
-18.63
-17.54
-16.42
-15.14
-13.62
-11.96
-10.41
-9.28
-8.67
-8.49
-8.46
-8.27
-7.74
-6.92
-5.95
-5.02
-4.18
-3.35
-2.41
-1.29
-0.06
1.13
2.13
2.89
3.47
4.01
4.62
5.26
5.80
6.09
6.06
5.79
5.45
5.20
5.10
5.14
5.23
5.33
5.43
5.54
5.62
5.56
5.16
4.26
2.79
0.81
-1.49
-3.87
-6.18
-8.37
-10.50
-12.67
-14.92
-17.19
-19.34
-21.18
-22.59
-23.54
-24.06
-24.18
-23.93
-23.30
-22.30
-21.00
-19.51
-18.03
-16.66
-15.48
-14.45
-13.52
-12.62
-11.75
-10.96
-10.29
-9.76
-9.33
-8.96
-8.55
-8.03
-7.40
-6.69
-5.96
-5.31
-4.79
-4.39
-4.04
-3.66
-3.22
-2.71
-2.17
-1.63
-1.07
-0.43
0.33
1.19
2.00
2.62
2.93
2.95
2.85
2.85
3.12
3.66
4.34
4.96
5.38
5.54
5.52
5.41
5.29
5.21
5.22
5.43
5.91
6.74
7.90
9.26
10.60
11.72
12.45
12.73
12.59
12.09
11.36
10.53
9.77
9.25
9.06
9.20
9.53
9.86
10.04
10.07
10.11
10.37
10.98
11.92
12.94
13.74
14.08
13.88
13.22
12.23
10.94
9.32
7.33
5.03
2.65
0.50
-1.15
-2.25
-3.02
-3.76
-4.70
-5.86
-7.01
-7.86
-8.18
-7.99
-7.46
-6.84
-6.28
-5.79
-5.29
-4.71
-4.06
-3.46
-3.06
-2.90
-2.89
-2.84
-2.57
-2.01
-1.34
-0.81
-0.74
-1.30
-2.49
-4.19
-6.24
-8.52
-10.96
-13.55
-16.23
-18.86
-21.29
-23.37
-25.07
-26.42
-27.43
-28.10
-28.31
-28.00
-27.15
-25.93
-24.64
-23.53
-22.68
-21.84
-20.57
-18.31
-14.68
-9.56
-3.13
4.17
11.77
18.99
25.13
29.53
31.76
31.78
30.02
27.21
24.13
21.29
18.81
16.47
13.96
11.11
8.00
4.84
1.88
-0.69
-2.78
-4.32
-5.24
-5.49
-5.05
-3.98
-2.36
-0.33
1.93
4.24
6.42
8.36
10.01
11.40
12.52
13.26
13.35
12.53
10.63
7.70
3.99
-0.23
-4.74
-9.40
-13.95
-17.96
-20.83
-22.06
-21.47
-19.37
-16.37
-13.19
-10.28
-7.76
-5.46
-3.16
-0.80
1.53
3.60
5.23
6.45
7.44
8.54
10.00
11.88
13.98
16.02
17.76
19.16
20.39
21.63
22.92
24.06
24.77
24.90
24.58
24.21
24.14
24.41
24.68
24.39
23.07
20.57
17.02
12.66
7.70
2.33
-3.14
-8.22
-12.31
-15.00
-16.19
-16.19
-15.44
-14.23
-12.59
-10.40
-7.67
-4.74
-2.28
-0.96
-1.16
-2.71
-5.01
-7.32
-9.08
-10.10
-10.50
-10.53
-10.30
-9.76
-8.69
-6.94
-4.53
-1.77
0.91
3.10
4.50
5.04
4.69
3.51
1.57
-0.96
-3.78
-6.48
-8.65
-10.05
-10.65
-10.58
-10.07
-9.33
-8.57
-7.95
-7.61
-7.57
-7.76
-7.96
-7.92
-7.48
-6.64
-5.58
-4.55
-3.82
-3.53
-3.75
-4.36
-5.12
-5.74
-5.88
-5.34
-4.10
-2.38
-0.52
1.11
2.24
2.78
2.77
2.38
1.80
1.22
0.77
0.51
0.42
0.40
0.36
0.22
0.01
-0.20
-0.27
-0.11
0.35
1.08
1.97
2.87
3.64
4.20
4.57
4.79
4.94
5.02
5.00
4.87
4.67
4.47
4.38
4.39
4.42
4.31
3.95
3.31
2.52
1.75
1.14
0.78
0.62
0.56
0.52
0.42
0.23
-0.04
-0.32
-0.58
-0.79
-1.00
-1.31
-1.78
-2.45
-3.22
-3.92
-4.38
-4.52
-4.40
-4.18
-4.02
-4.01
-4.11
-4.18
-4.09
-3.81
-3.39
-2.95
-2.61
-2.40
-2.28
-2.12
-1.82
-1.28
-0.55
0.31
1.16
1.88
2.41
2.69
2.75
2.66
2.51
2.39
2.34
2.35
2.34
2.17
1.75
1.03
0.10
-0.84
-1.59
-1.97
-1.98
-1.67
-1.18
-0.60
0.06
0.83
1.69
2.58
3.35
3.92
4.24
4.41
4.53
4.69
4.84
4.89
4.69
4.22
3.59
2.94
2.40
2.02
1.77
1.59
1.45
1.37
1.39
1.47
1.52
1.37
0.92
0.20
-0.64
-1.32
-1.65
-1.58
-1.22
-0.77
-0.39
-0.07
0.35
1.11
2.35
4.01
5.80
7.32
8.24
8.43
7.91
6.85
5.39
3.65
1.71
-0.30
-2.15
-3.53
-4.20
-4.09
-3.33
-2.23
-1.07
-0.01
0.99
2.06
3.26
4.50
5.53
6.11
6.13
5.71
5.20
4.90
5.02
5.50
6.15
6.78
7.31
7.79
8.32
8.93
9.52
9.95
10.14
10.09
9.90
9.70
9.56
9.43
9.22
8.85
8.27
7.53
6.68
5.79
4.88
3.94
2.95
1.90
0.77
-0.44
-1.73
-3.14
-4.73
-6.51
-8.45
-10.38
-12.03
-13.06
-13.24
-12.56
-11.30
-9.92
-8.84
-8.24
-7.94
-7.55
-6.67
-5.06
-2.79
-0.14
2.57
5.10
7.30
9.06
10.19
10.48
9.82
8.29
6.26
4.25
2.70
1.85
1.64
1.81
2.11
2.41
2.70
3.05
3.42
3.69
3.69
3.30
2.59
1.72
0.89
0.22
-0.32
-0.83
-1.45
-2.20
-3.07
-3.99
-4.94
-5.97
-7.11
-8.38
-9.67
-10.89
-11.92
-12.74
-13.33
-13.72
-13.81
-13.48
-12.58
-11.05
-8.97
-6.53
-3.99
-1.55
0.66
2.59
4.26
5.62
6.60
7.08
7.06
6.63
6.00
5.45
5.17
5.20
5.42
5.63
5.69
5.59
5.42
5.30
5.28
5.26
5.12
4.73
4.11
3.40
2.82
2.54
2.54
2.67
2.65
2.27
1.49
0.45
-0.56
-1.31
-1.70
-1.81
-1.82
-1.88
-2.05
-2.29
-2.52
-2.79
-3.17
-3.76
-4.51
-5.14
-5.31
-4.71
-3.24
-1.11
1.37
3.83
6.09
8.07
9.78
11.17
12.15
12.61
12.53
12.05
11.41
10.86
10.44
10.07
9.52
8.66
7.53
6.36
5.41
4.86
4.62
4.46
4.04
3.17
1.84
0.26
-1.32
-2.65
-3.62
-4.19
-4.35
-4.17
-3.71
-3.12
-2.63
-2.40
-2.53
-2.97
-3.56
-4.15
-4.66
-5.07
-5.43
-5.81
-6.20
-6.60
-6.98
-7.34
-7.71
-8.12
-8.56
-8.95
-9.19
-9.16
-8.80
-8.16
-7.34
-6.51
-5.74
-5.06
-4.39
-3.67
-2.83
-1.92
-1.03
-0.29
0.22
0.47
0.54
0.56
0.65
0.89
1.26
1.66
1.99
2.20
2.31
2.40
2.56
2.82
3.08
3.26
3.28
3.17
3.03
2.97
3.08
3.35
3.81
4.45
5.28
6.33
7.53
8.76
9.82
10.60
11.01
11.09
10.90
10.45
9.73
8.73
7.50
6.17
4.92
3.91
3.19
2.72
2.38
2.08
1.74
1.33
0.86
0.36
-0.16
-0.64
-1.03
-1.25
-1.25
-0.97
-0.42
0.33
1.15
1.90
2.43
2.72
2.81
2.81
2.80
2.75
2.62
2.30
1.80
1.19
0.61
0.15
-0.19
-0.45
-0.74
-1.10
-1.50
-1.87
-2.20
-2.51
-2.92
-3.54
-4.41
-5.48
-6.57
-7.47
-7.99
-8.10
-7.87
-7.49
-7.13
-6.88
-6.70
-6.49
-6.20
-5.90
-5.74
-5.86
-6.30
-6.95
-7.63
-8.16
-8.51
-8.76
-8.99
-9.26
-9.48
-9.49
-9.16
-8.50
-7.57
-6.51
-5.41
-4.34
-3.35
-2.50
-1.87
-1.48
-1.24
-0.94
-0.29
0.89
2.67
4.84
7.13
9.19
10.81
11.88
12.44
12.60
12.46
12.11
11.60
11.02
10.42
9.82
9.19
8.42
7.39
6.04
4.39
2.63
0.99
-0.26
-0.96
-1.11
-0.86
-0.48
-0.21
-0.19
-0.46
-0.99
-1.72
-2.61
-3.61
-4.67
-5.59
-6.16
-6.13
-5.46
-4.26
-2.86
-1.55
-0.55
0.16
0.71
1.28
1.92
2.54
3.02
3.28
3.37
3.47
3.76
4.32
5.10
5.92
6.59
7.07
7.38
7.67
8.00
8.33
8.50
8.32
7.70
6.73
5.63
4.64
3.93
3.51
3.28
3.06
2.70
2.08
1.14
-0.20
-1.94
-4.00
-6.21
-8.33
-10.11
-11.45
-12.36
-12.96
-13.36
-13.59
-13.55
-13.18
-12.51
-11.70
-11.01
-10.62
-10.54
-10.54
-10.31
-9.61
-8.41
-6.88
-5.34
-4.04
-3.07
-2.35
-1.75
-1.22
-0.82
-0.68
-0.85
-1.23
-1.56
-1.58
-1.11
-0.21
0.96
2.15
3.23
4.12
4.84
5.38
5.69
5.68
5.37
4.84
4.29
3.89
3.72
3.71
3.70
3.53
3.13
2.54
1.91
1.40
1.12
1.02
0.94
0.71
0.20
-0.59
-1.48
-2.25
-2.69
-2.71
-2.38
-1.84
-1.25
-0.70
-0.23
0.16
0.47
0.70
0.87
1.03
1.25
1.56
1.96
2.36
2.67
2.86
2.92
2.95
3.01
3.10
3.13
3.01
2.68
2.17
1.59
1.01
0.49
0.01
-0.45
-0.86
-1.14
-1.15
-0.86
-0.30
0.39
1.03
1.43
1.52
1.24
0.64
-0.17
-1.01
-1.68
-2.02
-1.95
-1.56
-1.02
-0.57
-0.42
-0.65
-1.24
-2.03
-2.83
-3.41
-3.58
-3.28
-2.58
-1.68
-0.90
-0.49
-0.60
-1.17
-1.98
-2.76
-3.29
-3.47
-3.31
-2.90
-2.33
-1.67
-0.98
-0.31
0.24
0.56
0.56
0.25
-0.20
-0.53
-0.49
0.10
1.17
2.50
3.77
4.68
5.11
5.10
4.80
4.38
3.97
3.63
3.37
3.18
3.02
2.86
2.67
2.37
1.94
1.35
0.62
-0.21
-1.09
-1.93
-2.68
-3.32
-3.89
-4.44
-5.01
-5.59
-6.12
-6.47
-6.48
-6.07
-5.27
-4.18
-2.98
-1.86
-0.93
-0.16
0.52
1.22
1.95
2.65
3.17
3.42
3.41
3.30
3.35
3.73
4.48
5.43
6.38
7.11
7.57
7.79
7.84
7.74
7.39
6.76
5.85
4.83
3.93
3.34
3.09
3.05
2.96
2.59
1.85
0.81
-0.31
-1.30
-2.02
-2.47
-2.76
-3.07
-3.53
-4.16
-4.88
-5.59
-6.19
-6.66
-7.04
-7.37
-7.59
-7.59
-7.21
-6.36
-5.10
-3.65
-2.28
-1.23
-0.60
-0.29
-0.16
-0.05
0.10
0.28
0.47
0.69
0.98
1.41
1.95
2.54
3.04
3.37
3.55
3.68
3.88
4.20
4.61
4.95
5.11
5.04
4.79
4.45
4.12
3.83
3.54
3.19
2.74
2.20
1.62
1.04
0.48
-0.07
-0.62
-1.16
-1.67
-2.10
-2.46
-2.78
-3.19
-3.81
-4.71
-5.81
-6.93
-7.82
-8.26
-8.19
-7.67
-6.84
-5.85
-4.72
-3.46
-2.04
-0.54
0.93
2.23
3.29
4.09
4.67
5.03
5.17
5.10
4.92
4.79
4.88
5.29
5.97
6.72
7.34
7.68
7.69
7.44
7.05
6.60
6.15
5.72
5.30
4.91
4.59
4.38
4.28
4.22
4.07
3.70
3.01
2.06
0.97
-0.05
-0.86
-1.44
-1.84
-2.15
-2.43
-2.74
-3.10
-3.59
-4.36
-5.50
-7.02
-8.75
-10.37
-11.47
-11.76
-11.19
-9.95
-8.43
-7.02
-5.94
-5.14
-4.45
-3.65
-2.68
-1.63
-0.69
-0.03
0.36
0.61
0.90
1.31
1.83
2.32
2.68
2.92
3.12
3.41
3.84
4.33
4.74
4.91
4.75
4.26
3.56
2.78
2.06
1.45
0.93
0.46
0.05
-0.30
-0.57
-0.76
-0.92
-1.10
-1.30
-1.52
-1.70
-1.85
-2.05
-2.41
-3.06
-3.98
-5.09
-6.16
-6.99
-7.46
-7.52
-7.13
-6.31
-5.01
-3.24
-1.09
1.25
3.57
5.67
7.46
8.92
10.08
10.92
11.45
11.62
11.43
10.99
10.44
9.98
9.72
9.66
9.69
9.63
9.32
8.70
7.82
6.77
5.68
4.61
3.55
2.50
1.45
0.46
-0.41
-1.12
-1.70
-2.25
-2.90
-3.70
-4.59
-5.41
-5.98
-6.20
-6.10
-5.83
-5.57
-5.45
-5.49
-5.66
-5.90
-6.16
-6.44
-6.65
-6.65
-6.24
-5.28
-3.78
-1.93
-0.03
1.61
2.80
3.52
3.90
4.08
4.18
4.21
4.14
3.97
3.77
3.65
3.69
3.90
4.14
4.24
4.07
3.60
2.96
2.32
1.79
1.39
1.04
0.66
0.22
-0.21
-0.52
-0.65
-0.68
-0.68
-0.74
-0.87
-0.96
-0.93
-0.71
-0.36
0.02
0.30
0.46
0.55
0.65
0.78
0.83
0.61
-0.03
-1.15
-2.61
-4.16
-5.54
-6.58
-7.25
-7.57
-7.62
-7.44
-7.05
-6.47
-5.79
-5.09
-4.45
-3.88
-3.31
-2.68
-1.95
-1.17
-0.39
0.31
0.93
1.50
2.10
2.74
3.42
4.06
4.61
5.02
5.26
5.36
5.36
5.32
5.30
5.33
5.41
5.48
5.46
5.30
4.97
4.52
3.99
3.42
2.81
2.17
1.52
0.91
0.41
0.02
-0.32
-0.70
-1.22
-1.91
-2.73
-3.60
-4.43
-5.22
-5.96
-6.62
-7.14
-7.42
-7.37
-6.97
-6.33
-5.58
-4.89
-4.37
-4.03
-3.86
-3.81
-3.83
-3.86
-3.85
-3.67
-3.19
-2.28
-0.89
0.92
2.99
5.10
7.00
8.55
9.65
10.33
10.63
10.62
10.31
9.70
8.80
7.62
6.28
4.91
3.67
2.65
1.80
0.98
0.04
-1.10
-2.38
-3.63
-4.69
-5.50
-6.17
-6.87
-7.73
-8.74
-9.75
-10.55
-10.97
-10.95
-10.52
-9.73
-8.68
-7.47
-6.24
-5.15
-4.32
-3.75
-3.36
-2.98
-2.49
-1.87
-1.18
-0.52
0.09
0.70
1.44
2.33
3.32
4.24
4.89
5.15
5.07
4.82
4.62
4.65
4.90
5.26
5.54
5.58
5.39
5.07
4.79
4.68
4.77
4.98
5.17
5.23
5.08
4.73
4.17
3.44
2.57
1.62
0.68
-0.15
-0.78
-1.15
-1.32
-1.41
-1.63
-2.15
-2.99
-4.01
-4.89
-5.33
-5.11
-4.28
-3.08
-1.83
-0.75
0.10
0.78
1.41
1.99
2.47
2.79
2.97
3.15
3.43
3.85
4.27
4.48
4.32
3.79
3.08
2.47
2.19
2.26
2.53
2.76
2.79
2.58
2.22
1.86
1.58
1.42
1.33
1.25
1.19
1.16
1.19
1.32
1.52
1.76
1.99
2.19
2.29
2.22
1.81
0.93
-0.55
-2.56
-4.85
-6.98
-8.45
-8.89
-8.18
-6.49
-4.16
-1.58
0.92
3.14
5.00
6.47
7.55
8.29
8.79
9.21
9.70
10.26
10.79
11.04
10.77
9.86
8.38
6.57
4.72
3.09
1.77
0.73
-0.16
-1.00
-1.82
-2.59
-3.24
-3.78
-4.26
-4.75
-5.21
-5.54
-5.54
-5.14
-4.45
-3.79
-3.54
-3.96
-5.04
-6.48
-7.91
-9.06
-9.82
-10.28
-10.53
-10.60
-10.40
-9.81
-8.79
-7.43
-5.90
-4.37
-2.97
-1.71
-0.61
0.29
0.93
1.30
1.43
1.44
1.53
1.80
2.33
3.06
3.86
4.58
5.07
5.27
5.13
4.64
3.75
2.50
0.92
-0.83
-2.56
-4.11
-5.38
-6.42
-7.30
-8.11
-8.80
-9.28
-9.43
-9.23
-8.77
-8.27
-7.94
-7.87
-7.99
-8.08
-7.89
-7.29
-6.32
-5.20
-4.19
-3.47
-3.05
-2.79
-2.52
-2.10
-1.53
-0.88
-0.20
0.49
1.26
2.14
3.08
3.92
4.52
4.78
4.80
4.78
4.94
5.38
6.04
6.70
7.12
7.15
6.76
6.04
5.15
4.18
3.22
2.32
1.52
0.91
0.52
0.36
0.29
0.15
-0.21
-0.84
-1.61
-2.35
-2.84
-2.96
-2.76
-2.39
-2.06
-1.92
-2.00
-2.21
-2.40
-2.44
-2.31
-2.05
-1.80
-1.65
-1.66
-1.85
-2.17
-2.60
-3.05
-3.45
-3.68
-3.65
-3.29
-2.64
-1.79
-0.87
0.05
0.93
1.75
2.55
3.31
4.02
4.68
5.29
5.84
6.35
6.78
7.13
7.38
7.51
7.52
7.43
7.26
7.08
6.94
6.83
6.68
6.41
5.91
5.20
4.36
3.57
2.96
2.55
2.25
1.89
1.33
0.55
-0.36
-1.25
-2.07
-2.85
-3.76
-4.95
-6.46
-8.16
-9.80
-11.09
-11.80
-11.91
-11.49
-10.76
-9.87
-8.92
-7.92
-6.85
-5.68
-4.48
-3.31
-2.29
-1.49
-0.95
-0.64
-0.49
-0.41
-0.32
-0.14
0.14
0.50
0.86
1.13
1.24
1.21
1.16
1.21
1.44
1.83
2.32
2.77
3.12
3.34
3.48
3.55
3.54
3.42
3.17
2.77
2.29
1.80
1.37
1.05
0.87
0.85
0.98
1.23
1.49
1.63
1.51
1.09
0.45
-0.22
-0.64
-0.57
0.06
1.10
2.28
3.27
3.90
4.14
4.13
4.04
3.96
3.86
3.68
3.38
3.05
2.81
2.79
3.03
3.40
3.71
3.79
3.59
3.22
2.85
2.64
2.65
2.80
2.96
2.98
2.77
2.34
1.75
1.08
0.35
-0.43
-1.22
-1.90
-2.33
-2.38
-2.05
-1.51
-1.04
-0.87
-1.15
-1.84
-2.77
-3.77
-4.76
-5.72
-6.67
-7.57
-8.29
-8.66
-8.54
-7.89
-6.78
-5.32
-3.62
-1.78
0.13
2.04
3.86
5.50
6.93
8.11
9.04
9.69
10.03
9.99
9.52
8.61
7.37
5.97
4.63
3.57
2.85
2.46
2.25
2.08
1.83
1.51
1.13
0.76
0.35
-0.19
-0.95
-1.95
-3.09
-4.15
-4.94
-5.31
-5.30
-5.06
-4.85
-4.87
-5.25
-5.96
-6.89
-7.90
-8.82
-9.51
-9.86
-9.76
-9.18
-8.15
-6.79
-5.31
-3.89
-2.62
-1.50
-0.43
0.69
1.95
3.26
4.54
5.64
6.47
6.98
7.20
7.20
7.08
6.96
6.93
7.06
7.30
7.48
7.38
6.87
5.95
4.83
3.80
3.10
2.80
2.74
2.69
2.44
1.90
1.11
0.18
-0.80
-1.83
-2.92
-4.05
-5.12
-5.98
-6.52
-6.74
-6.79
-6.93
-7.35
-8.12
-9.07
-9.86
-10.16
-9.79
-8.81
-7.48
-6.11
-4.90
-3.85
-2.81
-1.62
-0.25
1.13
2.27
2.94
3.07
2.81
2.37
1.98
1.75
1.70
1.82
2.08
2.52
3.13
3.84
4.49
4.87
4.81
4.31
3.49
2.58
1.84
1.42
1.36
1.59
1.91
2.12
2.06
1.65
0.90
-0.06
-1.10
-2.06
-2.82
-3.35
-3.66
-3.84
-4.01
-4.33
-4.92
-5.83
-6.99
-8.20
-9.20
-9.74
-9.68
-9.00
-7.84
-6.39
-4.86
-3.41
-2.12
-1.04
-0.15
0.61
1.28
1.96
2.68
3.46
4.25
4.98
5.56
5.96
6.23
6.40
6.53
6.63
6.67
6.67
6.64
6.64
6.65
6.61
6.38
5.85
5.01
4.00
2.99
2.13
1.42
0.72
-0.10
-1.09
-2.14
-3.02
-3.56
-3.71
-3.64
-3.60
-3.82
-4.39
-5.21
-6.06
-6.65
-6.80
-6.46
-5.71
-4.72
-3.65
-2.64
-1.73
-0.96
-0.33
0.14
0.50
0.78
1.06
1.43
1.91
2.51
3.18
3.88
4.53
5.08
5.48
5.69
5.71
5.54
5.23
4.83
4.38
3.94
3.55
3.22
2.98
2.80
2.60
2.34
1.93
1.37
0.67
-0.11
-0.90
-1.61
-2.19
-2.64
-3.03
-3.52
-4.22
-5.19
-6.33
-7.41
-8.12
-8.21
-7.59
-6.39
-4.87
-3.35
-2.05
-1.05
-0.26
0.46
1.19
1.95
2.63
3.14
3.41
3.51
3.57
3.70
3.94
4.23
4.44
4.53
4.52
4.59
4.83
5.20
5.48
5.39
4.77
3.72
2.54
1.59
1.14
1.20
1.52
1.77
1.70
1.24
0.49
-0.38
-1.26
-2.05
-2.76
-3.39
-3.91
-4.36
-4.76
-5.21
-5.80
-6.56
-7.40
-8.13
-8.49
-8.30
-7.52
-6.28
-4.80
-3.35
-2.04
-0.92
0.10
1.06
1.99
2.82
3.51
4.06
4.57
5.15
5.88
6.70
7.45
7.93
8.04
7.77
7.26
6.65
6.06
5.54
5.06
4.58
4.07
3.55
3.03
2.54
2.11
1.77
1.57
1.52
1.58
1.65
1.57
1.22
0.53
-0.45
-1.61
-2.81
-3.95
-5.00
-5.96
-6.78
-7.38
-7.61
-7.40
-6.81
-5.98
-5.14
-4.42
-3.79
-3.13
-2.29
-1.21
0.04
1.27
2.32
3.06
3.49
3.72
3.87
4.00
4.10
4.11
3.93
3.56
3.10
2.74
2.67
2.96
3.51
4.07
4.42
4.41
4.02
3.38
2.55
1.60
0.51
-0.66
-1.79
-2.69
-3.19
-3.33
-3.25
-3.23
-3.46
-4.00
-4.71
-5.34
-5.72
-5.72
-5.38
-4.78
-4.02
-3.16
-2.26
-1.34
-0.44
0.34
0.95
1.35
1.57
1.71
1.92
2.30
2.90
3.65
4.43
5.15
5.74
6.24
6.66
7.00
7.20
7.15
6.82
6.28
5.67
5.13
4.74
4.47
4.19
3.73
3.00
2.01
0.88
-0.25
-1.23
-2.02
-2.63
-3.13
-3.59
-4.00
-4.36
-4.65
-4.95
-5.39
-6.05
-6.98
-8.06
-9.11
-9.95
-10.50
-10.80
-10.94
-11.00
-10.94
-10.65
-10.03
-9.06
-7.89
-6.73
-5.78
-5.12
-4.67
-4.24
-3.69
-2.96
-2.14
-1.36
-0.76
-0.37
-0.19
-0.14
-0.15
-0.13
0.07
0.64
1.76
3.51
5.78
8.27
10.52
12.12
12.83
12.63
11.74
10.43
8.95
7.47
6.05
4.74
3.61
2.77
2.28
2.16
2.27
2.40
2.33
1.94
1.22
0.25
-0.85
-1.99
-3.07
-4.03
-4.76
-5.16
-5.13
-4.66
-3.79
-2.66
-1.46
-0.40
0.33
0.63
0.51
0.09
-0.44
-0.86
-1.02
-0.88
-0.47
0.12
0.75
1.31
1.72
1.98
2.15
2.33
2.59
2.97
3.43
3.86
4.19
4.38
4.42
4.29
3.90
3.11
1.87
0.28
-1.37
-2.72
-3.55
-3.86
-3.90
-4.02
-4.47
-5.29
-6.33
-7.35
-8.18
-8.79
-9.25
-9.64
-10.02
-10.33
-10.46
-10.34
-9.88
-9.10
-8.06
-6.85
-5.63
-4.46
-3.44
-2.58
-1.87
-1.31
-0.87
-0.53
-0.20
0.27
1.03
2.16
3.65
5.35
7.07
8.59
9.77
10.56
10.96
10.97
10.63
10.00
9.13
8.14
7.15
6.22
5.43
4.72
4.02
3.23
2.30
1.28
0.30
-0.51
-1.09
-1.47
-1.79
-2.24
-2.89
-3.71
-4.53
-5.13
-5.32
-4.99
-4.14
-2.87
-1.34
0.24
1.71
2.99
4.07
5.02
5.86
6.62
7.25
7.72
8.03
8.25
8.46
8.74
9.12
9.54
9.89
10.08
10.00
9.59
8.87
7.92
6.87
5.90
5.09
4.41
3.73
2.93
1.99
1.02
0.18
-0.43
-0.84
-1.18
-1.59
-2.12
-2.70
-3.18
-3.49
-3.69
-3.94
-4.41
-5.14
-6.04
-6.90
-7.57
-7.96
-8.13
-8.14
-8.05
-7.82
-7.37
-6.63
-5.57
-4.28
-2.89
-1.53
-0.30
0.75
1.61
2.21
2.49
2.42
2.05
1.49
0.97
0.71
0.86
1.44
2.29
3.15
3.75
3.85
3.35
2.33
0.98
-0.42
-1.60
-2.35
-2.60
-2.44
-2.03
-1.60
-1.36
-1.46
-1.90
-2.60
-3.34
-3.90
-4.13
-3.98
-3.57
-3.07
-2.71
-2.68
-3.09
-3.91
-4.98
-5.99
-6.53
-6.25
-5.02
-2.99
-0.62
1.50
2.90
3.41
3.19
2.62
2.06
1.74
1.64
1.63
1.61
1.56
1.53
1.62
1.89
2.26
2.63
2.84
2.83
2.58
2.17
1.75
1.43
1.28
1.25
1.25
1.18
0.95
0.60
0.17
-0.27
-0.70
-1.16
-1.65
-2.16
-2.59
-2.87
-2.98
-3.00
-3.08
-3.36
-3.89
-4.62
-5.40
-6.06
-6.47
-6.57
-6.37
-5.92
-5.27
-4.47
-3.61
-2.74
-1.91
-1.14
-0.38
0.40
1.18
1.91
2.50
2.92
3.18
3.35
3.49
3.65
3.82
3.93
3.98
3.99
3.98
3.98
3.98
3.92
3.78
3.58
3.35
3.10
2.83
2.49
2.04
1.54
1.07
0.71
0.49
0.31
0.06
-0.37
-0.99
-1.71
-2.46
-3.20
-3.93
-4.66
-5.35
-5.88
-6.17
-6.20
-6.04
-5.82
-5.60
-5.33
-4.93
-4.30
-3.47
-2.57
-1.77
-1.13
-0.62
-0.08
0.60
1.45
2.31
2.98
3.29
3.23
2.95
2.69
2.61
2.74
2.95
3.04
2.91
2.61
2.32
2.24
2.44
2.80
3.09
3.14
2.90
2.52
2.18
1.97
1.86
1.69
1.34
0.77
0.08
-0.58
-1.10
-1.49
-1.81
-2.15
-2.52
-2.89
-3.21
-3.50
-3.85
-4.32
-4.95
-5.65
-6.23
-6.49
-6.27
-5.57
-4.52
-3.32
-2.16
-1.18
-0.40
0.26
0.86
1.44
2.00
2.48
2.81
2.98
3.02
2.99
2.99
3.08
3.26
3.47
3.58
3.53
3.28
2.90
2.50
2.21
2.09
2.14
2.31
2.48
2.51
2.27
1.67
0.72
-0.43
-1.57
-2.51
-3.15
-3.57
-3.92
-4.37
-4.96
-5.57
-6.02
-6.15
-5.99
-5.66
-5.32
-5.05
-4.73
-4.19
-3.27
-2.02
-0.59
0.75
1.79
2.48
2.82
2.93
2.88
2.74
2.57
2.43
2.42
2.61
3.01
3.51
3.98
4.25
4.24
3.99
3.63
3.31
3.17
3.21
3.33
3.35
3.13
2.61
1.89
1.14
0.48
-0.02
-0.45
-0.92
-1.54
-2.27
-2.99
-3.55
-3.89
-4.05
-4.19
-4.45
-4.89
-5.45
-5.98
-6.37
-6.58
-6.61
-6.46
-6.11
-5.48
-4.54
-3.35
-2.03
-0.74
0.40
1.41
2.38
3.39
4.42
5.37
6.04
6.27
6.07
5.56
5.01
4.68
4.71
5.09
5.67
6.23
6.59
6.63
6.37
5.94
5.45
4.97
4.48
3.90
3.15
2.24
1.29
0.47
-0.05
-0.22
-0.15
-0.04
-0.09
-0.40
-0.96
-1.63
-2.29
-2.87
-3.38
-3.88
-4.38
-4.87
-5.26
-5.49
-5.56
-5.53
-5.45
-5.34
-5.20
-4.96
-4.59
-4.07
-3.44
-2.73
-1.97
-1.19
-0.46
0.16
0.58
0.76
0.73
0.60
0.56
0.72
1.13
1.71
2.31
2.76
2.99
3.00
2.91
2.84
2.83
2.85
2.79
2.55
2.17
1.75
1.44
1.32
1.32
1.29
1.05
0.57
-0.04
-0.59
-0.93
-1.05
-1.09
-1.26
-1.70
-2.41
-3.29
-4.13
-4.79
-5.16
-5.26
-5.12
-4.79
-4.34
-3.79
-3.15
-2.42
-1.59
-0.68
0.27
1.16
1.93
2.52
2.94
3.24
3.49
3.75
4.00
4.23
4.37
4.41
4.33
4.19
4.05
4.00
4.06
4.21
4.32
4.24
3.83
3.08
2.10
1.09
0.24
-0.33
-0.67
-0.90
-1.15
-1.49
-1.88
-2.30
-2.72
-3.18
-3.77
-4.55
-5.51
-6.52
-7.39
-7.94
-8.09
-7.81
-7.13
-6.12
-4.86
-3.48
-2.10
-0.89
0.02
0.60
0.86
0.94
0.98
1.12
1.44
1.98
2.70
3.55
4.45
5.32
6.06
6.62
6.92
6.93
6.64
6.10
5.41
4.72
4.16
3.79
3.59
3.46
3.28
2.99
2.59
2.15
1.71
1.25
0.73
0.08
-0.68
-1.49
-2.23
-2.84
-3.33
-3.72
-4.13
-4.60
-5.18
-5.88
-6.70
-7.58
-8.39
-8.93
-8.97
-8.37
-7.17
-5.55
-3.83
-2.26
-0.98
0.03
0.90
1.75
2.60
3.38
4.00
4.37
4.52
4.51
4.43
4.35
4.30
4.27
4.24
4.21
4.22
4.34
4.61
5.05
5.62
6.17
6.51
6.53
6.16
5.50
4.73
4.05
3.58
3.30
3.10
2.82
2.33
1.64
0.82
-0.05
-0.90
-1.72
-2.55
-3.40
-4.29
-5.16
-5.96
-6.63
-7.14
-7.51
-7.73
-7.77
-7.52
-6.93
-5.97
-4.73
-3.39
-2.12
-1.04
-0.15
0.64
1.41
2.19
2.94
3.63
4.22
4.73
5.17
5.53
5.74
5.74
5.53
5.19
4.85
4.63
4.54
4.52
4.46
4.29
4.02
3.71
3.39
3.09
2.71
2.19
1.48
0.64
-0.22
-0.97
-1.51
-1.83
-2.04
-2.31
-2.79
-3.53
-4.45
-5.38
-6.11
-6.50
-6.50
-6.15
-5.56
-4.81
-3.92
-2.91
-1.79
-0.61
0.56
1.61
2.47
3.09
3.50
3.74
3.92
4.10
4.33
4.61
4.88
5.07
5.13
5.06
4.95
4.89
4.96
5.19
5.46
5.66
5.64
5.33
4.75
3.99
3.20
2.46
1.84
1.29
0.70
0.02
-0.77
-1.60
-2.35
-2.96
-3.46
-3.94
-4.48
-5.09
-5.69
-6.12
-6.31
-6.31
-6.26
-6.32
-6.50
-6.65
-6.53
-5.94
-4.86
-3.41
-1.82
-0.33
0.90
1.80
2.35
2.61
2.68
2.66
2.67
2.79
3.02
3.33
3.65
3.95
4.23
4.51
4.76
4.95
5.05
5.04
4.92
4.71
4.40
3.98
3.43
2.76
2.05
1.41
0.94
0.65
0.48
0.32
0.09
-0.26
-0.67
-1.11
-1.55
-2.03
-2.57
-3.15
-3.70
-4.12
-4.34
-4.37
-4.27
-4.10
-3.86
-3.49
-2.92
-2.13
-1.22
-0.32
0.42
0.99
1.42
1.82
2.23
2.66
3.02
3.21
3.18
2.96
2.65
2.37
2.22
2.25
2.44
2.69
2.87
2.88
2.68
2.32
1.95
1.69
1.62
1.68
1.74
1.66
1.32
0.68
-0.24
-1.37
-2.61
-3.82
-4.86
-5.59
-5.94
-5.95
-5.74
-5.48
-5.29
-5.26
-5.42
-5.78
-6.33
-6.98
-7.55
-7.81
-7.54
-6.68
-5.33
-3.76
-2.27
-1.12
-0.42
-0.09
0.03
0.15
0.34
0.57
0.75
0.79
0.72
0.69
0.91
1.49
2.33
3.14
3.61
3.56
3.06
2.37
1.78
1.41
1.22
1.05
0.77
0.42
0.09
-0.09
-0.15
-0.20
-0.40
-0.84
-1.45
-2.05
-2.48
-2.68
-2.74
-2.79
-3.00
-3.42
-4.01
-4.68
-5.33
-5.87
-6.28
-6.50
-6.50
-6.24
-5.69
-4.88
-3.88
-2.79
-1.69
-0.65
0.30
1.11
1.75
2.18
2.39
2.44
2.44
2.56
2.92
3.54
4.33
5.13
5.80
6.30
6.65
6.97
7.28
7.56
7.67
7.46
6.84
5.86
4.67
3.49
2.51
1.81
1.34
0.98
0.59
0.11
-0.43
-0.97
-1.47
-1.92
-2.39
-2.89
-3.40
-3.88
-4.28
-4.62
-4.95
-5.40
-6.02
-6.82
-7.67
-8.39
-8.79
-8.75
-8.22
-7.26
-6.00
-4.61
-3.24
-2.00
-0.92
-0.02
0.72
1.28
1.67
1.92
2.09
2.27
2.50
2.78
3.05
3.23
3.30
3.29
3.29
3.39
3.64
4.03
4.50
4.93
5.22
5.28
5.11
4.72
4.21
3.67
3.15
2.67
2.21
1.75
1.28
0.73
0.09
-0.68
-1.58
-2.53
-3.41
-4.12
-4.66
-5.11
-5.61
-6.29
-7.14
-8.05
-8.87
-9.47
-9.79
-9.78
-9.42
-8.66
-7.50
-6.03
-4.42
-2.86
-1.51
-0.40
0.55
1.40
2.16
2.75
3.10
3.15
3.01
2.87
2.88
3.11
3.48
3.80
3.94
3.88
3.77
3.79
4.07
4.57
5.12
5.47
5.40
4.88
3.96
2.86
1.71
0.61
-0.44
-1.42
-2.26
-2.86
-3.11
-3.07
-2.94
-3.02
-3.58
-4.68
-6.11
-7.50
-8.44
-8.68
-8.19
-7.15
-5.79
-4.27
-2.66
-1.00
0.66
2.19
3.49
4.52
5.33
6.10
6.96
7.96
9.00
9.92
10.56
10.88
10.91
10.75
10.47
10.07
9.58
9.02
8.52
8.16
7.95
7.81
7.56
7.07
6.27
5.24
4.15
3.14
2.30
1.60
0.93
0.18
-0.73
-1.80
-2.98
-4.19
-5.35
-6.40
-7.32
-8.16
-8.92
-9.65
-10.38
-11.14
-11.96
-12.82
-13.60
-14.11
-14.14
-13.51
-12.22
-10.39
-8.30
-6.21
-4.32
-2.69
-1.30
-0.09
0.97
1.85
2.50
2.92
3.22
3.55
4.07
4.84
5.76
6.63
7.27
7.58
7.66
7.66
7.73
7.86
7.97
7.93
7.71
7.39
7.09
6.90
6.77
6.57
6.17
5.54
4.77
4.01
3.35
2.81
2.33
1.84
1.33
0.83
0.36
-0.13
-0.72
-1.48
-2.42
-3.44
-4.37
-5.03
-5.34
-5.30
-4.98
-4.49
-3.89
-3.16
-2.30
-1.28
-0.19
0.87
1.72
2.24
2.43
2.40
2.37
2.50
2.83
3.24
3.51
3.51
3.25
2.90
2.70
2.76
2.97
3.13
2.99
2.50
1.81
1.23
1.00
1.17
1.53
1.77
1.62
1.00
0.02
-1.07
-2.05
-2.82
-3.42
-3.94
-4.41
-4.85
-5.22
-5.55
-5.91
-6.42
-7.10
-7.86
-8.48
-8.72
-8.45
-7.67
-6.55
-5.31
-4.16
-3.21
-2.50
-2.00
-1.67
-1.44
-1.22
-0.93
-0.55
-0.08
0.37
0.64
0.67
0.46
0.16
-0.06
-0.04
0.28
0.84
1.49
2.07
2.48
2.70
2.76
2.70
2.54
2.22
1.74
1.09
0.35
-0.34
-0.87
-1.21
-1.44
-1.68
-1.98
-2.32
-2.61
-2.76
-2.84
-3.00
-3.44
-4.24
-5.33
-6.45
-7.33
-7.76
-7.68
-7.19
-6.41
-5.46
-4.39
-3.22
-1.95
-0.59
0.77
2.06
3.19
4.11
4.80
5.28
5.58
5.73
5.76
5.72
5.68
5.68
5.77
5.92
6.06
6.10
5.99
5.76
5.49
5.24
5.03
4.79
4.48
4.06
3.63
3.29
3.13
3.12
3.09
2.83
2.24
1.36
0.42
-0.34
-0.80
-1.01
-1.18
-1.55
-2.25
-3.26
-4.40
-5.52
-6.53
-7.46
-8.32
-9.06
-9.47
-9.29
-8.38
-6.79
-4.80
-2.80
-1.08
0.23
1.21
1.99
2.69
3.30
3.77
4.07
4.26
4.45
4.73
5.15
5.62
6.01
6.23
6.26
6.16
5.99
5.81
5.63
5.40
5.09
4.69
4.23
3.73
3.18
2.52
1.72
0.76
-0.27
-1.24
-1.99
-2.48
-2.77
-3.00
-3.34
-3.93
-4.74
-5.68
-6.58
-7.28
-7.67
-7.76
-7.52
-6.97
-6.07
-4.80
-3.20
-1.43
0.31
1.79
2.90
3.61
4.01
4.21
4.26
4.20
4.02
3.78
3.56
3.45
3.51
3.72
3.99
4.20
4.23
3.99
3.48
2.77
2.02
1.38
0.99
0.87
0.98
1.15
1.23
1.09
0.72
0.16
-0.52
-1.24
-1.98
-2.70
-3.42
-4.13
-4.84
-5.56
-6.31
-7.10
-7.87
-8.53
-8.98
-9.12
-8.90
-8.32
-7.45
-6.38
-5.19
-3.91
-2.56
-1.16
0.19
1.38
2.28
2.85
3.17
3.42
3.76
4.25
4.82
5.28
5.54
5.60
5.54
5.52
5.62
5.81
6.02
6.19
6.27
6.26
6.12
5.81
5.26
4.46
3.53
2.64
1.97
1.56
1.31
0.99
0.40
-0.56
-1.77
-3.00
-4.00
-4.65
-5.01
-5.27
-5.65
-6.24
-7.02
-7.85
-8.53
-8.90
-8.87
-8.42
-7.57
-6.42
-5.10
-3.75
-2.49
-1.40
-0.45
0.38
1.15
1.88
2.55
3.12
3.56
3.84
3.97
3.99
3.97
3.94
3.94
3.97
3.97
3.93
3.88
3.84
3.84
3.86
3.80
3.54
2.98
2.12
1.10
0.15
-0.55
-0.93
-1.06
-1.12
-1.29
-1.65
-2.15
-2.74
-3.32
-3.88
-4.44
-5.01
-5.60
-6.15
-6.58
-6.81
-6.79
-6.46
-5.78
-4.75
-3.44
-2.03
-0.69
0.44
1.29
1.88
2.32
2.66
2.96
3.24
3.48
3.65
3.76
3.79
3.80
3.85
4.01
4.25
4.50
4.65
4.58
4.29
3.88
3.49
3.21
3.06
2.91
2.64
2.17
1.55
0.86
0.23
-0.36
-0.95
-1.64
-2.45
-3.29
-4.02
-4.52
-4.81
-5.02
-5.38
-6.08
-7.16
-8.44
-9.61
-10.35
-10.46
-9.94
-8.95
-7.70
-6.33
-4.91
-3.45
-1.93
-0.46
0.84
1.83
2.42
2.63
2.56
2.38
2.23
2.24
2.45
2.89
3.52
4.32
5.22
6.15
6.99
7.59
7.82
7.61
7.06
6.34
5.68
5.22
4.98
4.85
4.72
4.54
4.36
4.25
4.19
4.08
3.72
3.02
2.03
0.94
-0.02
-0.72
-1.21
-1.65
-2.22
-3.00
-3.97
-5.04
-6.15
-7.27
-8.43
-9.58
-10.53
-11.04
-10.85
-9.83
-8.09
-5.95
-3.79
-1.95
-0.57
0.39
1.14
1.86
2.66
3.52
4.35
5.11
5.80
6.42
6.94
7.26
7.31
7.07
6.63
6.19
5.92
5.89
6.04
6.26
6.40
6.39
6.20
5.81
5.22
4.40
3.40
2.31
1.32
0.62
0.28
0.27
0.38
0.35
-0.06
-0.92
-2.07
-3.23
-4.10
-4.55
-4.69
-4.80
-5.17
-5.88
-6.85
-7.83
-8.59
-9.04
-9.18
-9.09
-8.77
-8.19
-7.28
-6.03
-4.50
-2.85
-1.26
0.07
1.04
1.63
1.88
1.95
2.02
2.27
2.77
3.50
4.35
5.22
6.02
6.70
7.20
7.48
7.50
7.25
6.80
6.30
5.85
5.54
5.34
5.17
4.90
4.39
3.53
2.33
0.88
-0.63
-1.95
-2.92
-3.51
-3.83
-4.08
-4.43
-4.96
-5.65
-6.43
-7.21
-7.94
-8.54
-8.95
-9.06
-8.76
-8.02
-6.86
-5.39
-3.77
-2.21
-0.89
0.10
0.79
1.30
1.80
2.38
3.01
3.56
3.91
4.05
4.08
4.21
4.56
5.09
5.69
6.17
6.48
6.64
6.72
6.79
6.78
6.59
6.14
5.43
4.59
3.81
3.24
2.94
2.84
2.84
2.83
2.70
2.43
1.99
1.36
0.53
-0.52
-1.78
-3.18
-4.60
-5.92
-7.02
-7.84
-8.35
-8.62
-8.69
-8.61
-8.40
-8.02
-7.40
-6.47
-5.20
-3.63
-1.87
-0.10
1.50
2.74
3.52
3.90
4.00
4.06
4.27
4.72
5.35
6.05
6.68
7.13
7.40
7.51
7.51
7.39
7.16
6.81
6.37
5.86
5.32
4.81
4.35
3.96
3.62
3.26
2.84
2.31
1.69
1.06
0.50
0.02
-0.39
-0.81
-1.28
-1.78
-2.25
-2.66
-3.06
-3.56
-4.26
-5.18
-6.21
-7.16
-7.86
-8.15
-8.01
-7.42
-6.40
-4.98
-3.24
-1.33
0.53
2.12
3.28
3.97
4.23
4.20
4.00
3.78
3.63
3.66
3.92
4.44
5.12
5.81
6.29
6.37
6.02
5.35
4.58
3.96
3.63
3.53
3.50
3.30
2.81
2.06
1.21
0.45
-0.15
-0.63
-1.10
-1.61
-2.15
-2.62
-2.96
-3.25
-3.64
-4.30
-5.29
-6.43
-7.43
-8.00
-7.97
-7.30
-6.12
-4.59
-2.89
-1.21
0.29
1.48
2.28
2.73
2.96
3.15
3.46
3.95
4.61
5.36
6.11
6.78
7.29
7.58
7.60
7.34
6.81
6.05
5.14
4.20
3.35
2.71
2.32
2.13
2.02
1.86
1.56
1.13
0.66
0.22
-0.16
-0.50
-0.84
-1.14
-1.34
-1.41
-1.46
-1.70
-2.39
-3.63
-5.25
-6.88
-8.10
-8.69
-8.74
-8.54
-8.41
-8.49
-8.64
-8.57
-8.03
-6.97
-5.58
-4.15
-2.87
-1.80
-0.84
0.18
1.32
2.51
3.58
4.37
4.79
4.93
4.95
5.06
5.35
5.84
6.41
6.89
7.15
7.11
6.78
6.24
5.60
4.97
4.43
3.99
3.59
3.16
2.58
1.80
0.79
-0.40
-1.69
-2.96
-4.11
-5.04
-5.69
-6.05
-6.19
-6.23
-6.36
-6.71
-7.32
-8.09
-8.83
-9.33
-9.43
-9.12
-8.49
-7.69
-6.87
-6.09
-5.34
-4.58
-3.82
-3.07
-2.40
-1.87
-1.52
-1.26
-0.97
-0.50
0.23
1.16
2.09
2.74
2.86
2.39
1.46
0.41
-0.40
-0.72
-0.56
-0.11
0.34
0.54
0.42
0.08
-0.31
-0.65
-0.93
-1.26
-1.77
-2.53
-3.46
-4.40
-5.20
-5.80
-6.26
-6.63
-6.94
-7.12
-7.03
-6.56
-5.70
-4.52
-3.15
-1.73
-0.33
1.00
2.20
3.20
3.94
4.41
4.67
4.80
4.83
4.71
4.39
3.83
3.14
2.53
2.21
2.27
2.63
3.05
3.31
3.27
2.89
2.27
1.48
0.57
-0.48
-1.68
-2.97
-4.25
-5.42
-6.41
-7.19
-7.81
-8.28
-8.57
-8.57
-8.17
-7.26
-5.88
-4.16
-2.33
-0.70
0.51
1.16
1.26
0.92
0.35
-0.24
-0.68
-0.89
-0.83
-0.53
-0.04
0.60
1.33
2.07
2.73
3.19
3.38
3.32
3.09
2.81
2.56
2.39
2.27
2.16
2.00
1.76
1.35
0.72
-0.21
-1.41
-2.74
-3.93
-4.76
-5.09
-4.91
-4.41
-3.76
-3.07
-2.36
-1.57
-0.69
0.17
0.84
1.21
1.24
1.07
0.92
0.94
1.16
1.41
1.52
1.41
1.09
0.74
0.50
0.42
0.44
0.37
0.05
-0.57
-1.43
-2.39
-3.29
-4.06
-4.72
-5.34
-5.93
-6.48
-6.94
-7.29
-7.61
-8.05
-8.77
-9.77
-10.85
-11.64
-11.74
-10.95
-9.30
-7.15
-4.86
-2.73
-0.87
0.81
2.44
4.08
5.76
7.42
9.03
10.62
12.21
13.78
15.21
16.31
16.93
17.03
16.69
16.07
15.31
14.47
13.54
12.52
11.39
10.22
9.00
7.75
6.45
5.03
3.51
1.96
0.49
-0.77
-1.77
-2.55
-3.24
-3.98
-4.94
-6.17
-7.64
-9.19
-10.59
-11.56
-11.85
-11.33
-10.00
-8.06
-5.80
-3.55
-1.57
-0.00
1.14
1.96
2.61
3.20
3.76
4.28
4.66
4.85
4.84
4.72
4.59
4.55
4.66
4.84
5.00
4.98
4.69
4.09
3.21
2.15
1.06
0.11
-0.61
-1.06
-1.37
-1.70
-2.23
-3.07
-4.21
-5.55
-6.91
-8.13
-9.04
-9.53
-9.52
-8.98
-7.95
-6.49
-4.71
-2.78
-0.88
0.84
2.24
3.32
4.14
4.81
5.43
6.00
6.44
6.60
6.43
6.01
5.52
5.19
5.11
5.25
5.47
5.60
5.56
5.34
4.95
4.42
3.74
2.92
1.99
1.09
0.33
-0.20
-0.51
-0.76
-1.11
-1.69
-2.50
-3.43
-4.33
-5.12
-5.82
-6.49
-7.20
-7.92
-8.49
-8.71
-8.41
-7.58
-6.34
-4.89
-3.39
-1.92
-0.48
0.93
2.23
3.25
3.81
3.82
3.38
2.72
2.14
1.84
1.94
2.41
3.17
4.17
5.28
6.36
7.21
7.64
7.55
7.01
6.32
5.84
5.90
6.60
7.80
9.11
10.10
10.50
10.24
9.53
8.65
7.84
7.13
6.39
5.41
4.06
2.40
0.62
-1.07
-2.54
-3.82
-5.03
-6.30
-7.64
-8.98
-10.17
-11.14
-11.88
-12.48
-12.99
-13.38
-13.52
-13.24
-12.41
-11.04
-9.27
-7.29
-5.29
-3.40
-1.69
-0.25
0.81
1.44
1.67
1.64
1.62
1.81
2.30
2.97
3.62
4.09
4.37
4.60
4.91
5.36
5.83
6.13
6.11
5.72
5.04
4.16
3.13
1.96
0.64
-0.78
-2.19
-3.42
-4.33
-4.86
-5.09
-5.14
-5.17
-5.31
-5.63
-6.14
-6.79
-7.46
-8.02
-8.27
-8.01
-7.12
-5.55
-3.42
-0.96
1.48
3.56
5.08
6.01
6.51
6.76
6.92
7.04
7.10
7.05
6.93
6.81
6.80
6.93
7.13
7.29
7.31
7.18
7.01
6.93
6.96
7.00
6.88
6.47
5.77
4.96
4.25
3.75
3.42
3.05
2.44
1.49
0.31
-0.89
-1.93
-2.74
-3.40
-4.06
-4.87
-5.90
-7.11
-8.42
-9.72
-10.88
-11.79
-12.31
-12.27
-11.56
-10.14
-8.15
-5.89
-3.70
-1.88
-0.54
0.42
1.20
2.00
2.86
3.67
4.23
4.41
4.28
4.05
3.94
4.06
4.34
4.57
4.62
4.44
4.16
3.96
3.98
4.22
4.58
4.86
4.91
4.68
4.22
3.64
3.08
2.57
2.13
1.71
1.26
0.77
0.24
-0.33
-0.97
-1.68
-2.47
-3.24
-3.85
-4.20
-4.28
-4.24
-4.33
-4.80
-5.69
-6.84
-7.91
-8.51
-8.43
-7.63
-6.27
-4.58
-2.74
-0.91
0.83
2.39
3.71
4.70
5.36
5.74
5.91
5.98
6.01
6.07
6.15
6.31
6.56
6.89
7.23
7.48
7.56
7.42
7.09
6.70
6.39
6.24
6.19
6.10
5.79
5.12
4.14
3.02
2.00
1.23
0.74
0.40
0.05
-0.41
-0.95
-1.47
-1.86
-2.12
-2.38
-2.81
-3.50
-4.41
-5.36
-6.16
-6.67
-6.90
-6.91
-6.80
-6.53
-6.03
-5.25
-4.21
-3.07
-1.99
-1.12
-0.48
0.00
0.42
0.78
1.03
1.09
0.92
0.61
0.36
0.31
0.56
1.02
1.52
1.87
1.96
1.81
1.56
1.31
1.07
0.77
0.28
-0.39
-1.13
-1.74
-2.01
-1.95
-1.74
-1.67
-1.92
-2.51
-3.27
-3.96
-4.47
-4.89
-5.38
-6.09
-6.99
-7.88
-8.52
-8.74
-8.55
-8.11
-7.55
-6.92
-6.15
-5.12
-3.82
-2.38
-1.03
0.01
0.66
0.97
1.11
1.22
1.38
1.59
1.82
2.06
2.36
2.76
3.28
3.85
4.32
4.60
4.59
4.31
3.81
3.20
2.53
1.87
1.26
0.78
0.44
0.21
-0.06
-0.52
-1.27
-2.25
-3.24
-4.02
-4.44
-4.55
-4.57
-4.74
-5.20
-5.97
-6.91
-7.84
-8.64
-9.23
-9.56
-9.57
-9.18
-8.36
-7.12
-5.53
-3.75
-1.99
-0.40
0.86
1.74
2.27
2.57
2.77
2.97
3.18
3.35
3.43
3.44
3.47
3.66
4.07
4.65
5.22
5.58
5.59
5.25
4.69
4.08
3.57
3.22
2.99
2.85
2.75
2.70
2.68
2.68
2.64
2.49
2.22
1.83
1.41
0.99
0.53
-0.05
-0.84
-1.86
-2.99
-4.08
-4.95
-5.51
-5.79
-5.89
-5.91
-5.87
-5.71
-5.37
-4.77
-3.91
-2.85
-1.70
-0.56
0.47
1.32
1.96
2.40
2.68
2.84
2.90
2.90
2.87
2.85
2.90
3.08
3.42
3.89
4.41
4.93
5.38
5.77
6.10
6.37
6.57
6.67
6.66
6.54
6.31
5.95
5.43
4.72
3.89
3.02
2.24
1.63
1.16
0.69
0.07
-0.78
-1.80
-2.84
-3.74
-4.42
-4.94
-5.37
-5.76
-5.99
-5.93
-5.45
-4.57
-3.53
-2.58
-1.95
-1.68
-1.61
-1.54
-1.34
-1.07
-0.86
-0.88
-1.15
-1.53
-1.76
-1.60
-0.96
0.12
1.46
2.80
3.92
4.66
4.98
4.96
4.72
4.40
4.08
3.80
3.53
3.24
2.92
2.59
2.24
1.88
1.52
1.20
0.99
0.84
0.69
0.33
-0.37
-1.48
-2.83
-4.19
-5.34
-6.13
-6.59
-6.78
-6.81
-6.66
-6.31
-5.72
-4.95
-4.11
-3.31
-2.68
-2.23
-1.93
-1.76
-1.68
-1.69
-1.79
-1.92
-1.96
-1.77
-1.25
-0.39
0.69
1.74
2.52
2.87
2.80
2.47
2.08
1.83
1.81
2.01
2.34
2.70
3.00
3.18
3.24
3.17
2.95
2.51
1.85
0.98
0.04
-0.80
-1.37
-1.62
-1.63
-1.59
-1.70
-2.06
-2.64
-3.27
-3.77
-3.98
-3.82
-3.28
-2.40
-1.31
-0.12
0.98
1.84
2.37
2.56
2.47
2.24
1.97
1.78
1.73
1.85
2.17
2.66
3.23
3.78
4.20
4.44
4.52
4.50
4.45
4.37
4.24
4.06
3.89
3.80
3.81
3.88
3.82
3.49
2.82
1.90
0.92
0.08
-0.52
-0.89
-1.11
-1.30
-1.53
-1.87
-2.35
-3.01
-3.80
-4.62
-5.30
-5.74
-5.91
-5.87
-5.76
-5.62
-5.45
-5.20
-4.85
-4.41
-3.96
-3.56
-3.20
-2.82
-2.34
-1.75
-1.09
-0.46
0.04
0.37
0.58
0.76
1.01
1.40
1.89
2.43
2.93
3.32
3.60
3.78
3.82
3.67
3.25
2.54
1.64
0.72
-0.02
-0.49
-0.75
-1.00
-1.45
-2.15
-3.08
-4.06
-4.90
-5.53
-5.95
-6.16
-6.18
-5.99
-5.60
-5.10
-4.63
-4.33
-4.23
-4.24
-4.13
-3.66
-2.73
-1.39
0.18
1.73
3.04
4.02
4.67
5.10
5.39
5.64
5.88
6.08
6.24
6.33
6.31
6.21
6.02
5.78
5.53
5.27
5.01
4.74
4.43
4.08
3.68
3.23
2.78
2.36
1.94
1.47
0.84
-0.05
-1.18
-2.43
-3.58
-4.42
-4.85
-4.93
-4.85
-4.83
-5.00
-5.36
-5.81
-6.21
-6.47
-6.56
-6.57
-6.59
-6.66
-6.73
-6.70
-6.38
-5.64
-4.44
-2.92
-1.28
0.22
1.39
2.12
2.46
2.53
2.49
2.48
2.59
2.81
3.08
3.27
3.29
3.07
2.64
2.10
1.52
0.99
0.49
0.03
-0.36
-0.62
-0.64
-0.41
0.01
0.43
0.63
0.49
0.00
-0.71
-1.45
-2.11
-2.63
-3.03
-3.32
-3.50
-3.50
-3.31
-2.98
-2.62
-2.36
-2.26
-2.37
-2.65
-3.10
-3.73
-4.52
-5.38
-6.11
-6.43
-6.14
-5.18
-3.71
-2.06
-0.57
0.56
1.30
1.81
2.30
2.90
3.61
4.28
4.77
5.00
5.00
4.93
4.87
4.90
4.95
4.94
4.81
4.62
4.47
4.46
4.61
4.81
4.94
4.89
4.67
4.35
4.08
3.91
3.87
3.83
3.69
3.39
2.92
2.28
1.51
0.62
-0.40
-1.48
-2.56
-3.47
-4.11
-4.47
-4.69
-4.96
-5.44
-6.15
-6.91
-7.42
-7.41
-6.76
-5.60
-4.16
-2.73
-1.49
-0.47
0.39
1.13
1.75
2.18
2.39
2.41
2.35
2.35
2.49
2.74
2.99
3.15
3.19
3.15
3.14
3.15
3.16
3.06
2.78
2.32
1.80
1.39
1.22
1.28
1.45
1.53
1.32
0.80
0.05
-0.74
-1.39
-1.88
-2.30
-2.82
-3.53
-4.43
-5.33
-6.05
-6.46
-6.62
-6.63
-6.62
-6.54
-6.25
-5.60
-4.58
-3.33
-2.13
-1.19
-0.56
-0.06
0.53
1.33
2.27
3.17
3.79
4.05
4.00
3.83
3.71
3.73
3.87
4.08
4.32
4.58
4.88
5.19
5.46
5.56
5.38
4.87
4.09
3.21
2.43
1.91
1.68
1.61
1.50
1.19
0.61
-0.16
-0.96
-1.66
-2.20
-2.57
-2.80
-2.94
-3.04
-3.20
-3.56
-4.23
-5.21
-6.28
-7.10
-7.35
-6.89
-5.80
-4.36
-2.87
-1.53
-0.37
0.65
1.60
2.49
3.25
3.81
4.18
4.38
4.53
4.68
4.87
5.14
5.45
5.80
6.14
6.42
6.60
6.65
6.59
6.42
6.18
5.86
5.46
5.01
4.54
4.10
3.72
3.37
3.02
2.64
2.28
1.99
1.81
1.71
1.54
1.10
0.24
-1.07
-2.70
-4.41
-5.93
-7.07
-7.77
-8.06
-8.04
-7.80
-7.39
-6.85
-6.19
-5.46
-4.70
-4.00
-3.43
-3.04
-2.80
-2.61
-2.30
-1.69
-0.72
0.58
2.01
3.33
4.32
4.91
5.11
5.03
4.85
4.72
4.75
4.99
5.43
6.00
6.58
7.05
7.31
7.27
6.90
6.20
5.18
3.93
2.56
1.19
-0.10
-1.23
-2.18
-2.90
-3.31
-3.36
-3.05
-2.56
-2.13
-2.05
-2.41
-3.11
-3.87
-4.39
-4.45
-3.99
-3.11
-1.96
-0.65
0.70
1.98
3.00
3.56
3.52
2.88
1.80
0.53
-0.69
-1.72
-2.48
-2.97
-3.19
-3.12
-2.81
-2.34
-1.92
-1.76
-2.01
-2.64
-3.41
-3.97
-3.96
-3.27
-2.02
-0.65
0.36
0.61
0.05
-1.06
-2.25
-3.04
-3.19
-2.70
-1.83
-0.90
-0.19
0.13
0.01
-0.54
-1.46
-2.62
-3.85
-4.92
-5.65
-5.92
-5.71
-5.06
-4.09
-2.90
-1.63
-0.44
0.48
0.97
0.98
0.58
0.02
-0.44
-0.59
-0.41
-0.07
0.25
0.42
0.52
0.73
1.21
1.95
2.76
3.33
3.44
3.10
2.52
2.02
1.84
1.96
2.20
2.29
2.10
1.66
1.15
0.72
0.41
0.13
-0.25
-0.82
-1.52
-2.26
-2.92
-3.52
-4.14
-4.90
-5.82
-6.76
-7.45
-7.65
-7.21
-6.16
-4.71
-3.09
-1.53
-0.15
1.01
1.94
2.63
3.04
3.16
3.05
2.83
2.67
2.71
3.00
3.46
3.98
4.46
4.82
5.07
5.25
5.41
5.53
5.57
5.46
5.20
4.85
4.49
4.19
3.98
3.81
3.60
3.29
2.87
2.38
1.91
1.48
1.04
0.54
-0.06
-0.73
-1.38
-1.94
-2.41
-2.82
-3.19
-3.44
-3.37
-2.83
-1.73
-0.18
1.49
2.97
3.98
4.48
4.62
4.64
4.74
4.98
5.25
5.39
5.29
4.96
4.55
4.24
4.12
4.15
4.20
4.15
3.97
3.72
3.46
3.24
3.02
2.73
2.32
1.78
1.12
0.32
-0.64
-1.74
-2.89
-3.92
-4.67
-5.09
-5.26
-5.40
-5.74
-6.38
-7.27
-8.24
-9.09
-9.66
-9.89
-9.77
-9.32
-8.51
-7.36
-5.93
-4.35
-2.83
-1.58
-0.76
-0.34
-0.16
0.04
0.47
1.20
2.09
2.89
3.36
3.45
3.29
3.14
3.22
3.55
3.98
4.28
4.30
4.08
3.79
3.66
3.73
3.96
4.13
4.09
3.77
3.22
2.56
1.86
1.18
0.52
-0.11
-0.68
-1.13
-1.48
-1.76
-2.08
-2.57
-3.29
-4.28
-5.44
-6.62
-7.62
-8.25
-8.38
-7.96
-7.07
-5.86
-4.49
-3.13
-1.85
-0.66
0.48
1.61
2.70
3.63
4.27
4.50
4.32
3.88
3.39
3.09
3.06
3.27
3.57
3.79
3.83
3.72
3.55
3.45
3.50
3.66
3.75
3.58
2.97
1.94
0.69
-0.51
-1.45
-2.04
-2.42
-2.76
-3.22
-3.86
-4.68
-5.59
-6.56
-7.56
-8.54
-9.41
-10.11
-10.63
-11.07
-11.62
-12.37
-13.29
-14.11
-14.45
-13.97
-12.47
-10.06
-7.03
-3.80
-0.71
1.99
4.21
5.93
7.15
7.86
8.11
8.02
7.82
7.76
8.03
8.65
9.45
10.18
10.65
10.84
10.88
10.93
11.06
11.19
11.13
10.73
9.98
9.02
8.02
7.07
6.11
5.01
3.67
2.08
0.39
-1.21
-2.59
-3.76
-4.83
-5.94
-7.16
-8.48
-9.81
-11.08
-12.20
-13.09
-13.64
-13.68
-13.09
-11.80
-9.91
-7.64
-5.33
-3.27
-1.66
-0.53
0.24
0.81
1.31
1.84
2.41
3.02
3.72
4.51
5.37
6.21
6.91
7.33
7.46
7.40
7.36
7.52
7.94
8.53
9.05
9.26
9.03
8.40
7.53
6.58
5.63
4.68
3.69
2.69
1.79
1.12
0.76
0.62
0.50
0.13
-0.67
-1.92
-3.46
-5.01
-6.27
-7.01
-7.15
-6.70
-5.79
-4.60
-3.31
-2.04
-0.92
-0.04
0.54
0.84
0.94
0.97
1.05
1.28
1.62
1.94
2.15
2.18
2.07
1.92
1.84
1.91
2.13
2.51
3.00
3.56
4.08
4.44
4.50
4.17
3.51
2.66
1.82
1.17
0.78
0.55
0.28
-0.21
-1.00
-2.01
-3.04
-3.85
-4.34
-4.56
-4.74
-5.11
-5.77
-6.70
-7.73
-8.76
-9.77
-10.77
-11.73
-12.47
-12.65
-12.03
-10.58
-8.61
-6.63
-5.08
-4.17
-3.76
-3.53
-3.13
-2.46
-1.57
-0.65
0.11
0.65
1.01
1.28
1.56
1.93
2.42
3.00
3.64
4.28
4.86
5.39
5.85
6.22
6.43
6.39
6.06
5.47
4.78
4.13
3.68
3.45
3.38
3.38
3.35
3.25
3.03
2.66
2.07
1.25
0.26
-0.81
-1.88
-2.88
-3.82
-4.67
-5.29
-5.48
-5.03
-3.89
-2.27
-0.50
1.03
2.06
2.61
2.82
2.91
3.02
3.17
3.30
3.37
3.35
3.25
3.10
2.86
2.50
1.98
1.33
0.64
0.03
-0.39
-0.59
-0.64
-0.66
-0.77
-0.99
-1.26
-1.46
-1.52
-1.47
-1.47
-1.72
-2.34
-3.32
-4.51
-5.70
-6.70
-7.42
-7.89
-8.22
-8.54
-8.95
-9.48
-10.05
-10.56
-10.79
-10.61
-9.90
-8.67
-7.00
-5.02
-2.92
-0.85
1.04
2.68
3.99
5.02
5.83
6.47
7.04
7.59
8.19
8.92
9.81
10.88
12.08
13.27
14.25
14.86
14.98
14.63
13.90
12.91
11.80
10.66
9.53
8.46
7.48
6.60
5.83
5.10
4.33
3.40
2.21
0.71
-1.03
-2.82
-4.47
-5.81
-6.83
-7.64
-8.46
-9.46
-10.71
-12.07
-13.34
-14.26
-14.61
-14.26
-13.19
-11.53
-9.53
-7.52
-5.78
-4.45
-3.49
-2.66
-1.75
-0.63
0.66
1.98
3.21
4.31
5.27
6.12
6.78
7.15
7.15
6.86
6.42
6.04
5.84
5.83
5.92
5.99
5.96
5.78
5.42
4.85
4.04
2.96
1.66
0.27
-1.01
-1.98
-2.57
-2.83
-2.94
-3.12
-3.56
-4.30
-5.29
-6.42
-7.54
-8.56
-9.37
-9.83
-9.77
-9.04
-7.65
-5.73
-3.61
-1.59
0.09
1.38
2.38
3.20
3.91
4.45
4.69
4.53
4.00
3.33
2.79
2.63
2.87
3.40
3.98
4.36
4.48
4.35
4.06
3.65
3.11
2.39
1.53
0.65
-0.10
-0.65
-1.05
-1.47
-2.08
-2.88
-3.73
-4.40
-4.70
-4.72
-4.69
-4.96
-5.73
-6.96
-8.34
-9.46
-9.96
-9.66
-8.65
-7.10
-5.22
-3.20
-1.13
0.86
2.65
4.07
5.04
5.59
5.86
6.06
6.32
6.66
6.98
7.18
7.21
7.15
7.13
7.22
7.41
7.55
7.51
7.29
6.97
6.69
6.52
6.35
6.04
5.42
4.50
3.42
2.40
1.62
1.08
0.64
0.09
-0.73
-1.80
-3.00
-4.18
-5.22
-6.15
-7.09
-8.15
-9.37
-10.61
-11.63
-12.19
-12.13
-11.48
-10.38
-9.00
-7.46
-5.78
-3.96
-2.03
-0.07
1.74
3.23
4.32
4.99
5.36
5.53
5.60
5.61
5.59
5.58
5.63
5.76
5.94
6.10
6.15
6.06
5.88
5.73
5.67
5.65
5.53
5.15
4.47
3.59
2.74
2.11
1.76
1.55
1.26
0.72
-0.09
-1.07
-2.02
-2.84
-3.49
-4.04
-4.58
-5.22
-6.05
-7.13
-8.48
-10.00
-11.47
-12.55
-12.87
-12.23
-10.62
-8.29
-5.62
-2.98
-0.65
1.27
2.81
4.02
4.98
5.70
6.19
6.43
6.47
6.36
6.15
5.89
5.67
5.52
5.50
5.63
5.87
6.15
6.40
6.53
6.50
6.25
5.73
4.89
3.77
2.49
1.24
0.24
-0.38
-0.62
-0.61
-0.55
-0.61
-0.93
-1.62
-2.70
-4.14
-5.81
-7.43
-8.74
-9.53
-9.77
-9.54
-9.01
-8.28
-7.33
-6.12
-4.68
-3.13
-1.67
-0.44
0.55
1.42
2.34
3.37
4.38
5.16
5.47
5.26
4.69
4.05
3.67
3.73
4.22
4.95
5.71
6.31
6.70
6.93
7.03
7.01
6.78
6.26
5.45
4.43
3.40
2.55
1.98
1.64
1.41
1.15
0.74
0.14
-0.66
-1.65
-2.81
-4.09
-5.40
-6.62
-7.63
-8.37
-8.85
-9.07
-9.03
-8.65
-7.84
-6.59
-4.99
-3.25
-1.61
-0.19
0.98
2.00
2.95
3.81
4.48
4.81
4.74
4.34
3.85
3.49
3.41
3.56
3.78
3.86
3.63
3.13
2.48
1.87
1.41
1.11
0.84
0.48
-0.00
-0.51
-0.87
-0.96
-0.80
-0.60
-0.63
-1.11
-2.07
-3.34
-4.65
-5.78
-6.69
-7.48
-8.34
-9.36
-10.55
-11.77
-12.91
-13.87
-14.61
-15.08
-15.10
-14.50
-13.11
-10.97
-8.34
-5.62
-3.13
-1.02
0.78
2.40
3.92
5.25
6.21
6.68
6.75
6.66
6.72
7.09
7.72
8.41
8.93
9.19
9.20
9.13
9.03
8.90
8.62
8.09
7.29
6.34
5.40
4.61
3.94
3.22
2.25
0.94
-0.58
-2.04
-3.16
-3.85
-4.26
-4.69
-5.35
-6.27
-7.28
-8.20
-8.96
-9.61
-10.25
-10.89
-11.26
-11.01
-9.83
-7.69
-4.90
-1.91
0.78
2.85
4.15
4.72
4.70
4.31
3.81
3.44
3.41
3.79
4.49
5.30
6.00
6.37
6.30
5.79
4.98
4.07
3.28
2.78
2.62
2.74
2.95
3.12
3.13
2.93
2.48
1.72
0.66
-0.63
-1.99
-3.20
-4.13
-4.79
-5.35
-5.99
-6.80
-7.75
-8.72
-9.60
-10.37
-11.06
-11.63
-11.92
-11.65
-10.56
-8.58
-5.90
-2.91
-0.06
2.36
4.26
5.74
6.97
8.00
8.79
9.25
9.36
9.25
9.19
9.40
9.91
10.54
10.96
10.97
10.52
9.86
9.29
9.01
9.03
9.14
9.13
8.84
8.22
7.35
6.29
5.06
3.68
2.14
0.51
-1.12
-2.62
-3.88
-4.84
-5.53
-6.05
-6.57
-7.31
-8.39
-9.88
-11.65
-13.47
-14.99
-15.88
-15.87
-14.83
-12.77
-9.92
-6.62
-3.30
-0.33
2.06
3.85
5.17
6.19
7.06
7.78
8.30
8.55
8.47
8.09
7.50
6.87
6.40
6.28
6.69
7.67
9.11
10.74
12.16
13.00
12.98
12.04
10.32
8.16
5.89
3.79
1.95
0.35
-1.13
-2.55
-3.92
-5.19
-6.35
-7.49
-8.78
-10.33
-12.12
-13.92
-15.42
-16.40
-16.75
-16.53
-15.85
-14.78
-13.30
-11.39
-9.10
-6.61
-4.16
-1.93
-0.04
1.55
2.89
4.00
4.87
5.43
5.65
5.60
5.43
5.33
5.43
5.76
6.22
6.71
7.09
7.31
7.35
7.25
7.00
6.56
5.86
4.88
3.62
2.18
0.69
-0.69
-1.79
-2.54
-2.94
-3.07
-3.15
-3.38
-3.93
-4.88
-6.22
-7.92
-9.88
-11.90
-13.71
-14.93
-15.21
-14.32
-12.31
-9.49
-6.27
-3.08
-0.15
2.43
4.70
6.72
8.52
10.16
11.62
12.92
14.03
14.87
15.36
15.45
15.21
14.78
14.30
13.84
13.38
12.86
12.20
11.38
10.46
9.47
8.45
7.38
6.22
4.95
3.65
2.35
1.13
-0.05
-1.26
-2.57
-3.99
-5.41
-6.65
-7.50
-7.87
-7.76
-7.42
-7.19
-7.43
-8.36
-9.94
-11.90
-13.79
-15.13
-15.62
-15.16
-13.90
-12.10
-10.03
-7.90
-5.83
-3.91
-2.20
-0.81
0.21
0.84
1.16
1.27
1.29
1.36
1.54
1.88
2.41
3.08
3.79
4.41
4.80
4.90
4.71
4.34
3.93
3.58
3.30
3.05
2.77
2.39
1.88
1.23
0.42
-0.57
-1.73
-2.99
-4.20
-5.25
-6.08
-6.74
-7.43
-8.33
-9.57
-11.10
-12.72
-14.11
-14.95
-15.00
-14.14
-12.35
-9.71
-6.40
-2.71
0.97
4.22
6.73
8.34
9.15
9.37
9.26
9.00
8.63
8.15
7.61
7.15
6.96
7.19
7.81
8.62
9.29
9.59
9.46
9.05
8.63
8.34
8.16
7.84
7.10
5.81
4.05
2.12
0.35
-1.03
-2.02
-2.76
-3.46
-4.29
-5.28
-6.48
-7.87
-9.49
-11.29
-13.11
-14.59
-15.33
-14.96
-13.35
-10.61
-7.12
-3.33
0.34
3.55
6.07
7.81
8.72
8.89
8.48
7.79
7.07
6.55
6.37
6.51
6.90
7.41
7.91
8.27
8.42
8.36
8.15
7.90
7.68
7.54
7.49
7.43
7.28
6.89
6.18
5.11
3.77
2.28
0.82
-0.47
-1.51
-2.36
-3.13
-3.99
-5.07
-6.42
-8.02
-9.78
-11.59
-13.32
-14.82
-15.84
-16.16
-15.59
-14.11
-11.88
-9.25
-6.56
-4.08
-1.89
0.09
1.91
3.58
4.97
5.95
6.53
6.83
7.11
7.55
8.20
8.89
9.39
9.54
9.34
8.97
8.69
8.69
8.97
9.41
9.78
9.92
9.73
9.23
8.52
7.66
6.75
5.88
5.14
4.66
4.45
4.46
4.46
4.24
3.70
2.88
1.98
1.23
0.69
0.28
-0.18
-0.86
-1.75
-2.71
-3.48
-3.82
-3.63
-2.87
-1.54
0.28
2.50
4.90
7.16
8.93
9.97
10.23
9.88
9.26
8.65
8.22
7.98
7.83
7.74
7.68
7.68
7.67
7.53
7.06
6.19
4.97
3.65
2.53
1.80
1.49
1.34
1.03
0.25
-1.08
-2.82
-4.70
-6.37
-7.63
-8.42
-8.89
-9.26
-9.77
-10.59
-11.79
-13.31
-14.99
-16.59
-17.88
-18.61
-18.67
-18.03
-16.83
-15.23
-13.45
-11.63
-9.87
-8.19
-6.63
-5.24
-4.04
-3.07
-2.29
-1.67
-1.15
-0.71
-0.37
-0.11
0.08
0.31
0.67
1.28
2.14
3.09
3.94
4.43
4.42
3.96
3.28
2.66
2.30
2.23
2.26
2.09
1.50
0.45
-0.93
-2.38
-3.70
-4.81
-5.74
-6.56
-7.31
-7.98
-8.58
-9.17
-9.93
-10.99
-12.37
-13.89
-15.17
-15.79
-15.46
-14.09
-11.80
-8.89
-5.67
-2.45
0.51
3.01
4.94
6.28
7.19
7.89
8.64
9.56
10.59
11.53
12.15
12.28
11.96
11.33
10.61
10.02
9.63
9.47
9.47
9.53
9.57
9.45
9.07
8.33
7.23
5.86
4.42
3.10
2.04
1.23
0.53
-0.28
-1.35
-2.69
-4.17
-5.53
-6.56
-7.22
-7.61
-7.98
-8.57
-9.51
-10.79
-12.29
-13.83
-15.18
-16.13
-16.42
-15.87
-14.35
-11.97
-9.00
-5.80
-2.79
-0.20
1.85
3.44
4.68
5.68
6.48
7.12
7.59
7.94
8.24
8.55
8.90
9.25
9.55
9.66
9.53
9.12
8.53
7.85
7.18
6.54
5.86
5.06
4.09
3.02
1.95
1.00
0.18
-0.62
-1.56
-2.75
-4.11
-5.45
-6.52
-7.24
-7.65
-7.96
-8.37
-9.00
-9.89
-10.96
-12.14
-13.27
-14.12
-14.41
-13.88
-12.39
-10.08
-7.29
-4.44
-1.85
0.33
2.13
3.60
4.73
5.45
5.75
5.70
5.52
5.41
5.50
5.75
6.05
6.25
6.37
6.48
6.69
7.02
7.35
7.50
7.35
6.90
6.28
5.70
5.26
4.92
4.47
3.71
2.52
0.95
-0.77
-2.40
-3.75
-4.82
-5.77
-6.74
-7.87
-9.12
-10.40
-11.62
-12.80
-13.99
-15.22
-16.39
-17.16
-17.15
-16.03
-13.76
-10.63
-7.18
-3.93
-1.21
0.96
2.76
4.40
5.97
7.44
8.70
9.71
10.50
11.16
11.71
12.11
12.25
12.11
11.76
11.38
11.14
11.12
11.22
11.22
10.92
10.20
9.10
7.76
6.36
5.06
3.92
2.98
2.19
1.49
0.83
0.12
-0.72
-1.74
-2.95
-4.29
-5.66
-6.98
-8.16
-9.19
-10.08
-10.89
-11.67
-12.48
-13.33
-14.15
-14.75
-14.86
-14.18
-12.50
-9.90
-6.63
-3.18
0.03
2.71
4.78
6.37
7.63
8.71
9.61
10.32
10.78
11.05
11.24
11.52
12.03
12.77
13.64
14.43
14.94
15.06
14.83
14.38
13.88
13.42
12.92
12.28
11.37
10.20
8.85
7.51
6.28
5.16
4.06
2.87
1.55
0.15
-1.23
-2.51
-3.67
-4.80
-6.00
-7.36
-8.78
-10.16
-11.38
-12.41
-13.36
-14.35
-15.40
-16.32
-16.77
-16.40
-15.02
-12.76
-9.94
-7.01
-4.30
-2.01
-0.19
1.18
2.11
2.60
2.76
2.76
2.80
3.01
3.43
3.95
4.48
4.93
5.32
5.68
6.00
6.21
6.21
5.94
5.43
4.78
4.13
3.55
3.02
2.45
1.73
0.80
-0.33
-1.60
-2.93
-4.25
-5.54
-6.77
-7.92
-8.99
-9.95
-10.81
-11.63
-12.50
-13.48
-14.54
-15.52
-16.13
-16.02
-14.98
-13.01
-10.37
-7.45
-4.66
-2.27
-0.41
0.97
1.96
2.66
3.14
3.49
3.82
4.28
5.00
6.03
7.32
8.72
10.09
11.27
12.22
12.92
13.37
13.58
13.61
13.54
13.47
13.50
13.62
13.69
13.49
12.81
11.53
9.69
7.49
5.15
2.89
0.84
-0.90
-2.32
-3.47
-4.46
-5.50
-6.82
-8.50
-10.46
-12.35
-13.68
-13.99
-13.02
-10.86
-7.88
-4.62
-1.52
1.09
3.17
4.75
5.93
6.81
7.43
7.87
8.20
8.49
8.76
9.00
9.15
9.18
9.14
9.12
9.21
9.39
9.61
9.75
9.71
9.47
9.08
8.70
8.42
8.27
8.19
8.03
7.66
7.08
6.43
5.90
5.64
5.64
5.72
5.55
4.87
3.55
1.71
-0.38
-2.35
-3.94
-5.03
-5.65
-5.99
-6.23
-6.50
-6.85
-7.21
-7.47
-7.52
-7.35
-7.02
-6.65
-6.38
-6.20
-6.07
-5.83
-5.32
-4.52
-3.50
-2.54
-1.94
-1.95
-2.61
-3.76
-5.07
-6.22
-7.00
-7.35
-7.30
-6.94
-6.35
-5.58
-4.79
-4.15
-3.87
-4.08
-4.73
-5.57
-6.23
-6.41
-6.02
-5.19
-4.25
-3.55
-3.27
-3.36
-3.61
-3.79
-3.78
-3.65
-3.60
-3.87
-4.51
-5.45
-6.47
-7.45
-8.37
-9.34
-10.42
-11.55
-12.45
-12.83
-12.52
-11.57
-10.26
-8.96
-7.93
-7.18
-6.61
-6.07
-5.55
-5.15
-5.03
-5.27
-5.77
-6.32
-6.67
-6.65
-6.22
-5.48
-4.62
-3.79
-3.05
-2.39
-1.75
-1.02
-0.17
0.74
1.61
2.30
2.71
2.85
2.77
2.58
2.35
2.06
1.66
1.11
0.40
-0.40
-1.20
-1.93
-2.54
-3.02
-3.43
-3.84
-4.36
-5.11
-6.17
-7.48
-8.84
-9.92
-10.40
-10.07
-8.94
-7.23
-5.20
-3.07
-0.90
1.32
3.62
5.89
7.92
9.49
10.46
10.89
10.96
10.95
11.03
11.35
11.88
12.58
13.36
14.11
14.70
15.05
15.09
14.84
14.45
14.04
13.74
13.56
13.42
13.19
12.76
12.07
11.12
9.96
8.64
7.24
5.84
4.49
3.25
2.13
1.09
0.11
-0.87
-1.90
-3.01
-4.20
-5.49
-6.84
-8.26
-9.76
-11.37
-13.10
-14.91
-16.63
-17.98
-18.67
-18.42
-17.13
-14.88
-11.87
-8.46
-4.99
-1.83
0.76
2.63
3.77
4.36
4.63
4.81
5.01
5.25
5.49
5.68
5.87
6.13
6.52
7.03
7.57
7.99
8.19
8.17
8.00
7.75
7.49
7.22
6.89
6.48
5.98
5.40
4.74
3.99
3.07
1.97
0.67
-0.76
-2.23
-3.63
-4.92
-6.12
-7.26
-8.40
-9.49
-10.40
-10.92
-10.91
-10.27
-9.05
-7.38
-5.38
-3.16
-0.76
1.77
4.29
6.60
8.41
9.53
9.92
9.75
9.31
8.89
8.68
8.72
8.94
9.24
9.58
9.93
10.23
10.39
10.30
9.90
9.26
8.51
7.80
7.15
6.46
5.60
4.52
3.28
2.02
0.84
-0.28
-1.45
-2.80
-4.35
-5.96
-7.42
-8.55
-9.36
-9.99
-10.71
-11.75
-13.18
-14.93
-16.74
-18.26
-19.13
-19.02
-17.73
-15.29
-11.91
-8.04
-4.16
-0.71
2.05
4.08
5.51
6.54
7.33
7.95
8.39
8.65
8.80
8.92
9.11
9.45
9.91
10.42
10.89
11.27
11.54
11.72
11.81
11.76
11.48
10.90
10.02
8.93
7.72
6.48
5.19
3.80
2.34
0.88
-0.41
-1.46
-2.26
-2.97
-3.74
-4.65
-5.62
-6.51
-7.20
-7.73
-8.28
-9.04
-10.16
-11.60
-13.27
-15.03
-16.76
-18.33
-19.49
-19.94
-19.37
-17.56
-14.58
-10.74
-6.57
-2.62
0.67
3.15
4.88
6.10
7.04
7.83
8.51
9.06
9.48
9.89
10.39
11.10
11.97
12.82
13.39
13.50
13.14
12.46
11.66
10.84
10.00
9.02
7.85
6.51
5.17
4.01
3.17
2.61
2.19
1.71
1.04
0.14
-0.95
-2.18
-3.46
-4.77
-6.02
-7.17
-8.17
-9.01
-9.80
-10.67
-11.74
-12.97
-14.18
-15.06
-15.33
-14.81
-13.52
-11.57
-9.12
-6.29
-3.23
-0.09
2.86
5.29
6.97
7.80
7.94
7.67
7.29
7.00
6.91
6.98
7.20
7.57
8.07
8.61
9.04
9.15
8.78
7.92
6.75
5.53
4.51
3.81
3.38
3.08
2.70
2.08
1.14
-0.10
-1.57
-3.15
-4.75
-6.25
-7.60
-8.76
-9.71
-10.50
-11.18
-11.83
-12.51
-13.20
-13.80
-14.08
-13.76
-12.59
-10.51
-7.66
-4.37
-1.09
1.90
4.41
6.43
7.96
9.00
9.54
9.62
9.42
9.15
8.98
8.96
8.98
8.90
8.66
8.35
8.11
8.07
8.19
8.30
8.21
7.81
7.14
6.32
5.49
4.72
4.06
3.52
3.12
2.85
2.61
2.28
1.64
0.61
-0.75
-2.25
-3.62
-4.70
-5.48
-6.13
-6.87
-7.86
-9.15
-10.62
-12.12
-13.49
-14.55
-15.16
-15.17
-14.40
-12.74
-10.26
-7.21
-3.98
-1.02
1.37
3.10
4.23
4.88
5.14
5.00
4.48
3.70
2.94
2.57
2.86
3.86
5.29
6.70
7.66
7.94
7.61
6.93
6.17
5.54
5.06
4.61
4.07
3.34
2.38
1.23
-0.10
-1.59
-3.18
-4.79
-6.26
-7.49
-8.43
-9.22
-10.07
-11.22
-12.74
-14.47
-16.04
-17.03
-17.04
-15.91
-13.75
-10.86
-7.68
-4.61
-1.93
0.27
2.06
3.56
4.84
5.92
6.74
7.28
7.54
7.60
7.51
7.33
7.09
6.89
6.84
7.11
7.78
8.78
9.89
10.81
11.30
11.25
10.72
9.85
8.83
7.83
6.98
6.36
5.90
5.40
4.62
3.44
1.88
0.22
-1.31
-2.56
-3.58
-4.57
-5.70
-6.99
-8.31
-9.55
-10.71
-11.96
-13.49
-15.25
-16.88
-17.83
-17.53
-15.76
-12.73
-8.94
-5.06
-1.56
1.33
3.62
5.42
6.81
7.79
8.29
8.32
8.01
7.56
7.23
7.18
7.47
8.03
8.75
9.51
10.18
10.66
10.84
10.63
10.05
9.15
8.13
7.20
6.50
6.13
6.01
5.99
5.85
5.37
4.40
2.94
1.10
-0.92
-2.89
-4.66
-6.12
-7.31
-8.29
-9.23
-10.34
-11.87
-13.99
-16.69
-19.69
-22.47
-24.44
-25.09
-24.20
-21.87
-18.49
-14.56
-10.55
-6.86
-3.72
-1.23
0.63
2.01
3.11
4.15
5.31
6.67
8.25
9.99
11.78
13.48
14.92
15.95
16.54
16.76
16.81
16.93
17.34
18.04
18.88
19.53
19.66
19.07
17.85
16.27
14.73
13.52
12.76
12.34
12.03
11.66
11.12
10.41
9.48
8.26
6.73
5.08
3.82
3.46
4.33
6.14
8.07
9.11
8.51
6.18
2.70
-1.12
-4.60
-7.53
-10.01
-12.27
-14.37
-16.14
-17.37
-17.97
-18.11
-18.06
-18.02
-18.04
-17.96
-17.53
-16.58
-15.10
-13.26
-11.34
-9.65
-8.39
-7.68
-7.45
-7.56
-7.80
-7.91
-7.72
-7.11
-6.09
-4.79
-3.43
-2.18
-1.15
-0.32
0.35
0.95
1.48
1.91
2.21
2.39
2.53
2.67
2.84
2.96
2.97
2.78
2.42
1.96
1.54
1.24
1.11
1.10
1.14
1.17
1.15
1.06
0.87
0.50
-0.10
-0.97
-2.07
-3.29
-4.50
-5.60
-6.57
-7.50
-8.44
-9.37
-10.14
-10.57
-10.52
-10.00
-9.15
-8.17
-7.17
-6.14
-5.00
-3.68
-2.19
-0.66
0.76
1.97
2.95
3.76
4.46
5.04
5.46
5.72
5.84
5.91
6.02
6.22
6.44
6.54
6.34
5.73
4.74
3.49
2.20
1.07
0.23
-0.30
-0.60
-0.78
-0.99
-1.29
-1.70
-2.18
-2.68
-3.18
-3.61
-3.96
-4.22
-4.46
-4.75
-5.17
-5.73
-6.36
-6.90
-7.14
-6.89
-6.09
-4.81
-3.24
-1.62
-0.19
0.96
1.85
2.58
3.25
3.91
4.51
4.96
5.21
5.24
5.13
4.97
4.83
4.74
4.65
4.57
4.51
4.50
4.52
4.53
4.46
4.26
3.92
3.49
2.99
2.40
1.72
0.97
0.25
-0.34
-0.71
-0.90
-1.07
-1.38
-1.95
-2.74
-3.58
-4.32
-4.89
-5.36
-5.87
-6.56
-7.49
-8.62
-9.80
-10.85
-11.56
-11.74
-11.24
-9.99
-8.06
-5.67
-3.15
-0.81
1.11
2.51
3.47
4.08
4.47
4.66
4.69
4.61
4.56
4.70
5.16
5.92
6.79
7.51
7.84
7.77
7.41
7.02
6.75
6.64
6.58
6.41
6.06
5.54
4.99
4.47
4.05
3.65
3.18
2.57
1.76
0.80
-0.26
-1.32
-2.31
-3.20
-3.96
-4.63
-5.26
-5.92
-6.64
-7.43
-8.19
-8.78
-9.03
-8.79
-8.04
-6.87
-5.43
-3.96
-2.62
-1.49
-0.56
0.23
0.92
1.50
1.96
2.28
2.48
2.62
2.78
3.00
3.29
3.57
3.74
3.73
3.61
3.51
3.59
3.92
4.43
4.88
5.03
4.75
4.07
3.20
2.34
1.65
1.11
0.65
0.18
-0.32
-0.82
-1.29
-1.74
-2.25
-2.91
-3.80
-4.93
-6.23
-7.54
-8.67
-9.44
-9.64
-9.15
-7.94
-6.15
-4.03
-1.88
0.02
1.52
2.62
3.40
3.96
4.35
4.54
4.50
4.23
3.86
3.60
3.60
3.88
4.34
4.75
4.97
4.93
4.71
4.44
4.15
3.81
3.34
2.68
1.91
1.17
0.60
0.23
-0.07
-0.51
-1.29
-2.45
-3.89
-5.41
-6.77
-7.83
-8.57
-9.12
-9.66
-10.34
-11.20
-12.12
-12.87
-13.20
-12.90
-11.91
-10.32
-8.30
-6.05
-3.76
-1.57
0.41
2.07
3.35
4.20
4.63
4.72
4.58
4.34
4.10
3.92
3.83
3.85
3.99
4.21
4.53
4.92
5.38
5.86
6.28
6.51
6.41
5.95
5.25
4.55
4.05
3.79
3.62
3.22
2.36
1.02
-0.58
-2.10
-3.30
-4.15
-4.83
-5.56
-6.49
-7.59
-8.70
-9.62
-10.17
-10.28
-9.91
-9.09
-7.83
-6.22
-4.31
-2.27
-0.25
1.54
2.94
3.89
4.45
4.76
5.00
5.25
5.49
5.62
5.55
5.31
5.06
4.96
5.12
5.49
5.92
6.24
6.40
6.39
6.29
6.12
5.81
5.29
4.50
3.48
2.35
1.23
0.20
-0.78
-1.81
-2.94
-4.18
-5.45
-6.64
-7.69
-8.66
-9.64
-10.68
-11.67
-12.42
-12.66
-12.18
-10.95
-9.07
-6.78
-4.29
-1.80
0.54
2.54
4.05
4.93
5.16
4.90
4.41
4.01
3.89
4.06
4.39
4.66
4.77
4.68
4.52
4.42
4.51
4.77
5.10
5.37
5.46
5.30
4.85
4.13
3.13
1.90
0.50
-0.98
-2.39
-3.66
-4.78
-5.82
-6.93
-8.24
-9.76
-11.40
-12.91
-14.00
-14.42
-13.98
-12.62
-10.40
-7.50
-4.19
-0.79
2.36
5.02
7.07
8.49
9.34
9.69
9.68
9.46
9.20
9.09
9.27
9.72
10.28
10.76
11.01
10.98
10.77
10.55
10.42
10.34
10.18
9.75
8.93
7.68
6.08
4.27
2.37
0.44
-1.50
-3.47
-5.43
-7.27
-8.92
-10.33
-11.58
-12.86
-14.33
-16.05
-17.82
-19.29
-20.06
-19.79
-18.36
-15.82
-12.41
-8.47
-4.37
-0.52
2.73
5.16
6.72
7.55
7.97
8.30
8.77
9.45
10.26
11.05
11.67
12.08
12.26
12.30
12.26
12.22
12.15
12.05
11.88
11.61
11.23
10.71
10.03
9.16
8.13
6.98
5.80
4.67
3.67
2.82
2.09
1.37
0.57
-0.39
-1.51
-2.74
-4.04
-5.45
-7.05
-9.00
-11.38
-14.06
-16.66
-18.63
-19.38
-18.54
-16.05
-12.23
-7.65
-2.98
1.24
4.65
7.14
8.78
9.77
10.34
10.74
11.11
11.51
11.90
12.19
12.32
12.29
12.18
12.12
12.18
12.35
12.53
12.59
12.42
11.96
11.23
10.24
9.03
7.64
6.11
4.47
2.76
0.99
-0.79
-2.50
-4.03
-5.29
-6.20
-6.81
-7.30
-7.88
-8.78
-10.13
-11.89
-13.90
-15.92
-17.63
-18.78
-19.10
-18.45
-16.73
-14.00
-10.46
-6.51
-2.63
0.69
3.18
4.75
5.59
6.00
6.23
6.46
6.70
6.93
7.16
7.47
7.90
8.43
8.92
9.13
8.95
8.38
7.61
6.89
6.38
6.03
5.59
4.77
3.38
1.52
-0.52
-2.36
-3.79
-4.84
-5.79
-6.97
-8.54
-10.41
-12.35
-14.10
-15.61
-16.92
-18.15
-19.19
-19.76
-19.45
-17.94
-15.22
-11.57
-7.47
-3.43
0.23
3.35
5.88
7.83
9.24
10.19
10.80
11.23
11.66
12.10
12.53
12.85
12.96
12.84
12.64
12.50
12.56
12.82
13.12
13.22
12.91
12.08
10.80
9.24
7.61
5.99
4.38
2.72
0.95
-0.89
-2.71
-4.38
-5.88
-7.24
-8.57
-9.99
-11.59
-13.38
-15.34
-17.39
-19.38
-21.09
-22.21
-22.43
-21.53
-19.48
-16.43
-12.70
-8.69
-4.74
-1.12
1.97
4.41
6.20
7.44
8.34
9.11
9.87
10.56
10.99
11.05
10.75
10.31
10.10
10.38
11.20
12.31
13.35
14.00
14.14
13.84
13.24
12.44
11.41
10.11
8.55
6.87
5.26
3.88
2.73
1.70
0.61
-0.71
-2.30
-4.08
-5.83
-7.36
-8.54
-9.43
-10.28
-11.45
-13.20
-15.61
-18.41
-21.06
-22.93
-23.47
-22.42
-19.84
-16.10
-11.67
-7.05
-2.62
1.32
4.60
7.07
8.66
9.39
9.40
8.97
8.46
8.18
8.27
8.69
9.22
9.65
9.83
9.76
9.54
9.30
9.14
9.13
9.25
9.42
9.48
9.24
8.58
7.50
6.19
4.88
3.72
2.71
1.66
0.39
-1.20
-2.97
-4.70
-6.19
-7.39
-8.40
-9.42
-10.58
-11.88
-13.27
-14.66
-15.99
-17.24
-18.23
-18.69
-18.22
-16.48
-13.40
-9.26
-4.61
-0.13
3.60
6.30
7.99
8.90
9.28
9.36
9.28
9.15
9.06
9.05
9.13
9.25
9.30
9.21
9.01
8.77
8.56
8.38
8.16
7.77
7.12
6.24
5.25
4.22
3.16
1.98
0.61
-0.93
-2.49
-3.90
-5.09
-6.22
-7.57
-9.35
-11.57
-13.95
-16.04
-17.47
-18.03
-17.74
-16.70
-14.97
-12.55
-9.43
-5.79
-1.95
1.69
4.78
7.16
8.84
9.95
10.58
10.80
10.66
10.25
9.72
9.21
8.87
8.74
8.81
9.04
9.34
9.62
9.80
9.77
9.45
8.86
8.02
7.02
5.90
4.66
3.33
1.88
0.32
-1.32
-3.00
-4.68
-6.28
-7.70
-8.93
-10.05
-11.28
-12.85
-14.92
-17.41
-19.99
-22.14
-23.27
-22.98
-21.11
-17.77
-13.32
-8.27
-3.14
1.56
5.48
8.44
10.38
11.44
11.79
11.70
11.41
11.12
11.01
11.15
11.53
12.10
12.73
13.30
13.71
13.91
13.85
13.53
12.97
12.26
11.46
10.64
9.81
8.91
7.87
6.62
5.17
3.62
2.07
0.58
-0.83
-2.20
-3.54
-4.83
-6.00
-7.07
-8.16
-9.46
-11.17
-13.32
-15.71
-17.91
-19.42
-19.80
-18.85
-16.62
-13.42
-9.64
-5.72
-2.03
1.19
3.76
5.63
6.83
7.50
7.80
7.92
8.00
8.12
8.33
8.67
9.15
9.76
10.46
11.11
11.56
11.68
11.45
10.95
10.32
9.64
8.89
7.96
6.74
5.22
3.54
1.98
0.74
-0.14
-0.85
-1.68
-2.84
-4.31
-5.89
-7.28
-8.36
-9.27
-10.35
-11.96
-14.18
-16.76
-19.14
-20.67
-20.91
-19.74
-17.37
-14.22
-10.77
-7.42
-4.42
-1.87
0.25
1.99
3.37
4.39
5.00
5.21
5.13
4.93
4.81
4.91
5.30
5.91
6.61
7.26
7.75
8.03
8.11
8.03
7.82
7.45
6.83
5.88
4.55
2.94
1.21
-0.45
-1.93
-3.25
-4.52
-5.85
-7.31
-8.86
-10.44
-12.01
-13.66
-15.44
-17.35
-19.14
-20.35
-20.47
-19.14
-16.36
-12.49
-8.13
-3.83
0.06
3.41
6.23
8.46
9.96
10.60
10.46
9.84
9.21
8.95
9.15
9.59
9.93
9.96
9.74
9.54
9.64
10.09
10.69
11.04
10.82
9.94
8.58
7.09
5.75
4.69
3.80
2.85
1.66
0.16
-1.53
-3.22
-4.74
-6.05
-7.20
-8.36
-9.69
-11.30
-13.26
-15.57
-18.14
-20.76
-23.09
-24.71
-25.20
-24.29
-21.91
-18.24
-13.66
-8.64
-3.72
0.61
3.99
6.27
7.53
8.06
8.19
8.22
8.32
8.53
8.87
9.35
9.99
10.78
11.62
12.34
12.80
12.97
12.98
13.03
13.22
13.42
13.35
12.65
11.16
9.01
6.61
4.47
2.96
2.14
1.78
1.49
0.89
-0.17
-1.63
-3.31
-5.02
-6.67
-8.26
-9.85
-11.47
-13.14
-14.83
-16.59
-18.48
-20.47
-22.33
-23.57
-23.57
-21.83
-18.18
-13.00
-7.08
-1.32
3.57
7.23
9.65
11.03
11.62
11.67
11.43
11.20
11.22
11.64
12.40
13.25
13.95
14.33
14.45
14.50
14.64
14.93
15.21
15.25
14.86
14.00
12.78
11.42
10.12
9.01
8.11
7.32
6.55
5.70
4.70
3.56
2.30
0.93
-0.51
-2.02
-3.59
-5.19
-6.81
-8.46
-10.15
-11.96
-13.92
-15.98
-17.92
-19.37
-19.91
-19.27
-17.38
-14.48
-10.98
-7.34
-3.95
-0.97
1.53
3.54
5.04
6.00
6.45
6.44
6.20
5.95
5.94
6.28
6.95
7.79
8.57
9.11
9.33
9.26
9.04
8.75
8.37
7.77
6.83
5.50
3.89
2.22
0.68
-0.67
-1.90
-3.12
-4.40
-5.67
-6.85
-7.91
-8.97
-10.30
-12.10
-14.43
-17.01
-19.41
-21.17
-21.95
-21.62
-20.25
-17.95
-14.85
-11.02
-6.67
-2.16
2.03
5.36
7.55
8.59
8.82
8.73
8.74
9.06
9.68
10.40
11.03
11.41
11.46
11.24
10.83
10.36
9.96
9.70
9.58
9.54
9.43
9.12
8.49
7.45
5.98
4.12
1.98
-0.23
-2.31
-4.08
-5.49
-6.63
-7.70
-8.91
-10.39
-12.19
-14.26
-16.55
-18.98
-21.42
-23.70
-25.51
-26.44
-26.09
-24.25
-20.91
-16.42
-11.31
-6.21
-1.69
1.91
4.48
6.16
7.23
8.03
8.82
9.75
10.76
11.71
12.47
12.97
13.26
13.47
13.73
14.08
14.49
14.84
14.97
14.75
14.07
12.92
11.42
9.75
8.13
6.72
5.53
4.50
3.45
2.25
0.81
-0.84
-2.62
-4.42
-6.17
-7.86
-9.51
-11.22
-13.09
-15.15
-17.37
-19.57
-21.50
-22.79
-23.05
-21.98
-19.41
-15.48
-10.62
-5.46
-0.64
3.41
6.50
8.71
10.19
11.07
11.37
11.10
10.37
9.48
8.85
8.84
9.54
10.79
12.17
13.24
13.74
13.67
13.26
12.76
12.31
11.81
11.05
9.82
8.11
6.13
4.22
2.63
1.44
0.47
-0.56
-1.88
-3.52
-5.32
-7.01
-8.41
-9.55
-10.60
-11.89
-13.65
-15.97
-18.65
-21.27
-23.25
-24.03
-23.19
-20.57
-16.39
-11.13
-5.52
-0.29
3.98
6.99
8.80
9.67
9.96
9.97
9.91
9.84
9.75
9.65
9.58
9.65
9.95
10.48
11.08
11.52
11.58
11.14
10.29
9.21
8.06
6.89
5.65
4.24
2.64
0.89
-0.86
-2.52
-4.08
-5.59
-7.15
-8.82
-10.63
-12.65
-14.95
-17.60
-20.58
-23.68
-26.50
-28.52
-29.20
-28.15
-25.27
-20.73
-14.99
-8.75
-2.74
2.42
6.35
8.99
10.57
11.42
11.90
12.22
12.46
12.61
12.68
12.75
12.98
13.58
14.62
16.03
17.53
18.75
19.39
19.32
18.65
17.60
16.40
15.17
13.89
12.47
10.81
8.91
6.85
4.77
2.75
0.80
-1.17
-3.26
-5.48
-7.77
-9.98
-11.98
-13.81
-15.64
-17.70
-20.21
-23.10
-26.04
-28.42
-29.56
-28.90
-26.17
-21.48
-15.31
-8.42
-1.70
4.07
8.35
10.99
12.20
12.44
12.25
12.06
12.16
12.68
13.56
14.70
15.96
17.18
18.21
18.94
19.30
19.33
19.08
18.69
18.29
17.93
17.59
17.11
16.28
14.94
13.05
10.75
8.33
6.14
4.39
3.10
2.09
1.10
-0.09
-1.53
-3.13
-4.73
-6.17
-7.43
-8.55
-9.68
-10.93
-12.36
-13.90
-15.33
-16.32
-16.48
-15.38
-12.78
-8.64
-3.16
3.16
9.75
16.06
21.66
26.32
29.96
32.67
34.64
36.20
37.69
39.48
41.80
44.70
47.98
51.28
54.18
56.38
57.72
58.18
57.79
56.54
54.34
51.13
46.89
41.79
36.13
30.29
24.63
19.39
14.69
10.53
6.87
3.67
0.91
-1.43
-3.51
-5.53
-7.78
-10.47
-13.67
-17.22
-20.80
-24.08
-26.81
-28.91
-30.39
-31.34
-31.89
-32.19
-32.49
-33.10
-34.35
-36.46
-39.46
-43.20
-47.42
-51.83
-56.27
-60.73
-65.35
-70.32
-75.85
-81.92
-88.29
-94.37
-99.34
-102.43
-103.24
-102.08
-99.84
-97.77
-96.86
-97.28
-98.24
-98.20
-95.50
-88.95
-78.27
-64.15
-47.88
-30.85
-14.16
1.68
16.66
31.05
45.11
58.74
71.46
82.34
90.26
94.08
93.01
86.80
75.94
61.71
46.05
31.19
19.15
11.04
6.79
5.27
4.80
3.87
1.67
-1.74
-5.79
-9.83
-13.49
-16.79
-19.95
-23.25
-26.80
-30.54
-34.21
-37.35
-39.31
-39.28
-36.59
-31.02
-23.02
-13.64
-4.22
3.97
10.12
13.86
15.18
14.18
10.92
5.36
-2.63
-13.24
-26.74
-43.35
-63.05
-85.36
-109.25
-133.17
-155.36
-174.16
-188.20
-196.47
-198.32
-193.45
-182.11
-165.26
-144.62
-122.35
-100.58
-80.83
-63.71
-48.94
-35.77
-23.45
-11.62
-0.37
9.89
18.71
25.80
31.14
34.87
37.21
38.31
38.32
37.38
35.70
33.52
31.04
28.27
25.04
20.99
15.75
9.19
1.62
-6.07
-12.54
-16.29
-16.08
-11.29
-2.21
10.04
23.77
37.21
48.90
58.03
64.42
68.37
70.39
71.00
70.63
69.64
68.40
67.22
66.48
66.41
67.05
68.20
69.45
70.28
70.27
69.17
67.01
64.01
60.44
56.51
52.29
47.76
42.92
37.77
32.38
26.73
20.72
14.17
7.01
-0.43
-7.34
-12.44
-14.42
-12.37
-6.21
3.21
14.39
25.64
35.63
43.63
49.48
53.30
55.32
55.70
54.70
52.67
50.20
47.90
46.24
45.42
45.38
45.90
46.68
47.44
47.85
47.57
46.29
43.83
40.24
35.83
30.98
26.02
21.17
16.45
11.77
6.89
1.53
-4.58
-11.55
-19.10
-26.42
-32.17
-34.87
-33.37
-27.30
-17.31
-4.89
8.04
19.77
29.11
35.54
39.14
40.26
39.39
37.04
33.74
30.12
26.84
24.52
23.55
23.96
25.38
27.19
28.70
29.36
28.92
27.35
24.82
21.59
17.88
13.95
9.98
6.07
2.21
-1.81
-6.35
-11.74
-18.01
-24.76
-31.04
-35.59
-37.11
-34.75
-28.36
-18.62
-6.84
5.36
16.49
25.47
31.77
35.40
36.76
36.42
35.06
33.28
31.55
30.18
29.28
28.78
28.55
28.39
28.17
27.82
27.28
26.43
25.13
23.18
20.46
17.01
13.00
8.69
4.35
0.13
-3.92
-7.91
-12.04
-16.63
-21.96
-28.17
-34.98
-41.56
-46.58
-48.56
-46.40
-39.84
-29.66
-17.41
-4.89
6.41
15.60
22.46
27.17
30.02
31.32
31.37
30.61
29.56
28.78
28.69
29.36
30.55
31.81
32.68
32.86
32.29
31.14
29.72
28.26
26.81
25.22
23.14
20.19
16.18
11.16
5.51
-0.17
-5.35
-9.69
-13.25
-16.45
-19.89
-24.12
-29.42
-35.59
-41.88
-47.09
-49.84
-48.99
-44.02
-35.27
-23.93
-11.66
-0.10
9.58
16.90
21.97
25.25
27.18
28.11
28.28
27.91
27.33
26.93
27.01
27.68
28.75
29.81
30.39
30.19
29.21
27.73
26.13
24.70
23.40
21.91
19.79
16.67
12.49
7.54
2.35
-2.59
-6.93
-10.59
-13.72
-16.59
-19.47
-22.66
-26.44
-31.04
-36.49
-42.40
-47.92
-51.74
-52.50
-49.26
-41.89
-31.23
-18.86
-6.59
4.10
12.41
18.19
21.77
23.56
23.92
23.13
21.55
19.68
18.11
17.37
17.67
18.80
20.25
21.41
21.86
21.48
20.44
19.06
17.54
15.88
13.90
11.33
7.95
3.78
-0.97
-5.87
-10.46
-14.38
-17.54
-20.11
-22.56
-25.45
-29.30
-34.30
-40.18
-46.06
-50.67
-52.61
-50.80
-44.89
-35.40
-23.62
-11.18
0.37
10.00
17.29
22.35
25.55
27.27
27.80
27.36
26.21
24.73
23.36
22.53
22.48
23.21
24.48
25.90
27.09
27.74
27.66
26.79
25.14
22.79
19.92
16.73
13.45
10.23
7.09
3.95
0.69
-2.79
-6.47
-10.30
-14.12
-17.79
-21.16
-24.15
-26.80
-29.33
-32.15
-35.68
-40.27
-45.77
-51.52
-56.29
-58.66
-57.41
-52.00
-42.77
-30.85
-17.83
-5.28
5.59
14.20
20.44
24.57
26.93
27.83
27.56
26.47
25.08
23.95
23.58
24.20
25.67
27.52
29.14
30.05
30.09
29.42
28.36
27.17
25.90
24.38
22.33
19.55
16.08
12.22
8.44
5.15
2.54
0.42
-1.65
-4.13
-7.33
-11.20
-15.38
-19.35
-22.73
-25.36
-27.40
-29.23
-31.27
-33.96
-37.63
-42.39
-48.00
-53.71
-58.21
-60.01
-57.82
-51.13
-40.45
-27.26
-13.52
-1.06
8.89
15.92
20.31
22.64
23.60
23.68
23.24
22.52
21.77
21.26
21.21
21.72
22.70
23.90
24.99
25.71
25.91
25.58
24.81
23.63
22.05
20.03
17.56
14.73
11.70
8.64
5.64
2.65
-0.44
-3.74
-7.27
-10.90
-14.41
-17.59
-20.32
-22.66
-24.83
-27.15
-29.98
-33.58
-38.00
-42.92
-47.59
-50.86
-51.47
-48.45
-41.52
-31.26
-19.03
-6.57
4.57
13.35
19.43
22.96
24.39
24.17
22.72
20.44
17.84
15.43
13.72
13.00
13.29
14.34
15.74
17.05
17.90
18.06
17.44
16.13
14.32
12.23
10.02
7.68
5.08
2.03
-1.59
-5.67
-9.92
-14.00
-17.61
-20.68
-23.29
-25.63
-27.97
-30.59
-33.79
-37.88
-42.96
-48.71
-54.25
-58.15
-58.84
-55.18
-46.93
-34.98
-21.10
-7.39
4.44
13.43
19.51
23.17
25.09
25.80
25.62
24.73
23.38
21.92
20.80
20.36
20.74
21.80
23.20
24.55
25.52
25.93
25.70
24.81
23.30
21.26
18.81
16.13
13.30
10.31
7.04
3.34
-0.81
-5.25
-9.63
-13.62
-17.01
-19.85
-22.41
-24.96
-27.75
-30.95
-34.72
-39.22
-44.44
-50.03
-55.05
-58.10
-57.67
-52.77
-43.42
-30.70
-16.53
-2.94
8.48
16.95
22.52
25.73
27.23
27.58
27.14
26.23
25.16
24.30
23.93
24.19
24.97
26.01
26.99
27.70
28.04
28.07
27.84
27.38
26.59
25.32
23.40
20.76
17.45
13.68
9.81
6.20
3.11
0.55
-1.69
-4.01
-6.77
-10.19
-14.18
-18.40
-22.42
-25.85
-28.56
-30.74
-32.83
-35.42
-39.01
-43.75
-49.32
-54.87
-59.12
-60.66
-58.41
-51.92
-41.62
-28.72
-14.89
-1.79
9.27
17.63
23.20
26.29
27.37
26.92
25.40
23.24
20.95
19.04
17.94
17.89
18.87
20.58
22.52
24.17
25.13
25.24
24.59
23.37
21.75
19.80
17.46
14.64
11.34
7.66
3.77
-0.13
-3.93
-7.54
-10.93
-14.02
-16.75
-19.12
-21.24
-23.37
-25.88
-29.09
-33.17
-37.99
-43.01
-47.25
-49.50
-48.62
-43.91
-35.46
-24.18
-11.58
0.69
11.24
19.27
24.58
27.41
28.17
27.28
25.15
22.22
19.01
16.13
14.18
13.52
14.24
16.00
18.14
19.95
20.82
20.52
19.17
17.12
14.76
12.37
9.97
7.42
4.49
1.03
-2.97
-7.39
-11.93
-16.24
-20.02
-23.09
-25.50
-27.50
-29.55
-32.16
-35.77
-40.52
-46.12
-51.71
-56.00
-57.55
-55.17
-48.38
-37.61
-24.17
-9.88
3.44
14.42
22.38
27.35
29.86
30.62
30.35
29.60
28.76
28.06
27.60
27.47
27.66
28.14
28.80
29.47
29.98
30.19
30.03
29.46
28.44
26.87
24.65
21.72
18.17
14.21
10.13
6.17
2.39
-1.27
-4.96
-8.75
-12.53
-16.10
-19.27
-22.02
-24.55
-27.21
-30.43
-34.52
-39.60
-45.46
-51.43
-56.42
-59.07
-58.11
-52.80
-43.23
-30.41
-16.02
-1.91
10.36
19.88
26.40
30.15
31.69
31.62
30.53
28.95
27.35
26.07
25.34
25.25
25.75
26.72
27.92
29.12
30.07
30.56
30.42
29.52
27.82
25.37
22.33
18.91
15.33
11.73
8.21
4.75
1.28
-2.30
-6.02
-9.83
-13.59
-17.12
-20.27
-23.00
-25.46
-28.03
-31.17
-35.29
-40.47
-46.32
-51.86
-55.72
-56.48
-53.14
-45.50
-34.25
-20.86
-7.10
5.40
15.50
22.67
26.88
28.50
28.05
26.18
23.52
20.72
18.34
16.84
16.44
17.11
18.55
20.23
21.59
22.17
21.83
20.70
19.14
17.44
15.68
13.64
10.93
7.22
2.48
-2.92
-8.34
-13.13
-16.89
-19.59
-21.58
-23.45
-25.83
-29.23
-33.81
-39.27
-44.79
-49.06
-50.62
-48.26
-41.52
-30.94
-17.95
-4.42
7.86
17.69
24.64
28.90
30.99
31.43
30.63
28.90
26.59
24.13
22.06
20.83
20.67
21.47
22.83
24.20
25.07
25.17
24.43
23.00
21.09
18.85
16.33
13.48
10.22
6.47
2.26
-2.26
-6.83
-11.13
-14.91
-18.07
-20.69
-23.02
-25.42
-28.26
-31.84
-36.33
-41.68
-47.53
-53.08
-57.14
-58.34
-55.53
-48.26
-37.04
-23.31
-8.98
4.10
14.64
22.21
27.06
29.82
31.17
31.62
31.47
30.95
30.30
29.78
29.62
29.90
30.51
31.20
31.69
31.84
31.68
31.33
30.89
30.29
29.26
27.42
24.55
20.70
16.26
11.79
7.83
4.63
2.05
-0.31
-2.90
-6.00
-9.61
-13.49
-17.30
-20.80
-23.91
-26.71
-29.40
-32.19
-35.37
-39.25
-44.01
-49.53
-55.06
-59.24
-60.41
-57.16
-48.98
-36.57
-21.70
-6.64
6.57
16.69
23.45
27.34
29.17
29.70
29.46
28.81
28.00
27.29
26.94
27.13
27.82
28.81
29.73
30.29
30.33
29.89
29.15
28.26
27.25
25.97
24.19
21.70
18.46
14.64
10.58
6.68
3.25
0.39
-2.06
-4.44
-7.11
-10.22
-13.70
-17.19
-20.31
-22.82
-24.78
-26.56
-28.73
-31.81
-36.07
-41.37
-47.02
-51.82
-54.33
-53.19
-47.67
-37.95
-25.21
-11.30
1.81
12.62
20.36
25.04
27.11
27.22
25.98
23.92
21.58
19.48
18.07
17.59
18.07
19.26
20.79
22.24
23.25
23.61
23.23
22.15
20.51
18.47
16.15
13.58
10.71
7.47
3.83
-0.16
-4.35
-8.51
-12.39
-15.78
-18.55
-20.74
-22.54
-24.30
-26.46
-29.43
-33.48
-38.62
-44.41
-49.95
-53.95
-55.01
-52.04
-44.69
-33.63
-20.32
-6.72
5.41
14.92
21.48
25.45
27.48
28.21
28.10
27.44
26.49
25.55
24.96
25.03
25.87
27.29
28.90
30.21
30.84
30.67
29.85
28.70
27.48
26.23
24.72
22.57
19.49
15.47
10.93
6.51
2.78
-0.04
-2.18
-4.22
-6.74
-10.02
-13.93
-18.01
-21.71
-24.71
-27.00
-28.85
-30.67
-32.94
-36.04
-40.20
-45.33
-50.80
-55.40
-57.57
-55.86
-49.53
-38.96
-25.61
-11.55
1.23
11.42
18.60
23.09
25.57
26.72
27.02
26.78
26.26
25.72
25.48
25.76
26.68
28.11
29.76
31.22
32.17
32.43
32.04
31.18
30.07
28.82
27.36
25.45
22.85
19.46
15.46
11.25
7.39
4.30
2.09
0.51
-0.98
-2.98
-5.83
-9.54
-13.75
-17.89
-21.48
-24.25
-26.29
-28.00
-29.89
-32.49
-36.14
-40.88
-46.33
-51.65
-55.62
-56.88
-54.32
-47.50
-36.91
-23.91
-10.36
1.94
11.76
18.63
22.80
24.86
25.42
24.90
23.58
21.76
19.84
18.32
17.63
18.00
19.27
21.00
22.65
23.78
24.16
23.83
22.93
21.63
20.01
18.05
15.69
12.90
9.69
6.10
2.20
-1.90
-6.05
-10.00
-13.51
-16.43
-18.74
-20.68
-22.62
-24.99
-28.13
-32.18
-36.92
-41.74
-45.66
-47.49
-46.15
-41.01
-32.22
-20.75
-8.16
3.86
13.90
21.19
25.60
27.52
27.53
26.23
24.15
21.74
19.43
17.60
16.58
16.51
17.33
18.76
20.41
21.82
22.67
22.79
22.15
20.84
18.98
16.69
14.05
11.12
7.93
4.47
0.75
-3.18
-7.21
-11.17
-14.89
-18.20
-21.06
-23.53
-25.82
-28.20
-31.00
-34.52
-38.95
-44.17
-49.60
-54.23
-56.68
-55.67
-50.44
-41.11
-28.75
-15.08
-1.95
9.18
17.55
23.12
26.33
27.79
28.07
27.58
26.66
25.60
24.72
24.25
24.32
24.86
25.70
26.58
27.34
27.91
28.25
28.36
28.12
27.34
25.79
23.33
20.03
16.15
12.12
8.32
4.97
2.04
-0.74
-3.70
-7.07
-10.84
-14.76
-18.46
-21.66
-24.25
-26.39
-28.49
-31.07
-34.62
-39.38
-45.12
-50.97
-55.56
-57.27
-54.78
-47.57
-36.23
-22.28
-7.75
5.44
15.99
23.38
27.79
29.79
30.06
29.18
27.67
25.96
24.47
23.60
23.57
24.37
25.72
27.15
28.21
28.68
28.64
28.33
28.02
27.67
26.99
25.54
23.04
19.51
15.35
11.09
7.15
3.70
0.57
-2.52
-5.79
-9.29
-12.87
-16.29
-19.35
-21.97
-24.23
-26.38
-28.84
-32.09
-36.45
-41.84
-47.54
-52.21
-54.26
-52.34
-45.90
-35.42
-22.34
-8.55
4.19
14.66
22.33
27.22
29.63
29.90
28.44
25.69
22.28
18.96
16.43
15.19
15.38
16.76
18.80
20.82
22.24
22.67
22.06
20.61
18.75
16.82
14.98
13.06
10.64
7.30
2.86
-2.41
-7.91
-12.90
-16.85
-19.67
-21.68
-23.47
-25.67
-28.74
-32.90
-38.09
-43.84
-49.22
-52.90
-53.40
-49.61
-41.22
-29.06
-14.86
-0.76
11.44
20.67
26.78
30.25
31.74
31.85
30.96
29.38
27.48
25.72
24.52
24.17
24.65
25.72
26.98
28.09
28.80
28.98
28.57
27.54
25.88
23.63
20.89
17.83
14.61
11.35
8.03
4.56
0.83
-3.18
-7.40
-11.61
-15.58
-19.12
-22.18
-24.84
-27.31
-29.90
-32.99
-36.92
-41.86
-47.58
-53.34
-57.83
-59.49
-57.02
-49.85
-38.50
-24.49
-9.88
3.41
14.11
21.80
26.82
29.82
31.45
32.17
32.30
32.04
31.66
31.38
31.35
31.57
31.91
32.20
32.32
32.20
31.79
30.95
29.48
27.12
23.72
19.31
14.21
8.88
3.81
-0.65
-4.42
-7.75
-11.13
-15.16
-20.23
-26.37
-33.14
-39.70
-45.10
-48.64
-50.15
-50.04
-49.22
-48.75
-49.43
-51.55
-54.67
-57.66
-58.97
-57.04
-50.86
-40.28
-26.24
-10.49
4.92
18.24
28.44
35.32
39.34
41.23
41.63
41.03
39.73
38.09
36.51
35.43
35.12
35.59
36.55
37.49
37.97
37.72
36.76
35.28
33.48
31.45
29.11
26.26
22.78
18.63
13.95
8.98
3.97
-0.80
-5.11
-8.80
-11.80
-14.20
-16.29
-18.50
-21.35
-25.20
-30.13
-35.72
-41.10
-45.00
-46.15
-43.59
-37.03
-27.01
-14.75
-1.89
9.98
19.72
26.74
31.04
32.92
32.84
31.27
28.67
25.58
22.57
20.19
18.83
18.62
19.43
20.91
22.61
24.07
24.95
25.03
24.20
22.52
20.16
17.38
14.43
11.53
8.75
6.02
3.23
0.27
-2.88
-6.11
-9.26
-12.11
-14.48
-16.31
-17.72
-19.03
-20.75
-23.36
-27.12
-31.74
-36.31
-39.35
-39.28
-34.88
-25.77
-12.66
2.94
19.15
34.29
47.28
57.77
65.94
72.25
77.16
81.05
84.26
87.25
90.63
95.08
101.13
108.91
118.05
127.75
137.04
145.21
152.07
158.02
163.93
170.79
179.33
189.72
201.36
212.79
221.87
226.10
223.20
211.63
191.04
162.39
127.72
89.59
50.38
11.90
-24.79
-59.15
-90.80
-119.15
-143.48
-163.12
-177.82
-187.99
-194.46
-198.21
-199.79
-199.19
-195.94
-189.61
-180.26
-168.71
-156.31
-144.46
-134.10
-125.43
-118.00
-111.14
-104.41
-97.82
-91.82
-86.93
-83.47
-81.34
-80.08
-79.16
-78.22
-77.21
-76.29
-75.60
-75.11
-74.63
-73.99
-73.22
-72.60
-72.61
-73.56
-75.45
-77.86
-80.18
-81.82
-82.57
-82.59
-82.24
-81.83
-81.45
-80.94
-80.03
-78.41
-75.67
-71.24
-64.28
-53.95
-39.80
-22.11
-2.04
18.57
37.73
53.86
66.02
74.05
78.26
79.20
77.45
73.57
68.12
61.77
55.16
48.87
43.21
38.17
33.37
28.27
22.39
15.62
8.33
1.31
-4.54
-8.55
-10.51
-10.69
-9.71
-8.32
-7.12
-6.49
-6.51
-7.00
-7.67
-8.20
-8.41
-8.28
-8.06
-8.15
-9.01
-10.99
-14.10
-17.84
-21.14
-22.58
-20.80
-14.97
-5.23
7.24
20.57
32.83
42.54
49.08
52.62
53.83
53.44
51.95
49.61
46.50
42.78
38.75
34.89
31.67
29.35
27.90
26.96
25.97
24.32
21.57
17.55
12.40
6.45
0.15
-6.14
-12.23
-18.19
-24.27
-30.83
-38.14
-46.23
-54.84
-63.46
-71.47
-78.26
-83.45
-87.06
-89.56
-91.88
-95.18
-100.48
-108.13
-117.38
-126.39
-132.49
-133.00
-126.16
-111.74
-91.14
-66.98
-42.18
-19.24
0.25
15.67
27.06
34.86
39.62
41.98
42.69
42.62
42.65
43.44
45.30
48.07
51.23
54.11
56.14
57.04
56.88
55.97
54.70
53.35
51.97
50.40
48.37
45.56
41.79
37.10
31.73
26.06
20.55
15.56
11.27
7.66
4.43
1.23
-2.39
-6.79
-12.16
-18.35
-24.80
-30.51
-34.24
-34.80
-31.47
-24.24
-13.92
-1.91
10.12
20.74
28.98
34.48
37.41
38.20
37.38
35.46
32.91
30.24
27.95
26.57
26.41
27.45
29.28
31.26
32.72
33.27
32.88
31.86
30.54
29.07
27.28
24.81
21.32
16.71
11.30
5.66
0.45
-3.91
-7.38
-10.24
-13.06
-16.42
-20.75
-26.18
-32.36
-38.44
-43.18
-45.19
-43.38
-37.34
-27.57
-15.34
-2.35
9.84
20.12
28.02
33.55
36.98
38.60
38.66
37.43
35.33
32.95
30.93
29.84
29.95
31.12
32.87
34.53
35.50
35.43
34.32
32.41
30.06
27.53
24.97
22.37
19.57
16.40
12.72
8.47
3.75
-1.17
-5.92
-10.17
-13.73
-16.68
-19.35
-22.19
-25.68
-30.15
-35.65
-41.85
-47.94
-52.70
-54.77
-52.95
-46.73
-36.49
-23.54
-9.69
3.23
13.90
21.75
26.90
29.85
31.22
31.50
31.06
30.18
29.14
28.22
27.68
27.65
28.12
28.93
29.82
30.56
31.01
31.11
30.83
30.08
28.72
26.58
23.58
19.87
15.76
11.64
7.77
4.25
0.95
-2.34
-5.79
-9.40
-13.07
-16.63
-19.95
-23.00
-25.89
-28.81
-32.06
-35.99
-40.79
-46.36
-52.00
-56.48
-58.24
-55.96
-49.03
-37.89
-24.00
-9.33
4.16
15.09
22.88
27.66
29.96
30.46
29.72
28.26
26.53
25.02
24.17
24.28
25.41
27.28
29.35
30.99
31.71
31.32
30.04
28.30
26.57
25.08
23.76
22.25
20.14
17.16
13.36
9.10
4.90
1.25
-1.62
-3.80
-5.65
-7.65
-10.26
-13.73
-18.08
-23.04
-28.01
-32.14
-34.44
-33.95
-30.05
-22.70
-12.48
-0.57
11.52
22.37
30.88
36.50
39.26
39.54
37.95
35.14
31.71
28.25
25.27
23.19
22.26
22.47
23.52
24.95
26.26
27.08
27.25
26.76
25.67
23.95
21.57
18.48
14.77
10.67
6.53
2.60
-1.00
-4.41
-7.84
-11.50
-15.41
-19.40
-23.20
-26.56
-29.44
-31.96
-34.39
-37.08
-40.38
-44.51
-49.46
-54.82
-59.66
-62.65
-62.37
-57.79
-48.76
-36.14
-21.70
-7.46
4.84
14.25
20.69
24.66
26.84
27.82
27.97
27.55
26.88
26.39
26.52
27.49
29.22
31.28
33.11
34.26
34.55
34.10
33.15
31.91
30.36
28.36
25.72
22.43
18.71
14.93
11.44
8.38
5.63
2.88
-0.16
-3.60
-7.28
-10.87
-14.05
-16.69
-18.95
-21.19
-23.86
-27.35
-31.79
-37.01
-42.40
-46.99
-49.55
-48.92
-44.39
-36.03
-24.80
-12.33
-0.46
9.35
16.34
20.57
22.60
23.17
22.81
21.88
20.58
19.14
17.92
17.28
17.41
18.28
19.61
21.05
22.29
23.21
23.78
24.00
23.77
22.91
21.26
18.82
15.76
12.41
9.11
6.06
3.22
0.42
-2.54
-5.78
-9.19
-12.55
-15.61
-18.20
-20.34
-22.22
-24.13
-26.41
-29.33
-32.98
-37.18
-41.30
-44.36
-45.18
-42.78
-36.77
-27.61
-16.51
-5.10
5.07
12.97
18.22
21.00
21.80
21.10
19.33
16.87
14.18
11.77
10.12
9.55
10.06
11.34
12.89
14.23
15.05
15.27
14.98
14.35
13.50
12.45
11.13
9.40
7.15
4.32
0.97
-2.67
-6.30
-9.59
-12.31
-14.44
-16.19
-17.92
-20.04
-22.84
-26.39
-30.42
-34.33
-37.23
-38.16
-36.35
-31.48
-23.84
-14.33
-4.23
5.16
12.84
18.22
21.19
21.95
20.90
18.54
15.42
12.12
9.16
6.97
5.80
5.68
6.41
7.61
8.84
9.71
10.03
9.84
9.32
8.67
7.87
6.68
4.71
1.69
-2.31
-6.79
-11.05
-14.49
-16.86
-18.41
-19.73
-21.50
-24.20
-27.98
-32.55
-37.24
-41.04
-42.80
-41.51
-36.66
-28.47
-17.98
-6.75
3.56
11.75
17.30
20.36
21.47
21.19
19.95
18.02
15.71
13.42
11.69
10.95
11.32
12.54
14.01
15.10
15.40
14.94
14.06
13.23
12.68
12.35
11.88
10.85
8.96
6.16
2.63
-1.30
-5.28
-9.00
-12.28
-15.03
-17.35
-19.44
-21.65
-24.35
-27.77
-31.87
-36.21
-39.97
-42.05
-41.46
-37.59
-30.49
-20.93
-10.23
0.16
8.97
15.47
19.46
21.19
21.20
20.09
18.41
16.61
14.99
13.78
13.11
13.11
13.83
15.21
16.97
18.67
19.79
19.92
18.98
17.20
15.05
12.97
11.18
9.59
7.93
5.88
3.26
0.10
-3.41
-6.97
-10.36
-13.42
-16.14
-18.52
-20.67
-22.76
-25.05
-27.88
-31.50
-35.84
-40.30
-43.80
-45.00
-42.83
-36.93
-27.87
-17.01
-5.99
3.80
11.57
17.12
20.66
22.45
22.72
21.66
19.56
16.91
14.33
12.43
11.62
11.97
13.23
14.91
16.50
17.58
17.94
17.60
16.75
15.62
14.37
13.02
11.43
9.41
6.83
3.74
0.34
-3.03
-6.11
-8.75
-11.01
-13.08
-15.24
-17.70
-20.67
-24.25
-28.42
-32.85
-36.83
-39.32
-39.22
-35.75
-28.86
-19.31
-8.49
2.08
11.18
18.15
22.86
25.44
26.05
24.90
22.24
18.59
14.76
11.61
9.87
9.83
11.22
13.37
15.49
16.91
17.34
16.80
15.54
13.88
12.03
10.11
8.06
5.79
3.10
-0.11
-3.86
-7.98
-12.14
-15.94
-19.05
-21.43
-23.31
-25.22
-27.76
-31.37
-36.09
-41.44
-46.43
-49.76
-50.19
-46.88
-39.76
-29.57
-17.68
-5.72
4.95
13.45
19.55
23.44
25.53
26.21
25.82
24.65
23.09
21.56
20.48
20.12
20.56
21.66
23.13
24.67
25.99
26.83
27.05
26.56
25.37
23.58
21.39
18.96
16.40
13.77
11.04
8.17
5.13
1.90
-1.46
-4.83
-8.07
-11.04
-13.67
-16.03
-18.32
-20.87
-24.03
-28.06
-32.97
-38.34
-43.25
-46.48
-46.74
-43.18
-35.71
-25.13
-12.94
-0.84
9.70
17.79
23.17
26.07
26.98
26.47
25.14
23.55
22.20
21.44
21.43
22.08
23.13
24.26
25.21
25.82
26.09
26.06
25.79
25.28
24.48
23.27
21.58
19.38
16.76
13.83
10.69
7.39
3.92
0.31
-3.37
-6.90
-10.06
-12.68
-14.78
-16.53
-18.24
-20.23
-22.74
-25.94
-29.88
-34.46
-39.26
-43.48
-45.98
-45.56
-41.36
-33.34
-22.35
-10.00
1.86
11.74
18.83
23.09
25.00
25.18
24.12
22.14
19.53
16.66
14.11
12.48
12.21
13.39
15.65
18.27
20.46
21.65
21.67
20.72
19.20
17.45
15.55
13.33
10.54
7.01
2.84
-1.59
-5.85
-9.55
-12.57
-15.02
-17.19
-19.39
-21.96
-25.15
-29.16
-33.93
-39.00
-43.50
-46.18
-45.84
-41.77
-34.02
-23.53
-11.78
-0.36
9.49
17.11
22.41
25.66
27.22
27.43
26.59
25.02
23.09
21.25
19.95
19.50
20.00
21.32
23.11
24.91
26.27
26.83
26.42
25.06
22.94
20.35
17.59
14.86
12.20
9.50
6.59
3.30
-0.34
-4.19
-8.02
-11.62
-14.85
-17.73
-20.39
-22.99
-25.78
-29.01
-32.91
-37.49
-42.40
-46.78
-49.41
-49.02
-44.79
-36.71
-25.66
-13.16
-0.92
9.66
17.75
23.15
26.10
27.09
26.68
25.38
23.64
21.89
20.48
19.68
19.64
20.33
21.56
22.98
24.23
24.99
25.06
24.41
23.14
21.39
19.32
17.05
14.62
12.06
9.34
6.46
3.48
0.51
-2.33
-4.95
-7.41
-9.85
-12.41
-15.12
-17.89
-20.59
-23.21
-26.01
-29.38
-33.62
-38.52
-43.20
-46.21
-46.05
-41.78
-33.53
-22.49
-10.53
0.51
9.43
15.83
19.96
22.28
23.16
22.75
21.15
18.65
15.83
13.43
12.11
12.18
13.52
15.61
17.80
19.48
20.28
20.15
19.24
17.86
16.27
14.58
12.70
10.40
7.44
3.77
-0.42
-4.69
-8.58
-11.75
-14.16
-16.08
-17.93
-20.15
-23.01
-26.64
-30.95
-35.59
-39.88
-42.85
-43.38
-40.56
-34.09
-24.53
-13.18
-1.72
8.34
16.06
21.23
24.11
25.18
24.89
23.58
21.59
19.30
17.22
15.82
15.39
15.95
17.24
18.76
20.06
20.81
20.89
20.37
19.41
18.11
16.51
14.59
12.32
9.72
6.83
3.73
0.50
-2.80
-6.11
-9.36
-12.43
-15.23
-17.75
-20.00
-22.16
-24.49
-27.31
-30.96
-35.57
-40.83
-45.90
-49.43
-49.96
-46.42
-38.66
-27.62
-15.06
-3.01
6.98
14.19
18.78
21.42
22.81
23.40
23.39
22.83
21.92
21.04
20.60
20.86
21.77
23.01
24.14
24.87
25.13
25.07
24.92
24.78
24.52
23.83
22.35
19.94
16.75
13.21
9.82
6.93
4.59
2.54
0.36
-2.30
-5.56
-9.23
-12.96
-16.34
-19.11
-21.25
-22.99
-24.76
-27.04
-30.24
-34.45
-39.30
-43.87
-46.90
-47.07
-43.48
-36.06
-25.61
-13.68
-2.00
7.97
15.41
20.22
22.79
23.67
23.38
22.29
20.72
19.06
17.78
17.29
17.80
19.18
21.03
22.78
24.01
24.57
24.57
24.30
23.95
23.53
22.84
21.61
19.70
17.17
14.26
11.28
8.41
5.70
3.01
0.21
-2.75
-5.78
-8.72
-11.42
-13.80
-15.92
-17.94
-20.10
-22.69
-25.98
-30.13
-35.01
-40.06
-44.24
-46.27
-45.06
-40.09
-31.73
-21.21
-10.18
-0.25
7.49
12.61
15.19
15.66
14.46
12.00
8.68
5.00
1.57
-1.00
-2.30
-2.24
-1.16
0.34
1.64
2.24
1.97
0.97
-0.44
-1.89
-3.14
-4.16
-5.14
-6.36
-8.05
-10.29
-12.93
-15.65
-18.13
-20.14
-21.68
-22.94
-24.20
-25.78
-27.95
-30.80
-34.19
-37.62
-40.27
-41.08
-39.09
-33.76
-25.28
-14.56
-2.96
8.12
17.68
25.26
30.87
34.73
37.07
38.01
37.62
36.12
33.90
31.51
29.52
28.32
28.06
28.63
29.77
31.13
32.36
33.15
33.31
32.72
31.41
29.53
27.28
24.80
22.18
19.38
16.33
12.96
9.31
5.52
1.78
-1.72
-4.89
-7.73
-10.34
-12.87
-15.50
-18.43
-21.83
-25.69
-29.71
-33.16
-34.96
-33.97
-29.50
-21.65
-11.44
-0.51
9.43
17.14
22.18
24.84
25.78
25.65
24.84
23.57
21.98
20.30
18.88
18.00
17.84
18.29
19.13
20.05
20.84
21.34
21.52
21.30
20.62
19.40
17.63
15.36
12.74
9.96
7.18
4.50
1.93
-0.60
-3.15
-5.82
-8.61
-11.49
-14.34
-17.03
-19.44
-21.53
-23.43
-25.46
-28.05
-31.57
-36.03
-40.85
-44.94
-46.91
-45.55
-40.36
-31.75
-20.93
-9.56
0.84
9.23
15.22
18.90
20.64
20.83
19.83
17.98
15.68
13.42
11.67
10.79
10.97
12.15
14.03
16.11
17.84
18.74
18.56
17.38
15.56
13.57
11.78
10.21
8.58
6.46
3.56
-0.06
-4.01
-7.74
-10.84
-13.20
-14.99
-16.59
-18.32
-20.41
-22.97
-26.07
-29.64
-33.42
-36.77
-38.71
-38.16
-34.35
-27.18
-17.39
-6.39
4.20
13.07
19.49
23.39
25.18
25.41
24.59
23.08
21.23
19.36
17.81
16.84
16.56
16.89
17.63
18.47
19.21
19.66
19.77
19.52
18.88
17.86
16.46
14.74
12.73
10.49
8.02
5.30
2.29
-0.99
-4.44
-7.91
-11.18
-14.08
-16.53
-18.61
-20.48
-22.41
-24.67
-27.55
-31.22
-35.59
-40.18
-44.07
-45.99
-44.75
-39.72
-31.10
-20.00
-8.10
2.88
11.73
17.93
21.65
23.43
23.88
23.49
22.60
21.45
20.27
19.28
18.66
18.45
18.59
18.89
19.17
19.26
19.12
18.77
18.23
17.52
16.57
15.31
13.67
11.70
9.49
7.17
4.88
2.64
0.45
-1.78
-4.12
-6.62
-9.21
-11.81
-14.29
-16.56
-18.67
-20.80
-23.28
-26.46
-30.48
-35.09
-39.55
-42.66
-43.17
-40.19
-33.57
-24.04
-13.00
-2.04
7.47
14.76
19.63
22.34
23.34
23.11
22.07
20.59
19.01
17.64
16.66
16.18
16.17
16.52
17.07
17.67
18.16
18.40
18.27
17.71
16.73
15.38
13.78
12.02
10.17
8.22
6.09
3.68
0.92
-2.21
-5.59
-9.01
-12.22
-14.99
-17.21
-18.96
-20.47
-22.07
-24.11
-26.91
-30.54
-34.77
-38.99
-42.20
-43.28
-41.29
-35.87
-27.41
-17.03
-6.26
3.45
11.12
16.39
19.40
20.58
20.36
19.05
16.94
14.35
11.75
9.63
8.41
8.19
8.79
9.72
10.50
10.77
10.48
9.82
9.09
8.47
7.85
6.88
5.16
2.43
-1.23
-5.40
-9.52
-13.11
-15.96
-18.19
-20.15
-22.26
-24.87
-28.15
-32.05
-36.18
-39.82
-41.93
-41.46
-37.69
-30.57
-20.88
-10.00
0.53
9.48
16.22
20.74
23.41
24.60
24.57
23.46
21.47
18.96
16.49
14.68
13.91
14.22
15.23
16.34
17.01
16.95
16.22
15.10
13.91
12.84
11.79
10.51
8.65
6.00
2.57
-1.45
-5.68
-9.77
-13.43
-16.54
-19.16
-21.44
-23.65
-26.12
-29.19
-33.06
-37.55
-42.00
-45.31
-46.15
-43.47
-36.93
-27.10
-15.34
-3.31
7.47
16.03
22.06
25.71
27.34
27.35
26.09
23.93
21.35
18.89
17.08
16.26
16.52
17.69
19.35
20.97
22.12
22.48
21.97
20.71
18.94
16.93
14.82
12.63
10.23
7.46
4.23
0.60
-3.22
-6.98
-10.40
-13.35
-15.82
-17.98
-20.09
-22.44
-25.35
-29.04
-33.58
-38.71
-43.73
-47.54
-48.89
-46.73
-40.64
-31.06
-19.24
-6.84
4.52
13.67
20.12
23.97
25.70
25.89
25.06
23.58
21.74
19.84
18.21
17.20
17.08
17.91
19.44
21.20
22.66
23.38
23.21
22.28
20.89
19.35
17.85
16.34
14.59
12.30
9.26
5.42
1.00
-3.59
-7.87
-11.44
-14.14
-16.09
-17.65
-19.31
-21.58
-24.82
-29.18
-34.39
-39.73
-44.07
-46.09
-44.67
-39.27
-30.23
-18.72
-6.39
5.11
14.59
21.53
25.97
28.18
28.51
27.20
24.59
21.18
17.70
14.95
13.56
13.70
15.06
16.96
18.64
19.58
19.64
19.01
18.05
17.04
16.00
14.67
12.68
9.73
5.83
1.35
-3.16
-7.17
-10.42
-12.99
-15.23
-17.57
-20.38
-23.88
-28.13
-33.03
-38.24
-43.02
-46.29
-46.79
-43.53
-36.22
-25.57
-13.04
-0.52
10.41
18.82
24.53
27.90
29.44
29.52
28.34
26.09
23.14
20.10
17.71
16.59
16.99
18.66
20.98
23.15
24.54
24.82
24.06
22.56
20.72
18.85
17.05
15.18
12.97
10.13
6.51
2.22
-2.35
-6.71
-10.43
-13.31
-15.53
-17.46
-19.63
-22.47
-26.21
-30.84
-36.02
-41.03
-44.86
-46.31
-44.36
-38.56
-29.25
-17.57
-5.15
6.32
15.63
22.20
26.14
27.93
28.18
27.43
26.10
24.53
23.06
21.99
21.56
21.84
22.70
23.87
25.02
25.88
26.34
26.41
26.13
25.46
