1530126020.00
64.000000
-0.00
-0.00
-0.00
-0.00
-0.00
-0.00
-0.00
-0.00
-0.00
-0.00
0.00
0.01
0.01
-0.00
-0.03
-0.05
-0.05
0.00
0.13
0.36
0.66
1.01
1.37
1.72
2.06
2.40
2.79
3.24
3.80
4.42
5.06
5.66
6.20
6.68
7.15
7.68
8.31
9.14
10.09
11.04
11.88
12.56
13.14
13.76
14.65
15.96
17.91
20.32
22.90
25.38
27.58
29.57
31.68
34.32
37.81
42.54
48.15
54.10
59.83
64.97
69.58
74.14
79.34
85.71
93.76
103.00
112.62
121.73
129.77
136.75
143.30
150.75
157.77
166.64
177.95
191.79
206.97
220.57
228.25
225.36
208.53
176.87
132.76
80.05
23.07
-34.94
-92.44
-149.16
-205.23
-260.37
-313.74
-363.87
-409.83
-450.91
-486.50
-515.74
-537.23
-549.22
-549.96
-538.37
-514.21
-478.67
-433.88
-382.45
-327.02
-269.84
-212.63
-156.66
-102.95
-52.37
-5.90
35.58
71.43
101.35
125.50
144.38
158.69
169.15
176.37
180.75
182.57
182.07
179.51
175.23
169.65
163.18
156.15
148.81
141.30
133.69
126.02
118.33
110.69
103.16
95.80
88.68
81.83
75.25
68.95
62.95
57.25
51.86
46.78
42.03
37.59
33.45
29.61
26.07
22.81
19.83
17.11
14.67
12.48
10.54
8.83
7.35
6.07
4.97
4.05
3.27
2.62
2.09
1.65
1.30
1.01
0.79
0.61
0.47
0.37
0.29
0.23
0.19
0.16
0.15
0.15
0.16
0.17
0.20
0.22
0.25
0.30
0.35
0.42
0.48
0.53
0.54
0.51
0.45
0.38
0.33
0.32
0.37
0.45
0.54
0.62
0.64
0.64
0.63
0.66
0.77
0.96
1.20
1.43
1.60
1.68
1.68
1.68
1.78
2.06
2.52
3.08
3.59
3.91
3.94
3.75
3.51
3.48
3.84
4.64
5.67
6.62
7.14
7.07
6.50
5.79
5.42
5.77
6.87
8.42
9.78
10.31
9.61
7.71
5.03
2.13
-0.56
-2.99
-5.52
-8.75
-13.24
-19.35
-27.21
-36.69
-47.23
-57.47
-65.29
-68.20
-64.24
-53.07
-36.44
-17.86
-1.23
10.55
16.70
18.27
17.36
15.75
14.26
12.71
10.64
7.97
5.22
3.16
2.30
2.49
2.99
2.86
1.48
-1.01
-3.89
-6.09
-6.76
-5.62
-3.01
0.27
3.32
5.51
6.69
7.00
6.68
5.85
4.42
2.16
-0.98
-4.74
-8.54
-11.61
-13.37
-13.74
-13.18
-12.50
-12.63
-14.23
-17.58
-22.36
-27.79
-32.87
-36.78
-39.09
-39.94
-39.87
-39.54
-39.37
-40.03
-41.43
-43.15
-44.77
-46.04
-46.98
-47.70
-48.31
-48.88
-49.57
-50.61
-52.27
-54.45
-56.21
-55.70
-50.64
-39.38
-21.75
0.58
24.91
48.46
69.67
88.43
105.61
121.99
137.35
150.34
159.16
162.61
160.60
154.06
144.32
132.39
118.77
103.66
87.45
71.03
55.78
43.03
33.58
27.49
24.10
22.45
21.65
21.16
20.81
20.67
20.84
21.20
21.39
20.79
18.82
15.18
10.20
4.90
0.65
-1.36
-0.82
1.41
3.53
3.55
0.32
-5.81
-13.00
-18.66
-20.67
-18.54
-13.80
-9.47
-8.77
-13.55
-23.35
-35.45
-46.06
-51.92
-51.88
-47.50
-42.73
-42.82
-52.91
-76.70
-115.07
-165.05
-219.50
-268.22
-300.60
-309.46
-294.35
-262.75
-227.97
-204.22
-200.97
-219.18
-251.34
-285.10
-308.45
-314.15
-301.02
-272.45
-233.25
-186.99
-134.99
-77.18
-13.94
52.39
117.28
175.17
221.37
253.68
272.98
282.54
286.41
287.72
287.61
285.30
279.19
268.36
253.49
236.94
221.62
209.58
200.98
194.08
186.25
175.40
161.09
144.61
128.27
114.17
103.15
94.66
87.32
79.72
71.17
61.83
52.51
44.18
37.58
33.05
30.55
29.62
29.69
30.13
30.59
31.03
31.73
32.99
34.87
37.07
39.13
40.85
42.53
44.98
49.03
55.07
62.72
70.98
78.74
85.31
90.76
95.86
101.79
109.74
120.43
133.58
147.68
160.00
167.16
166.14
155.41
135.43
108.61
78.19
47.08
16.94
-12.05
-40.82
-70.68
-102.71
-137.31
-174.10
-211.97
-249.46
-285.08
-317.59
-345.79
-368.12
-382.29
-385.58
-375.83
-352.64
-318.02
-276.01
-231.53
-188.90
-151.11
-119.74
-95.45
-78.33
-67.71
-61.90
-58.10
-53.16
-44.62
-31.74
-15.73
0.91
15.52
26.38
33.17
36.83
38.95
41.00
43.62
46.28
47.46
45.31
38.55
27.26
13.09
-1.25
-12.91
-19.91
-21.57
-18.41
-11.58
-2.21
9.02
21.87
36.25
52.02
68.73
85.73
102.33
118.08
132.89
147.13
161.37
176.13
191.47
206.83
221.04
232.62
240.02
241.70
236.26
222.67
200.80
172.06
139.68
108.06
81.44
62.39
50.93
44.91
41.46
38.67
36.53
36.51
40.19
47.80
57.69
67.04
73.25
75.17
73.45
69.72
65.09
59.22
49.94
34.31
9.90
-24.09
-66.87
-116.95
-172.94
-233.25
-294.92
-352.82
-400.85
-434.84
-455.63
-469.79
-486.75
-513.54
-550.38
-589.99
-621.26
-635.25
-629.61
-609.02
-581.42
-553.20
-526.16
-498.12
-465.90
-428.53
-388.17
-348.69
-313.47
-283.53
-257.46
-232.45
-206.11
-177.65
-148.22
-120.11
-95.65
-76.07
-61.04
-48.95
-37.72
-25.76
-12.58
1.29
14.75
26.82
37.19
46.25
54.83
63.79
73.62
84.36
95.81
107.82
120.51
134.22
149.38
166.20
184.64
204.33
224.86
245.94
267.50
289.72
313.01
338.01
365.33
395.19
426.64
457.15
482.81
499.34
503.70
495.32
476.40
450.87
422.82
394.97
368.24
342.32
316.76
291.68
267.77
245.69
225.43
206.25
187.18
167.72
148.23
129.77
113.47
99.90
88.74
78.96
69.31
58.84
47.25
34.96
22.91
12.23
3.98
-1.09
-2.63
-0.71
4.13
10.99
18.71
26.12
32.28
36.70
39.31
40.34
40.18
39.08
37.15
34.36
30.70
26.28
21.70
17.65
14.59
12.73
12.12
12.71
14.35
16.66
19.19
21.70
24.04
26.19
28.32
30.80
34.06
38.14
42.41
45.54
46.52
44.22
37.62
26.27
10.81
-6.93
-24.38
-39.00
-49.02
-51.86
-47.25
-37.72
-27.66
-20.96
-19.02
-20.45
-22.02
-20.14
-7.94
18.12
56.54
101.46
146.28
186.54
220.77
249.70
275.15
305.84
347.36
398.97
453.92
503.85
542.67
567.49
577.65
573.90
566.64
563.72
566.64
570.79
570.22
562.00
546.91
527.77
453.41
301.88
88.73
-140.59
-343.28
-500.26
-611.96
-686.18
-731.19
-754.04
-752.22
-726.32
-683.30
-634.70
-591.41
-560.32
-542.75
-537.64
-542.40
-546.00
-538.13
-513.14
-471.01
-415.96
-353.91
-291.12
-233.49
-185.12
-143.12
-103.37
-67.12
-37.20
-16.42
-5.31
-1.80
-2.51
-4.24
-3.38
0.67
5.10
5.91
-0.01
-12.86
-29.88
-46.75
-59.11
-63.12
-57.24
-42.65
-22.42
-0.93
17.37
29.19
33.10
30.00
22.66
14.68
9.08
7.64
10.25
15.47
21.50
27.00
31.42
34.81
37.42
39.20
39.80
38.39
34.11
26.59
16.29
4.37
-7.48
-17.82
-25.93
-31.73
-35.34
-36.85
-36.27
-34.07
-31.53
-30.51
-32.60
-38.13
-45.91
-53.80
-59.95
-63.60
-65.15
-65.27
-63.93
-60.13
-52.54
-40.67
-25.59
-9.82
3.75
13.12
17.91
19.36
19.67
21.07
24.83
30.48
35.96
38.58
36.57
30.43
23.29
19.50
22.50
32.68
46.94
59.65
65.06
59.53
42.81
18.08
-8.75
-30.14
-38.37
-27.79
3.11
50.09
103.44
150.69
180.63
186.55
167.53
127.57
73.61
14.13
-41.28
-81.77
-96.82
-79.16
-28.18
47.98
133.98
211.82
266.68
291.03
286.05
259.77
223.43
187.38
158.40
139.19
129.37
127.28
131.10
139.00
148.34
154.71
152.45
136.46
104.82
60.25
9.62
-38.82
-78.82
-108.35
-129.76
-147.96
-168.15
-193.87
-226.79
-266.65
-310.78
-353.90
-388.69
-407.74
-406.29
-384.48
-347.64
-304.54
-264.30
-233.41
-213.96
-204.15
-200.29
-199.43
-199.58
-199.64
-198.89
-197.13
-194.71
-191.76
-187.25
-178.66
-163.16
-137.19
-98.18
-46.10
15.32
79.23
138.29
186.90
221.81
240.46
240.81
222.14
189.11
151.03
116.81
91.69
76.61
68.65
59.11
42.72
17.88
-12.69
-43.54
-68.78
-83.42
-84.88
-64.22
-24.62
22.66
64.05
91.72
107.87
118.56
128.76
142.03
161.01
182.83
206.51
231.78
258.27
284.11
305.36
317.57
317.36
303.23
274.45
233.72
186.05
137.56
93.45
56.26
26.02
1.26
-19.99
-40.04
-59.24
-76.61
-90.71
-100.87
-107.78
-112.87
-117.21
-121.00
-124.07
-125.33
-123.78
-119.01
-111.52
-102.62
-93.71
-85.66
-78.53
-71.90
-65.02
-57.48
-49.47
-41.76
-35.16
-29.97
-25.60
-20.84
-14.59
-6.43
2.92
11.88
18.55
21.46
20.06
14.87
7.30
-0.89
-8.13
-13.60
-17.44
-20.61
-24.36
-29.62
-36.61
-44.89
-53.80
-62.81
-71.61
-79.91
-87.13
-92.61
-96.09
-98.27
-100.93
-106.07
-114.42
-124.41
-132.06
-132.27
-120.81
-95.87
-58.31
-10.69
44.19
103.92
166.05
227.18
282.41
326.16
353.76
363.21
355.77
335.13
305.65
270.73
232.03
189.93
144.32
95.75
45.99
-1.97
-44.48
-78.25
-101.51
-114.86
-121.18
-124.47
-127.68
-130.78
-130.40
-121.14
-98.45
-61.46
-14.25
35.04
77.18
105.24
117.03
115.24
105.40
92.92
80.52
67.40
50.48
26.66
-5.27
-44.01
-86.70
-130.14
-171.57
-208.47
-237.79
-256.03
-260.40
-250.78
-231.09
-208.59
-191.14
-183.52
-185.19
-190.71
-192.81
-186.08
-169.52
-146.35
-121.76
-100.15
-83.47
-71.20
-61.55
-52.77
-43.96
-34.95
-25.85
-16.74
-7.82
0.42
7.03
10.92
11.27
7.80
0.66
-9.92
-23.81
-41.01
-61.24
-83.48
-105.81
-125.83
-141.54
-152.19
-158.51
-162.08
-164.14
-164.42
-161.01
-151.26
-133.19
-106.68
-73.44
-36.06
3.37
44.09
86.29
129.96
173.80
214.94
249.92
276.45
294.93
308.68
322.46
340.08
362.27
386.10
406.22
417.21
415.64
400.82
374.12
337.58
292.95
241.72
185.88
128.79
75.14
30.11
-2.27
-20.39
-25.46
-20.94
-11.23
-0.45
8.55
14.56
17.76
19.11
19.46
19.11
17.57
13.95
7.54
-1.55
-12.17
-22.41
-30.31
-34.78
-36.21
-36.55
-38.61
-44.94
-56.66
-72.97
-91.39
-108.92
-123.27
-133.71
-141.10
-147.17
-153.28
-159.67
-165.25
-168.40
-167.96
-164.18
-158.86
-154.55
-153.35
-155.85
-160.77
-165.52
-167.10
-162.92
-151.03
-130.01
-99.04
-58.53
-10.92
38.80
83.80
117.18
134.36
134.60
121.12
99.62
75.92
54.13
36.20
22.76
14.60
13.34
20.69
36.90
59.19
81.71
97.33
100.62
90.24
69.79
46.15
26.37
14.76
11.55
13.66
16.85
17.96
15.97
11.68
6.57
1.67
-2.89
-7.71
-13.41
-20.06
-26.90
-32.74
-36.44
-37.49
-36.33
-34.12
-32.24
-31.69
-32.69
-34.64
-36.53
-37.50
-37.20
-35.99
-34.58
-33.60
-33.24
-33.06
-32.28
-30.18
-26.51
-21.64
-16.43
-11.80
-8.32
-6.12
-4.87
-4.08
-3.34
-2.51
-1.64
-0.88
-0.31
0.05
0.29
0.45
0.53
0.46
0.14
-0.45
-1.21
-1.97
-2.52
-2.73
-2.66
-2.51
-2.54
-2.97
-3.81
-4.91
-6.06
-7.10
-8.04
-8.96
-9.94
-10.90
-11.55
-11.46
-10.31
-8.01
-4.84
-1.33
1.91
4.42
6.04
6.86
7.14
7.13
7.02
6.86
6.65
6.37
6.05
5.74
5.51
5.32
5.17
4.99
4.76
4.45
4.04
3.51
2.88
2.19
1.53
0.97
0.55
0.22
-0.18
-0.84
-1.93
-3.50
-5.45
-7.49
-9.27
-10.40
-10.61
-9.80
-8.06
-5.64
-2.85
-0.00
2.68
5.02
6.93
8.32
9.16
9.45
9.26
8.80
8.25
7.78
7.44
7.17
6.85
6.37
5.73
4.98
4.25
3.63
3.13
2.69
2.17
1.47
0.53
-0.56
-1.70
-2.80
-3.83
-4.84
-5.91
-7.09
-8.44
-10.01
-11.83
-13.90
-16.11
-18.21
-19.81
-20.50
-20.12
-18.81
-17.07
-15.49
-14.60
-14.52
-15.02
-15.64
-16.01
-16.04
-15.95
-16.25
-17.35
-19.44
-22.32
-25.43
-28.10
-29.69
-29.98
-29.13
-27.75
-26.60
-26.28
-26.85
-27.54
-26.79
-22.52
-12.75
3.64
26.34
53.43
81.64
107.10
126.31
136.80
137.60
129.09
112.70
90.55
65.16
39.29
15.61
-3.58
-16.92
-24.14
-26.06
-24.10
-19.67
-13.76
-6.83
0.86
8.92
16.66
23.21
27.90
30.42
30.87
29.60
26.97
23.25
18.76
13.99
9.61
6.37
4.76
4.87
6.28
8.30
10.19
11.42
11.80
11.43
10.58
9.55
8.57
7.76
7.16
6.88
7.11
8.12
10.19
13.39
17.54
22.13
26.42
29.58
30.82
29.47
25.16
17.89
8.30
-2.40
-12.64
-20.88
-26.12
-28.16
-27.56
-25.29
-22.35
-19.47
-17.12
-15.54
-14.88
-15.19
-16.30
-17.86
-19.33
-20.22
-20.23
-19.39
-17.98
-16.42
-15.11
-14.30
-14.08
-14.32
-14.75
-15.11
-15.20
-15.07
-15.00
-15.45
-16.85
-19.40
-22.95
-27.00
-30.84
-33.87
-35.77
-36.69
-37.14
-37.84
-39.43
-42.18
-45.79
-49.50
-52.31
-53.42
-52.55
-50.07
-46.87
-44.01
-42.34
-42.26
-43.78
-46.47
-49.51
-51.65
-51.21
-46.40
-35.78
-18.85
3.60
29.63
56.58
81.77
102.81
117.68
124.55
121.89
108.90
86.37
57.05
25.43
-3.52
-25.86
-39.83
-46.07
-46.83
-44.66
-41.40
-37.78
-33.78
-29.28
-24.50
-20.03
-16.45
-13.90
-11.96
-9.78
-6.52
-1.70
4.63
11.97
19.67
27.26
34.66
42.10
49.89
58.04
66.11
73.22
78.32
80.65
80.08
77.24
73.20
69.06
65.44
62.29
59.02
54.99
49.92
44.03
37.88
31.95
26.37
20.94
15.43
9.91
4.82
0.76
-1.95
-3.48
-4.51
-5.84
-8.04
-11.22
-15.13
-19.32
-23.44
-27.30
-30.80
-33.95
-36.68
-38.93
-40.65
-41.74
-42.08
-41.49
-39.79
-36.86
-32.82
-28.07
-23.21
-18.94
-15.80
-14.06
-13.68
-14.38
-15.74
-17.36
-18.92
-20.25
-21.27
-22.00
-22.44
-22.56
-22.27
-21.42
-19.84
-17.38
-13.98
-9.67
-4.55
1.26
7.69
14.69
22.15
29.89
37.60
44.94
51.54
57.09
61.37
64.15
65.28
64.68
62.46
58.97
54.83
50.72
47.25
44.79
43.43
43.03
43.32
43.96
44.59
44.87
44.51
43.31
41.28
38.54
35.28
31.61
27.59
23.19
18.43
13.44
8.46
3.77
-0.40
-3.90
-6.68
-8.76
-10.21
-11.12
-11.58
-11.69
-11.54
-11.18
-10.65
-10.01
-9.41
-9.05
-9.14
-9.79
-10.94
-12.39
-13.88
-15.23
-16.45
-17.75
-19.32
-21.28
-23.54
-25.88
-28.01
-29.69
-30.81
-31.34
-31.25
-30.47
-28.91
-26.60
-23.75
-20.81
-18.35
-16.84
-16.45
-16.97
-17.81
-18.25
-17.72
-15.97
-13.16
-9.75
-6.46
-4.07
-3.31
-4.64
-8.06
-12.92
-18.09
-22.26
-24.42
-24.28
-22.34
-19.68
-17.47
-16.44
-16.61
-17.35
-17.61
-16.34
-12.87
-7.10
0.47
8.92
17.21
24.50
30.33
34.71
38.03
40.91
44.21
48.92
56.13
66.72
81.16
99.23
120.08
142.42
164.90
186.40
206.08
223.31
237.48
247.87
253.65
254.01
248.37
236.62
219.28
197.49
172.88
147.17
121.74
97.22
73.31
48.86
22.29
-7.75
-41.61
-78.02
-114.03
-145.73
-169.48
-183.46
-188.44
-187.71
-185.82
-186.83
-192.60
-202.23
-212.53
-219.56
-220.34
-213.90
-201.41
-185.31
-168.03
-151.06
-134.75
-118.88
-103.45
-89.35
-78.03
-70.78
-67.81
-67.90
-68.90
-68.74
-66.33
-61.76
-55.95
-49.83
-43.93
-38.25
-32.66
-27.19
-22.11
-17.78
-14.30
-11.51
-8.94
-6.08
-2.47
2.23
8.19
15.34
23.32
31.47
38.99
45.21
49.97
53.68
57.32
62.12
69.19
79.17
91.72
105.22
116.83
123.00
120.51
107.64
84.97
55.46
23.44
-6.80
-32.38
-52.55
-68.35
-81.77
-94.57
-107.64
-121.04
-134.50
-147.99
-161.88
-176.59
-192.02
-207.10
-220.04
-229.01
-233.06
-232.53
-228.66
-222.60
-214.46
-203.11
-186.89
-164.87
-137.85
-108.45
-80.17
-56.03
-37.41
-23.85
-13.59
-4.61
4.45
14.10
24.16
34.23
44.05
53.52
62.47
70.47
76.85
80.73
81.52
79.11
74.07
67.49
60.65
54.59
49.80
46.13
42.94
39.48
35.25
30.20
24.71
19.34
14.53
10.40
6.82
3.43
-0.11
-4.05
-8.42
-13.04
-17.50
-21.17
-23.31
-23.28
-20.76
-15.92
-9.34
-1.84
5.89
13.41
20.65
27.64
34.37
40.59
45.85
49.68
51.82
52.37
51.89
51.11
50.72
51.04
51.93
52.93
53.56
53.54
52.91
51.89
50.64
49.06
46.95
44.11
40.63
36.96
33.62
30.92
28.69
26.33
23.16
18.84
13.57
8.03
3.06
-0.81
-3.53
-5.44
-6.98
-8.44
-9.83
-10.95
-11.58
-11.61
-10.98
-9.65
-7.49
-4.29
0.07
5.48
11.55
17.73
23.45
28.35
32.33
35.51
38.06
40.02
41.21
41.30
40.04
37.48
34.12
30.79
28.43
27.69
28.65
30.78
33.08
34.55
34.47
32.73
29.79
26.48
23.76
22.52
23.37
26.41
30.88
35.17
37.09
34.79
27.90
18.29
9.87
7.36
14.35
31.83
57.82
88.28
118.79
145.98
168.16
184.87
196.25
202.54
203.92
200.75
193.61
183.25
170.38
155.60
139.40
122.38
105.32
89.08
74.56
62.60
54.09
49.98
51.18
58.14
70.40
86.52
104.29
121.35
135.92
147.29
155.86
162.75
169.04
174.98
179.56
180.75
176.26
164.67
145.99
121.66
93.68
63.60
31.84
-2.14
-39.21
-79.97
-124.52
-172.62
-223.79
-277.01
-329.97
-378.63
-417.63
-441.67
-447.49
-435.33
-409.17
-375.35
-340.37
-308.90
-282.81
-261.62
-243.82
-228.19
-214.37
-202.65
-193.02
-184.65
-175.92
-165.21
-151.97
-137.27
-123.35
-112.79
-106.91
-105.05
-104.72
-102.66
-96.00
-83.07
-63.78
-39.65
-13.66
10.69
30.25
43.18
49.29
49.84
46.90
42.55
38.47
35.66
35.67
40.89
53.75
75.18
103.63
135.39
166.08
192.21
211.08
222.71
229.37
233.91
237.89
241.27
243.36
243.99
243.16
238.19
227.32
211.03
191.73
171.81
152.74
135.05
118.86
102.59
79.65
45.67
1.67
-46.67
-93.20
-134.11
-168.63
-197.72
-225.18
-260.55
-309.38
-369.47
-432.72
-491.09
-540.25
-580.06
-612.48
-604.01
-540.59
-436.58
-322.47
-218.85
-129.74
-51.86
10.55
63.12
106.73
135.36
146.42
144.07
136.75
129.93
125.53
123.03
122.57
123.42
121.65
115.88
108.32
102.75
100.74
101.03
101.19
100.48
98.70
94.42
87.83
80.88
75.73
72.67
70.13
66.11
60.13
52.49
43.39
33.90
25.69
20.11
17.14
15.72
14.87
14.80
16.39
20.47
27.42
36.72
46.91
56.11
62.99
67.42
70.49
73.46
77.08
81.37
85.89
90.31
94.42
97.71
98.79
95.48
85.73
69.02
47.26
24.64
6.19
-4.12
-4.97
2.11
13.65
25.88
36.29
44.36
51.49
60.21
73.11
91.67
115.75
143.47
171.92
198.27
220.71
238.92
253.93
267.43
280.94
295.01
308.88
320.54
327.34
326.80
317.59
300.11
276.42
249.54
222.24
196.08
170.90
145.29
117.41
85.80
49.66
8.71
-36.74
-85.38
-134.29
-179.11
-215.42
-241.18
-258.84
-275.35
-299.54
-337.77
-390.03
-449.04
-502.88
-539.80
-552.80
-541.41
-510.42
-466.64
-416.07
-362.65
-308.98
-257.49
-211.06
-172.60
-143.92
-124.74
-112.70
-104.29
-96.08
-85.90
-73.32
-59.37
-45.85
-34.38
-25.64
-19.09
-13.25
-6.45
2.35
13.08
24.65
35.46
44.17
50.16
53.68
55.55
56.68
57.71
58.85
59.84
60.28
59.79
58.23
55.74
52.59
49.03
45.20
41.14
36.82
32.28
27.54
22.52
16.93
10.40
2.61
-6.44
-16.42
-26.64
-36.15
-43.93
-48.96
-50.36
-47.66
-40.99
-31.13
-19.39
-7.24
4.14
14.02
22.16
28.52
33.02
35.53
35.98
34.51
31.54
27.70
23.60
19.67
16.15
13.13
10.63
8.75
7.57
7.08
7.18
7.71
8.61
10.05
12.56
16.91
23.80
33.53
45.76
59.44
72.92
84.41
92.36
95.88
94.96
90.41
83.58
75.87
68.32
61.30
54.66
47.85
40.36
31.95
22.71
13.09
3.80
-4.29
-10.33
-13.75
-14.41
-12.77
-9.77
-6.57
-4.12
-2.95
-3.04
-3.97
-5.18
-6.20
-6.85
-7.24
-7.74
-8.68
-10.17
-11.90
-13.19
-13.33
-11.87
-8.95
-5.24
-1.66
1.10
2.93
4.30
5.94
8.31
11.27
13.98
15.24
14.02
9.94
3.43
-4.40
-12.21
-18.47
-22.14
-22.86
-20.98
-17.32
-12.98
-9.22
-7.31
-8.13
-11.76
-17.79
-25.65
-34.89
-45.16
-56.03
-66.71
-75.80
-81.16
-79.48
-68.01
-46.16
-16.27
16.79
46.84
68.15
77.04
73.11
61.19
47.48
36.56
30.02
27.43
27.90
30.82
36.14
44.15
59.03
82.41
110.32
133.80
143.82
135.83
111.47
78.02
46.12
32.65
48.19
90.97
147.87
203.06
245.62
272.30
286.41
294.82
313.22
352.17
411.29
480.69
549.28
610.27
660.70
698.91
669.10
542.36
337.80
112.55
-82.92
-228.27
-325.93
-387.02
-422.97
-442.54
-442.77
-422.03
-385.98
-346.87
-315.98
-298.47
-294.01
-299.40
-310.14
-314.13
-302.19
-271.63
-227.34
-177.74
-130.77
-92.88
-68.46
-60.33
-61.08
-61.28
-55.71
-46.18
-38.85
-39.68
-51.29
-71.36
-93.21
-106.59
-104.64
-87.48
-61.75
-36.52
-18.14
-8.02
-3.54
-1.05
1.64
2.62
-2.49
-16.88
-38.86
-61.51
-75.97
-76.10
-61.33
-37.00
-11.29
8.97
20.97
25.99
27.71
29.60
33.02
37.86
43.47
49.75
57.59
68.34
82.68
99.39
114.93
124.02
121.78
105.95
78.87
47.01
18.69
0.17
-6.64
-4.18
2.79
10.28
16.44
21.92
28.11
35.51
42.32
46.55
47.67
47.21
47.65
50.39
55.23
60.31
63.26
60.75
51.48
36.89
20.60
7.13
-0.22
0.31
8.22
20.58
30.02
29.83
16.59
-9.58
-42.70
-78.05
-112.23
-143.94
-173.78
-206.49
-244.96
-288.04
-331.01
-368.30
-396.74
-415.53
-425.81
-408.32
-355.85
-276.12
-187.46
-106.06
-39.21
12.62
51.89
81.28
102.81
114.82
116.45
108.67
94.47
77.94
63.30
55.22
57.93
73.00
97.46
125.87
151.98
171.28
182.10
185.45
184.41
182.44
181.71
181.69
181.12
178.77
174.28
167.63
158.20
145.23
128.08
103.70
70.55
34.58
4.84
-12.16
-15.74
-10.06
-0.19
9.86
17.77
22.76
24.99
24.05
20.37
14.43
6.49
-2.42
-11.26
-19.67
-28.48
-39.96
-57.57
-85.65
-121.94
-162.23
-198.02
-219.26
-218.07
-191.87
-143.50
-79.05
-6.22
67.44
134.72
190.20
229.24
248.63
247.44
225.47
191.94
162.54
148.64
149.84
158.88
165.50
166.78
163.17
156.44
148.05
136.32
120.50
97.88
67.53
30.76
-9.08
-48.82
-85.89
-118.68
-147.75
-175.40
-204.93
-238.46
-277.03
-320.61
-368.57
-418.22
-463.84
-497.85
-513.09
-505.87
-477.17
-432.87
-381.50
-331.41
-287.70
-251.25
-220.58
-194.11
-171.67
-153.85
-140.83
-131.33
-122.76
-112.22
-97.87
-80.00
-60.82
-43.66
-31.24
-24.71
-23.29
-24.61
-25.63
-23.65
-17.23
-6.81
5.39
16.28
23.09
24.41
20.49
12.84
3.32
-6.61
-16.18
-25.03
-32.72
-38.46
-41.30
-40.75
-37.19
-31.92
-26.68
-22.96
-21.47
-21.97
-23.52
-24.83
-24.72
-22.31
-17.16
-9.34
0.76
12.58
25.68
39.73
54.67
70.50
87.35
105.45
125.20
146.97
170.64
195.22
218.57
237.90
250.50
254.80
250.92
240.50
225.92
209.37
192.17
174.84
157.49
140.37
123.95
108.76
94.86
81.78
68.83
55.75
43.23
32.92
26.78
26.14
30.99
39.80
50.22
60.01
67.87
73.66
78.02
81.68
84.78
86.92
87.44
86.02
83.01
79.27
75.82
73.26
71.49
69.83
67.41
63.72
58.90
53.72
49.13
45.81
43.73
42.16
40.00
36.36
30.96
24.30
17.38
11.23
6.45
2.98
0.27
-2.43
-5.64
-9.54
-14.09
-19.08
-24.20
-28.97
-32.48
-33.49
-30.80
-24.08
-14.40
-4.14
4.03
8.52
9.71
9.73
11.13
15.38
22.07
29.42
35.47
39.27
41.14
42.03
42.50
42.21
40.18
35.68
29.02
21.69
15.74
12.87
13.67
17.53
22.96
28.19
31.77
32.99
31.92
29.18
25.65
21.95
18.36
14.77
10.94
6.76
2.31
-2.18
-6.50
-10.63
-14.65
-18.59
-22.29
-25.31
-27.05
-26.99
-24.72
-20.30
-14.21
-7.20
0.06
7.07
13.50
19.21
24.30
29.39
35.25
42.49
51.17
60.59
69.41
76.00
79.02
78.23
75.16
72.36
72.40
77.03
86.65
99.95
113.84
123.85
125.13
115.37
94.60
65.63
34.04
7.10
-8.67
-10.05
1.85
22.88
50.92
84.20
121.01
159.49
197.94
234.55
267.19
293.89
313.86
331.84
351.13
370.84
386.32
392.47
386.22
367.31
337.76
301.58
268.76
245.69
232.24
223.21
213.11
199.12
181.44
161.70
108.65
13.68
-106.28
-220.57
-308.24
-365.38
-397.44
-411.31
-413.19
-407.79
-392.34
-366.72
-336.09
-309.10
-293.21
-292.26
-303.34
-321.91
-341.69
-351.89
-345.29
-321.34
-285.83
-247.41
-214.35
-192.75
-186.05
-194.00
-211.07
-231.99
-254.17
-277.59
-302.64
-328.62
-353.34
-373.88
-386.73
-387.12
-372.05
-341.67
-299.42
-250.75
-201.47
-156.11
-116.96
-83.44
-52.59
-21.43
11.20
44.18
74.89
100.61
119.70
131.78
137.53
137.99
134.05
126.56
116.49
105.25
94.63
86.31
81.35
79.77
80.55
82.03
82.42
80.40
75.49
68.13
59.74
52.31
47.87
47.89
52.69
61.24
71.56
81.46
89.36
94.70
97.86
99.65
100.84
101.86
102.75
103.34
103.27
102.11
99.42
95.07
89.41
83.22
77.35
72.11
66.90
60.47
51.61
40.07
26.93
14.15
3.72
-3.46
-7.86
-11.10
-14.94
-20.54
-27.97
-36.46
-44.95
-52.56
-58.74
-63.17
-65.49
-65.13
-61.55
-54.51
-44.55
-33.09
-22.22
-14.13
-10.30
-10.94
-14.82
-19.74
-23.38
-24.18
-21.83
-17.07
-11.20
-5.40
-0.35
3.75
6.90
9.03
9.87
9.10
6.56
2.37
-2.99
-8.91
-14.75
-20.08
-24.66
-28.45
-31.51
-33.93
-35.75
-36.99
-37.67
-37.84
-37.52
-36.59
-34.74
-31.50
-26.39
-19.21
-10.21
-0.16
9.83
18.66
25.58
30.31
33.07
34.34
34.57
34.16
33.32
32.29
31.28
30.53
30.15
30.13
30.24
30.20
29.77
28.79
27.26
25.17
22.59
19.48
15.93
12.06
8.09
4.21
0.46
-3.32
-7.39
-12.05
-17.48
-23.67
-30.33
-36.92
-42.64
-46.52
-47.64
-45.36
-39.61
-30.95
-20.48
-9.46
0.94
9.98
17.36
23.07
27.23
29.93
31.21
31.16
30.00
28.11
25.98
24.14
22.93
22.43
22.37
22.27
21.64
20.19
18.00
15.40
12.77
10.27
7.77
4.90
1.30
-3.20
-8.50
-14.34
-20.44
-26.47
-32.03
-36.44
-38.86
-38.46
-34.76
-27.91
-18.72
-8.38
1.91
11.31
19.43
26.16
31.45
35.13
36.93
36.69
34.59
31.28
27.70
24.83
23.26
23.02
23.54
23.98
23.55
21.85
18.95
15.30
11.50
8.02
4.98
2.20
-0.80
-4.48
-9.16
-14.88
-21.36
-28.07
-34.26
-39.10
-41.78
-41.71
-38.59
-32.63
-24.44
-14.93
-5.04
4.42
12.87
19.88
25.03
27.88
28.00
25.27
20.13
13.78
8.02
4.81
5.64
10.89
19.62
29.79
38.86
44.48
45.03
39.82
29.12
13.96
-4.18
-23.56
-42.65
-60.54
-77.13
-93.11
-109.42
-126.48
-143.57
-158.79
-169.58
-173.72
-169.92
-157.91
-137.89
-110.09
-74.96
-33.90
10.19
53.22
91.22
122.16
146.85
168.27
189.67
212.53
235.77
256.65
272.66
282.99
288.77
291.77
292.81
290.91
283.87
269.38
246.30
215.07
177.24
134.86
89.99
44.86
2.25
-34.52
-62.18
-78.61
-84.06
-81.53
-75.98
-72.66
-75.16
-84.17
-97.60
-111.87
-123.46
-130.19
-131.43
-127.58
-119.46
-108.01
-94.41
-80.23
-67.40
-57.61
-51.64
-49.13
-48.85
-49.47
-50.47
-52.45
-56.80
-64.77
-76.40
-89.91
-102.01
-108.98
-108.27
-99.71
-85.79
-70.68
-58.60
-52.09
-51.19
-53.79
-56.77
-57.45
-54.47
-48.03
-39.51
-30.80
-23.77
-19.77
-19.38
-22.35
-27.78
-34.56
-41.80
-49.10
-56.45
-63.79
-70.68
-76.24
-79.50
-79.95
-77.72
-73.45
-67.81
-60.95
-52.46
-41.74
-28.60
-13.65
1.80
16.19
28.38
38.00
45.33
51.04
55.87
60.61
66.11
73.32
83.05
95.54
110.08
124.93
137.70
146.14
149.02
146.68
140.97
134.49
129.56
127.19
126.71
126.00
122.35
113.11
96.10
69.80
33.99
-9.34
-55.36
-96.83
-126.31
-139.13
-135.70
-121.52
-104.59
-91.70
-85.42
-83.80
-82.55
-78.07
-69.54
-58.74
-48.22
-39.41
-31.85
-24.10
-15.22
-5.80
2.28
6.87
6.97
3.52
-0.88
-3.06
-0.77
6.10
15.41
23.60
27.38
25.34
18.75
10.97
5.85
5.75
10.49
17.45
23.03
24.47
21.11
14.63
8.13
4.72
6.30
13.13
24.09
37.18
50.11
60.62
66.77
67.56
63.70
58.04
55.20
60.10
75.81
101.86
134.19
167.00
195.60
218.63
238.16
257.99
281.01
307.34
334.16
357.06
371.88
376.00
368.57
350.03
321.64
285.25
243.32
198.85
154.91
113.92
76.99
43.63
12.27
-18.95
-51.02
-83.27
-113.12
-136.69
-150.23
-151.86
-142.66
-126.73
-110.13
-99.03
-97.99
-108.87
-131.01
-161.84
-198.05
-236.56
-275.06
-312.26
-348.02
-383.26
-419.28
-456.60
-493.75
-526.52
-548.71
-553.94
-538.17
-501.43
-447.99
-384.86
-319.40
-257.40
-202.25
-155.32
-116.77
-86.19
-62.72
-44.99
-31.23
-19.82
-9.87
-1.43
4.86
8.51
9.58
8.96
8.14
8.54
11.03
15.58
21.32
26.99
31.34
33.67
34.11
33.53
33.26
34.57
38.23
44.17
51.68
59.73
67.72
76.22
87.34
104.45
131.14
169.69
219.61
277.16
335.80
387.97
427.08
449.08
453.14
441.05
416.27
382.62
343.52
301.69
259.30
218.32
180.65
148.08
121.89
102.40
88.59
78.21
68.39
56.62
41.95
25.38
9.50
-2.79
-9.83
-12.36
-13.50
-17.71
-29.15
-49.95
-79.45
-114.42
-150.26
-182.52
-208.36
-227.18
-240.77
-252.93
-268.57
-292.45
-327.31
-372.02
-420.56
-462.86
-487.90
-488.20
-463.25
-420.13
-370.41
-324.95
-289.33
-262.43
-238.77
-212.80
-182.30
-148.99
-116.28
-86.11
-57.46
-27.07
7.94
47.96
90.57
131.98
169.08
200.31
225.11
242.70
251.70
250.98
241.38
226.82
213.87
209.67
219.05
242.48
275.52
310.34
338.19
351.97
347.99
326.54
291.44
248.63
204.51
164.28
131.01
105.29
85.93
70.87
58.08
46.21
34.83
24.45
16.14
10.95
9.25
10.45
13.42
17.23
21.76
27.77
36.08
46.65
58.14
68.37
75.43
78.74
79.18
78.29
77.14
75.26
70.66
60.51
42.28
14.54
-22.72
-67.94
-118.08
-168.78
-214.89
-251.61
-276.14
-289.19
-295.61
-303.49
-321.59
-355.84
-406.33
-466.45
-524.72
-568.78
-589.66
-584.51
-556.50
-512.26
-458.55
-399.90
-338.24
-274.17
-208.64
-143.85
-82.74
-27.72
20.38
62.45
100.42
136.03
170.06
202.18
231.27
255.62
273.11
281.47
278.86
264.85
241.18
211.79
181.72
155.48
135.63
122.44
114.65
110.86
110.46
113.75
121.01
131.45
142.77
151.59
154.60
149.88
137.74
120.85
103.65
91.13
87.47
94.52
111.14
133.36
155.50
171.71
177.58
170.96
152.13
122.91
85.97
43.83
-1.65
-49.34
-98.97
-151.15
-207.55
-270.23
-340.31
-416.15
-492.06
-558.78
-605.79
-625.05
-613.81
-575.69
-518.76
-452.39
-383.96
-317.44
-253.98
-193.60
-136.71
-84.32
-37.45
3.97
41.30
76.70
112.14
148.77
187.02
226.78
268.02
310.92
355.52
401.11
445.79
486.29
518.38
537.72
540.86
526.29
495.13
451.20
400.38
349.27
303.60
266.71
238.82
217.32
197.94
176.60
150.97
121.19
89.54
59.26
33.10
12.34
-3.37
-15.63
-26.41
-37.66
-51.14
-68.59
-92.14
-124.33
-167.73
-223.85
-291.49
-365.44
-436.38
-492.55
-523.16
-522.08
-490.22
-435.12
-367.78
-298.43
-233.21
-173.46
-117.47
-62.84
-8.27
46.57
101.81
157.69
213.39
265.47
307.45
331.66
332.83
311.04
272.52
226.98
183.23
145.74
114.03
85.01
56.58
29.98
9.40
-0.48
2.71
17.53
39.61
63.72
85.92
104.48
119.52
131.65
141.03
146.66
146.54
138.35
120.04
90.18
48.06
-6.44
-72.75
-149.06
-231.46
-313.42
-386.11
-440.08
-467.84
-466.28
-438.01
-390.62
-334.17
-278.34
-230.06
-192.76
-167.06
-152.07
-146.25
-147.58
-153.24
-159.44
-162.05
-157.61
-144.67
-124.22
-99.11
-72.79
-47.72
-24.68
-2.85
19.10
41.73
63.96
83.10
95.83
99.77
94.85
83.72
70.90
61.19
57.93
62.05
72.17
85.69
99.87
112.59
122.32
127.80
127.95
122.14
110.82
95.86
80.27
67.17
58.75
55.25
55.01
55.10
52.48
45.14
32.74
16.69
-0.46
-15.85
-27.25
-33.51
-34.51
-30.85
-23.26
-12.41
1.06
16.35
32.33
47.67
61.13
71.84
79.52
84.36
86.87
87.65
87.19
85.85
83.91
81.57
79.07
76.63
74.53
72.97
71.96
71.29
70.45
68.84
65.83
61.15
54.93
47.73
40.40
33.67
27.94
23.01
18.14
12.32
4.67
-5.10
-16.45
-28.02
-37.81
-43.72
-44.03
-37.84
-25.39
-7.97
12.30
32.99
51.97
67.91
80.37
89.72
96.70
101.97
105.85
108.26
108.87
107.38
103.64
97.73
90.00
80.94
71.17
61.30
51.93
43.54
36.50
30.95
26.84
23.87
21.53
19.17
16.27
12.65
8.69
5.19
3.01
2.57
3.45
4.45
3.95
0.63
-6.01
-15.43
-26.27
-36.76
-45.15
-49.98
-50.12
-44.88
-34.12
-18.39
0.97
22.07
42.87
61.68
77.51
89.98
99.09
104.89
107.28
106.16
101.72
94.58
85.83
76.73
68.39
61.43
55.94
51.62
48.06
44.98
42.31
40.12
38.47
37.22
35.97
34.23
31.62
27.97
23.50
18.57
13.59
8.80
4.20
-0.34
-5.04
-10.11
-15.78
-22.27
-29.67
-37.69
-45.48
-51.59
-54.29
-52.13
-44.49
-31.80
-15.43
2.84
21.33
38.84
54.70
68.51
79.94
88.58
93.92
95.50
92.93
85.94
74.41
58.49
38.79
16.51
-6.49
-28.03
-45.92
-58.54
-65.19
-66.16
-62.68
-56.63
-50.07
-44.89
-42.31
-42.68
-45.39
-49.28
-53.22
-56.68
-60.00
-64.09
-69.71
-76.81
-84.21
-89.88
-91.76
-88.36
-79.31
-65.20
-47.33
-27.27
-6.65
12.97
30.25
44.14
54.07
59.89
61.83
60.43
56.46
50.92
44.93
39.41
34.71
30.45
25.65
19.29
10.89
0.84
-9.82
-19.86
-28.43
-35.21
-40.28
-43.74
-45.46
-45.19
-42.88
-39.13
-35.15
-32.53
-32.65
-36.19
-42.93
-52.02
-62.28
-72.49
-81.32
-87.22
-88.45
-83.51
-71.86
-54.55
-34.26
-14.60
1.20
11.59
17.24
20.62
24.83
32.05
42.65
55.12
66.81
75.18
78.83
77.82
73.37
67.03
59.90
52.29
43.97
34.69
24.76
15.14
7.04
1.35
-1.93
-3.70
-5.44
-8.53
-13.71
-20.81
-29.02
-37.44
-45.57
-53.62
-62.17
-71.65
-81.77
-91.30
-98.39
-101.22
-98.64
-90.53
-77.81
-62.13
-45.47
-29.76
-16.57
-6.82
-0.65
2.65
4.36
5.77
7.71
10.19
12.47
13.59
12.93
10.61
7.43
4.56
2.89
2.65
3.25
3.33
1.15
-5.07
-16.64
-33.90
-55.73
-79.23
-99.95
-112.61
-112.65
-97.68
-68.63
-29.55
13.79
55.88
93.21
124.73
151.09
173.21
191.14
203.94
210.57
210.94
206.54
199.94
193.64
188.81
184.76
179.38
170.29
155.98
136.54
113.60
89.68
67.23
47.84
31.92
18.87
7.66
-2.48
-11.72
-19.62
-25.58
-29.37
-31.41
-32.77
-34.73
-38.33
-44.05
-51.77
-60.88
-70.58
-79.93
-87.98
-93.84
-96.77
-96.34
-92.57
-85.98
-77.43
-67.94
-58.44
-49.73
-42.39
-36.88
-33.49
-32.27
-32.97
-34.97
-37.43
-39.46
-40.37
-39.91
-38.26
-35.96
-33.71
-32.04
-31.18
-30.95
-30.95
-30.76
-30.25
-29.69
-29.74
-31.18
-34.64
-40.32
-47.93
-56.83
-66.18
-75.20
-83.18
-89.55
-93.81
-95.59
-94.71
-91.17
-85.27
-77.52
-68.76
-60.00
-52.31
-46.52
-42.83
-40.76
-39.27
-37.20
-33.69
-28.48
-21.87
-14.43
-6.72
0.95
8.42
15.66
22.72
29.69
36.75
43.99
51.39
58.67
65.45
71.39
76.44
81.01
85.87
91.94
100.05
110.59
123.32
137.26
150.83
162.21
169.76
172.37
169.59
161.45
148.23
130.27
108.04
82.46
54.93
27.37
1.68
-20.71
-39.22
-54.13
-66.19
-76.11
-84.24
-90.56
-95.00
-97.70
-99.29
-100.68
-102.82
-106.37
-111.57
-118.22
-125.73
-133.12
-139.07
-142.07
-140.75
-134.36
-123.09
-108.09
-91.11
-73.93
-57.82
-43.38
-30.73
-19.84
-10.81
-3.85
0.88
3.57
4.71
5.03
5.21
5.60
6.15
6.43
5.91
4.19
1.30
-2.33
-6.02
-9.20
-11.73
-14.05
-17.00
-21.37
-27.49
-35.01
-43.02
-50.45
-56.38
-60.37
-62.37
-62.75
-62.07
-60.89
-59.57
-58.00
-55.33
-49.99
-40.05
-24.00
-1.71
25.11
52.94
77.56
95.44
104.97
106.83
103.45
97.69
91.65
86.12
80.85
75.36
69.67
64.47
60.67
58.79
58.66
59.54
60.70
61.72
62.69
63.88
65.38
66.86
67.68
67.13
64.60
59.76
52.56
43.34
32.97
22.88
14.84
10.38
10.27
14.12
20.64
28.19
35.52
42.06
47.73
52.55
56.17
57.87
56.95
53.24
47.37
40.57
34.11
28.71
24.25
20.01
15.09
9.02
2.02
-5.05
-11.06
-15.05
-16.58
-15.85
-13.66
-11.35
-10.76
-14.06
-23.30
-39.87
-63.71
-92.97
-124.07
-152.55
-174.28
-186.57
-188.79
-182.13
-168.93
-151.76
-132.82
-113.66
-95.31
-78.44
-63.49
-50.61
-39.66
-30.24
-21.89
-14.39
-7.93
-2.97
0.01
0.88
0.15
-1.26
-2.30
-2.29
-1.22
0.36
1.59
1.82
0.80
-1.27
-3.92
-6.74
-9.53
-12.30
-15.17
-18.21
-21.54
-25.29
-29.65
-34.76
-40.36
-45.67
-49.33
-49.81
-46.00
-37.72
-25.89
-12.20
1.48
13.80
24.19
32.71
39.69
45.34
49.64
52.45
53.80
53.97
53.43
52.64
51.85
51.00
49.88
48.28
46.20
43.77
41.22
38.63
35.93
32.85
29.15
24.72
19.71
14.47
9.42
4.85
0.84
-2.84
-6.60
-10.92
-16.22
-22.65
-29.96
-37.42
-43.90
-48.05
-48.70
-45.17
-37.61
-26.93
-14.58
-2.12
9.21
18.74
26.34
32.18
36.45
39.26
40.62
40.64
39.70
38.36
37.25
36.73
36.70
36.71
36.18
34.80
32.63
30.13
27.79
25.88
24.24
22.44
20.00
16.66
12.58
8.12
3.71
-0.36
-4.06
-7.55
-11.01
-14.60
-18.49
-22.84
-27.89
-33.74
-40.15
-46.36
-51.08
-52.92
-50.82
-44.53
-34.78
-22.99
-10.78
0.56
10.35
18.38
24.71
29.34
32.20
33.31
32.85
31.39
29.65
28.35
27.86
28.16
28.80
29.21
28.93
27.80
25.97
23.78
21.54
19.41
17.35
15.16
12.61
9.52
5.85
1.76
-2.51
-6.64
-10.41
-13.76
-16.78
-19.75
-23.03
-26.92
-31.62
-36.99
-42.54
-47.34
-50.23
-50.10
-46.31
-38.96
-28.93
-17.57
-6.24
4.06
12.87
20.11
25.83
30.05
32.73
33.90
33.79
32.83
31.53
30.32
29.48
29.06
28.95
28.93
28.71
28.03
26.74
24.81
22.39
19.75
17.15
14.72
12.43
10.06
7.34
4.07
0.23
-3.98
-8.23
-12.14
-15.53
-18.46
-21.20
-24.15
-27.66
-31.93
-36.98
-42.60
-48.29
-53.23
-56.33
-56.48
-52.91
-45.51
-34.98
-22.67
-10.16
1.24
10.79
18.40
24.36
29.06
32.74
35.42
36.98
37.36
36.71
35.44
34.10
33.18
32.91
33.11
33.34
33.13
32.22
30.66
28.76
26.85
25.08
23.35
21.43
19.09
16.27
13.04
9.54
5.84
1.99
-2.00
-6.08
-10.20
-14.31
-18.45
-22.73
-27.33
-32.42
-38.07
-44.11
-50.03
-54.95
-57.78
-57.48
-53.45
-45.82
-35.47
-23.78
-12.20
-1.79
6.95
14.06
19.80
24.43
27.99
30.38
31.53
31.53
30.67
29.46
28.38
27.73
27.61
27.83
28.04
27.87
27.06
25.50
23.27
20.54
17.57
14.58
11.70
8.96
6.28
3.49
0.42
-2.98
-6.67
-10.51
-14.30
-17.93
-21.36
-24.70
-28.19
-32.19
-37.17
-43.55
-51.54
-60.83
-70.42
-78.65
-83.65
-83.95
-79.02
-69.50
-56.97
-43.36
-30.25
-18.56
-8.53
-0.01
7.08
12.62
16.36
18.15
18.23
17.20
15.85
14.83
14.49
14.73
15.24
15.74
16.17
16.69
17.54
18.81
20.24
21.30
21.38
20.01
17.15
13.19
8.81
4.74
1.48
-0.86
-2.50
-3.92
-5.65
-8.18
-11.85
-16.76
-22.62
-28.69
-33.75
-36.41
-35.50
-30.55
-22.02
-11.16
0.37
11.17
20.33
27.58
33.02
36.81
39.05
39.71
38.90
36.97
34.47
32.09
30.34
29.47
29.37
29.66
29.85
29.55
28.59
27.02
25.05
22.88
20.55
17.85
14.44
10.00
4.49
-1.83
-8.43
-14.74
-20.36
-25.21
-29.49
-33.56
-37.81
-42.54
-47.89
-53.73
-59.50
-64.23
-66.60
-65.32
-59.54
-49.30
-35.60
-20.17
-4.94
8.51
19.30
27.31
32.86
36.44
38.43
39.02
38.39
36.82
34.78
32.80
31.34
30.54
30.18
29.76
28.69
26.59
23.46
19.65
15.72
12.21
9.38
7.10
4.94
2.32
-1.20
-5.72
-10.90
-16.07
-20.53
-23.77
-25.82
-27.09
-28.26
-29.97
-32.67
-36.53
-41.52
-47.40
-53.57
-58.98
-62.20
-61.73
-56.54
-46.51
-32.71
-17.00
-1.48
12.21
23.29
31.79
38.16
42.88
46.17
48.04
48.53
47.88
46.59
45.25
44.30
43.85
43.67
43.31
42.38
40.71
38.41
35.71
32.86
29.89
26.73
23.22
19.30
15.08
10.71
6.35
2.00
-2.41
-6.94
-11.52
-15.95
-19.95
-23.38
-26.26
-28.88
-31.62
-34.87
-38.94
-43.94
-49.63
-55.33
-59.85
-61.72
-59.66
-53.02
-42.21
-28.59
-14.08
-0.56
10.71
19.25
25.22
29.07
31.28
32.12
31.74
30.34
28.24
26.00
24.23
23.41
23.67
24.68
25.81
26.38
25.97
24.63
22.75
20.87
19.32
18.06
16.71
14.80
12.00
8.30
4.01
-0.38
-4.40
-7.77
-10.52
-12.93
-15.40
-18.33
-22.01
-26.57
-31.93
-37.78
-43.43
-47.77
-49.45
-47.25
-40.53
-29.63
-15.85
-1.03
13.04
25.22
35.12
42.93
48.98
53.36
55.90
56.42
55.02
52.26
48.96
45.93
43.59
41.82
40.09
37.72
34.25
29.57
23.99
18.04
12.26
7.08
2.69
-0.91
-3.87
-6.44
-8.99
-11.86
-15.33
-19.54
-24.42
-29.74
-35.15
-40.28
-44.87
-48.86
-52.44
-56.04
-60.17
-65.15
-70.87
-76.62
-81.16
-83.07
-81.22
-75.09
-65.00
-51.91
-37.16
-22.11
-7.88
4.71
15.16
23.21
28.78
32.03
33.27
33.03
31.93
30.56
29.42
28.80
28.69
28.92
29.13
28.97
28.24
26.94
25.25
23.34
21.25
18.80
15.70
11.76
7.08
2.08
-2.61
-6.48
-9.37
-11.55
-13.66
-16.40
-20.28
-25.37
-31.29
-37.17
-41.89
-44.16
-42.94
-37.64
-28.44
-16.26
-2.55
11.08
23.36
33.48
41.19
46.59
49.86
51.20
50.84
49.12
46.60
43.93
41.73
40.30
39.60
39.19
38.59
37.40
35.53
33.20
30.71
28.31
25.94
23.34
20.09
15.96
10.99
5.63
0.47
-4.03
-7.73
-10.98
-14.38
-18.57
-23.91
-30.38
-37.51
-44.41
-49.94
-52.79
-51.84
-46.50
-36.97
-24.31
-10.27
3.26
14.78
23.52
29.50
33.20
35.20
35.91
35.53
34.18
32.03
29.40
26.78
24.61
23.20
22.50
22.21
21.85
20.96
19.32
17.02
14.30
11.45
8.60
5.66
2.45
-1.20
-5.27
-9.59
-13.89
-17.92
-21.57
-24.85
-27.82
-30.63
-33.46
-36.52
-40.05
-44.31
-49.45
-55.36
-61.54
-66.99
-70.32
-70.12
-65.44
-56.21
-43.37
-28.59
-13.69
-0.12
11.40
20.79
28.33
34.25
38.64
41.44
42.68
42.61
41.66
40.37
39.16
38.27
37.74
37.51
37.42
37.35
37.14
36.66
35.75
34.23
32.00
29.04
25.49
21.57
17.61
13.84
10.41
7.22
4.08
0.70
-3.12
-7.43
-12.09
-16.82
-21.25
-25.12
-28.38
-31.24
-34.15
-37.71
-42.39
-48.37
-55.17
-61.75
-66.58
-68.07
-65.09
-57.36
-45.59
-31.29
-16.28
-2.14
10.10
20.07
27.88
33.79
38.02
40.71
41.96
42.01
41.29
40.34
39.61
39.33
39.42
39.57
39.42
38.73
37.47
35.81
33.97
32.09
30.17
28.01
25.36
22.09
18.22
14.01
9.79
5.83
2.18
-1.28
-4.84
-8.77
-13.17
-17.95
-22.84
-27.56
-31.85
-35.63
-39.01
-42.22
-45.65
-49.67
-54.58
-60.42
-66.78
-72.69
-76.73
-77.46
-73.81
-65.62
-53.71
-39.71
-25.46
-12.46
-1.53
7.21
14.05
19.35
23.26
25.83
27.07
27.19
26.57
25.71
25.02
24.71
24.72
24.85
24.91
24.80
24.56
24.23
23.80
23.11
21.95
20.17
17.78
14.99
12.09
9.33
6.73
4.12
1.21
-2.25
-6.24
-10.48
-14.57
-18.16
-21.12
-23.65
-26.17
-29.16
-33.01
-37.86
-43.46
-49.21
-54.11
-56.98
-56.66
-52.44
-44.31
-33.08
-20.17
-7.20
4.49
14.13
21.55
26.96
30.68
32.93
33.85
33.56
32.36
30.66
29.00
27.81
27.29
27.31
27.48
27.31
26.41
24.68
22.30
19.68
17.19
14.98
12.90
10.64
7.91
4.68
1.18
-2.14
-4.90
-6.93
-8.38
-9.61
-11.05
-13.08
-15.95
-19.85
-24.80
-30.60
-36.68
-42.08
-45.56
-45.98
-42.67
-35.68
-25.81
-14.28
-2.31
9.18
19.73
29.16
37.39
44.18
49.21
52.21
53.15
52.28
50.05
46.92
43.14
38.79
33.83
28.34
22.64
17.24
12.71
9.34
7.04
5.31
3.38
0.60
-3.38
-8.43
-14.06
-19.65
-24.70
-29.05
-32.85
-36.49
-40.37
-44.83
-49.94
-55.53
-61.01
-65.40
-67.48
-66.08
-60.50
-50.92
-38.40
-24.61
-11.28
0.34
9.69
16.83
22.11
25.84
28.21
29.31
29.39
28.85
28.16
27.65
27.33
26.95
26.21
24.96
23.36
21.70
20.24
18.96
17.51
15.43
12.38
8.42
4.02
-0.12
-3.30
-5.12
-5.58
-5.04
-4.13
-3.59
-4.04
-5.77
-8.50
-11.35
-12.99
-12.08
-7.78
-0.23
9.38
19.11
26.93
31.40
32.13
29.71
25.32
20.11
14.85
9.80
4.96
0.39
-3.60
-6.46
-7.65
-6.89
-4.42
-0.83
3.04
6.50
9.15
10.95
12.05
12.62
12.67
12.06
10.61
8.19
4.88
0.83
-3.83
-9.15
-15.30
-22.36
-30.02
-37.37
-43.02
-45.52
-43.83
-37.84
-28.34
-16.83
-4.95
5.92
14.96
21.80
26.37
28.73
28.97
27.30
24.13
20.08
15.91
12.27
9.54
7.75
6.58
5.54
4.17
2.27
-0.10
-2.65
-5.05
-7.12
-8.95
-10.87
-13.31
-16.60
-20.85
-25.86
-31.16
-36.04
-39.64
-41.13
-39.94
-35.91
-29.39
-21.19
-12.35
-3.86
3.56
9.53
13.89
16.62
17.77
17.46
15.99
13.80
11.42
9.32
7.79
6.81
6.21
5.65
4.87
3.72
2.26
0.69
-0.72
-1.84
-2.73
-3.72
-5.30
-7.97
-12.01
-17.27
-23.13
-28.52
-32.17
-32.93
-30.18
-24.13
-15.72
-6.36
2.60
10.27
16.40
21.19
24.86
27.42
28.59
28.08
25.93
22.63
19.03
15.93
13.77
12.42
11.38
10.10
8.28
5.99
3.53
1.20
-0.92
-2.94
-5.17
-7.87
-11.19
-15.17
-19.72
-24.71
-29.81
-34.46
-37.86
-39.06
-37.33
-32.45
-24.89
-15.65
-6.00
2.97
10.62
16.74
21.44
24.82
26.88
27.54
26.80
24.90
22.38
19.87
17.96
16.92
16.61
16.56
16.14
14.90
12.72
9.86
6.83
4.11
1.92
0.11
-1.72
-4.04
-7.22
-11.36
-16.38
-22.00
-27.68
-32.65
-35.87
-36.28
-33.21
-26.63
-17.33
-6.68
3.89
13.34
21.22
27.53
32.42
35.91
37.87
38.19
37.06
35.00
32.72
30.80
29.42
28.39
27.28
25.78
23.84
21.71
19.74
18.11
16.72
15.16
12.95
9.78
5.63
0.87
-3.99
-8.43
-12.18
-15.24
-17.89
-20.52
-23.56
-27.34
-32.11
-37.89
-44.42
-51.04
-56.63
-59.86
-59.50
-54.95
-46.45
-35.13
-22.65
-10.58
-0.02
8.73
15.87
21.78
26.68
30.48
32.99
34.13
34.13
33.48
32.74
32.26
32.11
32.13
32.07
31.82
31.38
30.83
30.22
29.53
28.64
27.42
25.76
23.59
20.86
17.58
13.94
10.26
6.94
4.26
2.23
0.50
-1.51
-4.32
-8.15
-12.79
-17.71
-22.34
-26.32
-29.65
-32.67
-35.88
-39.80
-44.69
-50.51
-56.76
-62.54
-66.67
-68.01
-65.76
-59.73
-50.52
-39.23
-27.27
-15.88
-5.92
2.21
8.53
13.31
16.90
19.54
21.42
22.62
23.19
23.26
23.02
22.69
22.49
22.48
22.57
22.64
22.55
22.27
21.84
21.27
20.50
19.35
17.63
15.20
12.13
8.65
5.04
1.57
-1.66
-4.68
-7.60
-10.50
-13.38
-16.09
-18.45
-20.33
-21.77
-23.00
-24.45
-26.59
-29.75
-33.85
-38.32
-42.10
-43.88
-42.56
-37.66
-29.58
-19.43
-8.75
1.12
9.33
15.73
20.59
24.30
27.07
28.86
29.54
29.10
27.80
26.18
24.83
24.18
24.32
25.03
25.88
26.44
26.44
25.82
24.70
23.28
21.73
20.16
18.59
16.94
15.18
13.23
11.06
8.64
5.92
2.86
-0.54
-4.19
-7.86
-11.24
-14.11
-16.39
-18.30
-20.32
-23.01
-26.80
-31.71
-37.12
-41.93
-44.75
-44.43
-40.42
-33.03
-23.28
-12.59
-2.28
6.74
14.12
19.92
24.33
27.55
29.67
30.75
30.96
30.53
29.82
29.14
28.74
28.68
28.88
29.15
29.26
29.07
28.55
27.73
26.70
25.48
24.01
22.23
20.08
17.66
15.14
12.74
10.59
8.63
6.65
4.33
1.46
-1.93
-5.57
-9.08
-12.15
-14.73
-17.08
-19.69
-23.02
-27.37
-32.64
-38.39
-43.77
-47.72
-49.16
-47.32
-42.03
-33.88
-24.09
-14.10
-5.17
2.07
7.63
11.89
15.27
17.94
19.82
20.73
20.67
19.83
18.59
17.32
16.19
15.25
14.41
13.63
12.96
12.55
12.57
13.05
13.89
14.79
15.38
15.29
14.30
12.40
9.74
6.68
3.61
0.86
-1.41
-3.31
-5.20
-7.50
-10.57
-14.48
-18.98
-23.56
-27.69
-31.02
-33.60
-35.77
-38.07
-40.97
-44.62
-48.80
-52.84
-55.77
-56.55
-54.42
-49.17
-41.22
-31.59
-21.57
-12.35
-4.71
1.10
5.24
8.12
10.08
11.40
12.16
12.47
12.40
12.10
11.81
11.74
12.09
12.90
14.09
15.42
16.61
17.45
17.84
17.81
17.46
16.88
16.08
15.06
13.80
12.31
10.65
8.78
6.62
4.05
1.04
-2.31
-5.76
-9.03
-11.94
-14.51
-17.02
-19.88
-23.56
-28.33
-34.13
-40.39
-46.02
-49.72
-50.33
-47.29
-40.95
-32.39
-23.12
-14.46
-7.20
-1.50
2.88
6.30
9.02
11.14
12.73
14.01
15.27
16.78
18.66
20.76
22.76
24.30
25.17
25.37
25.07
24.54
23.98
23.47
22.91
22.10
20.80
18.82
16.12
12.83
9.25
5.70
2.38
-0.71
-3.82
-7.24
-11.15
-15.41
-19.68
-23.53
-26.73
-29.42
-32.09
-35.39
-39.85
-45.61
-52.25
-58.80
-63.96
-66.39
-65.16
-59.96
-51.29
-40.19
-28.00
-15.93
-4.86
4.73
12.68
19.03
23.86
27.27
29.40
30.42
30.59
30.22
29.65
29.19
28.98
29.04
29.19
29.18
28.83
28.03
26.79
25.17
23.17
20.76
17.91
14.71
11.38
8.24
5.52
3.27
1.24
-0.99
-3.86
-7.59
-12.07
-16.88
-21.53
-25.64
-29.21
-32.55
-36.18
-40.64
-46.26
-53.00
-60.35
-67.28
-72.35
-74.06
-71.32
-63.88
-52.50
-38.74
-24.49
-11.29
0.03
9.39
17.21
23.93
29.82
34.85
38.86
41.78
43.74
45.05
46.09
47.21
48.55
50.01
51.33
52.16
52.20
51.33
49.58
47.21
44.51
41.70
38.88
35.96
32.73
29.02
24.74
19.97
14.89
9.68
4.44
-0.76
-5.83
-10.64
-15.04
-19.06
-22.96
-27.28
-32.51
-38.85
-45.77
-52.00
-55.80
-55.58
-50.56
-41.06
-28.45
-14.64
-1.40
10.12
19.56
27.13
33.25
38.15
41.84
44.21
45.20
44.98
43.93
42.47
40.93
39.45
37.95
36.27
34.30
32.12
29.98
28.25
27.24
26.99
27.18
27.18
26.24
23.82
19.77
14.42
8.50
2.78
-2.12
-6.03
-9.21
-12.23
-15.73
-20.22
-25.95
-32.81
-40.31
-47.49
-53.05
-55.52
-53.69
-47.08
-36.16
-22.39
-7.74
5.88
17.28
26.07
32.62
37.46
41.01
43.33
44.26
43.71
41.90
39.41
36.99
35.30
34.61
34.72
35.06
34.95
33.96
32.01
29.44
26.75
24.34
22.30
20.36
18.03
14.88
10.80
6.02
1.05
-3.56
-7.55
-10.95
-14.14
-17.59
-21.71
-26.75
-32.75
-39.56
-46.77
-53.63
-59.01
-61.61
-60.29
-54.53
-44.72
-32.11
-18.41
-5.24
6.32
15.88
23.53
29.52
34.02
37.08
38.72
39.11
38.62
37.76
36.98
36.54
36.43
36.45
36.32
35.84
34.99
33.91
32.74
31.53
30.11
28.20
25.56
22.16
18.28
14.42
11.08
8.49
6.52
4.70
2.47
-0.60
-4.65
-9.44
-14.47
-19.20
-23.19
-26.29
-28.73
-31.03
-33.91
-37.99
-43.51
-50.12
-56.78
-61.94
-63.99
-61.80
-55.13
-44.78
-32.31
-19.51
-7.86
1.84
9.50
15.49
20.25
24.06
26.94
28.79
29.64
29.65
29.16
28.50
27.92
27.42
26.90
26.26
25.46
24.59
23.69
22.75
21.56
19.84
17.38
14.18
10.44
6.43
2.35
-1.79
-6.13
-10.82
-15.89
-21.22
-26.63
-32.03
-37.42
-42.89
-48.44
-54.03
-59.54
-65.11
-71.12
-78.07
-86.19
-95.06
-103.55
-110.15
-113.59
-113.22
-109.15
-101.84
-91.60
-78.33
-61.76
-42.13
-20.55
0.91
19.98
34.95
45.37
52.08
56.68
60.81
65.66
71.85
79.61
89.00
100.08
112.91
127.39
142.92
158.36
172.09
182.38
187.89
188.08
183.16
173.86
160.97
145.18
127.41
109.06
92.04
78.11
68.01
60.80
54.07
45.14
32.47
16.46
-0.85
-16.98
-30.32
-40.50
-48.05
-53.61
-57.38
-59.37
-60.10
-61.06
-64.46
-72.33
-85.37
-102.47
-120.98
-137.84
-150.73
-158.75
-162.12
-161.33
-156.16
-145.24
-126.66
-99.20
-63.71
-23.51
16.21
50.16
74.68
89.03
95.26
97.06
98.06
100.59
105.14
110.74
115.66
118.01
116.14
108.74
94.82
73.71
45.49
11.25
-26.69
-65.04
-100.07
-128.41
-147.63
-156.56
-155.19
-144.21
-124.77
-98.45
-67.63
-35.51
-5.82
18.11
34.31
42.56
44.41
42.23
38.15
33.46
28.76
24.85
23.24
26.00
34.09
47.03
62.32
75.65
81.94
76.73
57.64
25.09
-17.84
-67.35
-118.07
-163.58
-197.54
-215.47
-215.98
-201.13
-175.79
-146.49
-121.70
-107.58
-106.27
-116.04
-133.20
-153.97
-175.25
-194.81
-211.06
-225.32
-238.13
-248.63
-255.15
-256.80
-254.23
-248.72
-240.92
-215.08
-165.57
-99.49
-32.93
20.13
54.11
70.13
72.83
67.80
59.84
49.56
37.54
24.30
11.44
1.17
-5.06
-6.56
-2.97
5.80
17.54
30.87
46.24
61.99
78.19
94.97
112.55
131.41
151.99
173.19
193.82
212.93
229.93
244.74
257.07
266.80
274.30
280.44
285.64
290.38
294.59
297.15
295.67
286.19
264.61
228.62
179.26
120.97
60.82
6.22
-37.33
-67.45
-85.02
-92.73
-93.31
-88.49
-79.06
-65.65
-49.69
-33.61
-20.05
-11.07
-7.10
-6.86
-7.89
-7.83
-5.47
-1.32
2.87
5.20
4.62
1.44
-2.95
-6.93
-9.46
-10.43
-10.46
-10.37
-10.72
-11.65
-12.99
-14.50
-16.06
-17.65
-19.24
-20.76
-22.03
-22.76
-22.60
-21.18
-18.29
-14.00
-8.81
-3.56
0.73
3.18
3.32
1.15
-2.89
-8.20
-14.20
-20.51
-26.97
-33.69
-40.99
-49.40
-59.55
-71.94
-86.73
-103.55
-121.50
-139.25
-155.36
-168.61
-178.33
-184.58
-188.10
-190.12
-191.84
-194.02
-196.60
-198.74
-199.24
-197.35
-193.36
-188.73
-185.62
-185.83
-189.82
-196.15
-201.79
-203.04
-196.84
-181.83
-158.54
-128.99
-95.72
-60.87
-25.62
9.89
46.25
84.65
126.50
172.70
222.60
272.92
317.53
348.65
359.50
347.24
314.91
270.88
226.06
190.13
168.58
161.84
166.54
177.83
191.19
203.25
211.56
214.10
209.20
196.15
175.74
150.40
123.72
99.40
80.14
66.87
58.76
53.77
49.61
44.71
38.69
32.34
27.02
24.04
24.02
26.86
31.97
38.55
45.81
52.98
59.30
64.08
66.90
67.74
66.90
64.68
61.05
55.64
48.13
38.81
28.84
19.91
13.46
9.84
7.93
5.60
0.72
-7.85
-19.75
-33.34
-46.52
-57.56
-65.64
-70.93
-74.19
-76.33
-78.04
-79.61
-80.84
-81.23
-80.10
-76.94
-71.63
-64.52
-56.32
-47.77
-39.35
-31.17
-23.13
-15.22
-7.94
-2.23
0.73
0.14
-4.03
-10.74
-18.14
-24.20
-27.31
-26.79
-23.22
-18.30
-14.48
-14.26
-19.52
-30.90
-47.48
-66.79
-85.23
-98.83
-104.28
-99.95
-86.54
-67.02
-45.71
-26.87
-13.16
-4.86
-0.22
3.40
7.81
12.93
16.78
16.65
10.87
0.06
-12.72
-23.04
-26.82
-21.92
-8.86
9.44
28.80
45.13
55.61
59.23
56.76
50.15
41.67
33.13
25.36
18.20
11.02
3.32
-4.75
-12.38
-18.41
-21.84
-22.11
-19.05
-12.66
-3.02
9.64
24.57
40.38
55.14
66.86
74.15
76.61
74.94
70.53
64.93
59.31
54.15
49.16
43.51
36.27
26.92
15.74
3.98
-6.53
-13.96
-17.32
-16.80
-13.72
-9.92
-6.97
-5.64
-5.80
-6.81
-8.07
-9.33
-10.72
-12.45
-14.52
-16.60
-18.26
-19.17
-19.37
-19.21
-19.17
-19.66
-20.84
-22.64
-24.81
-27.06
-29.16
-30.96
-32.40
-33.48
-34.28
-34.85
-35.28
-35.64
-35.98
-36.37
-36.88
-37.54
-38.38
-39.38
-40.50
-41.76
-43.27
-45.19
-47.65
-50.63
-53.81
-56.56
-58.06
-57.56
-54.67
-49.60
-43.12
-36.30
-30.03
-24.66
-19.85
-14.72
-8.29
0.05
10.18
21.19
31.69
40.27
46.05
48.96
49.72
49.55
49.63
50.73
52.98
55.95
58.93
61.16
62.03
61.18
58.47
53.99
48.03
41.02
33.38
25.45
17.38
9.23
1.12
-6.65
-13.63
-19.34
-23.52
-26.22
-27.89
-29.12
-30.50
-32.44
-35.08
-38.32
-41.73
-44.69
-46.39
-46.03
-43.06
-37.39
-29.54
-20.53
-11.64
-3.97
1.75
5.32
7.00
7.24
6.56
5.42
4.17
3.17
2.79
3.39
5.21
8.27
12.20
16.39
20.14
22.94
24.57
25.17
25.02
24.36
23.27
21.72
19.71
17.34
14.81
12.34
10.00
7.69
5.17
2.27
-1.01
-4.52
-7.96
-11.07
-13.69
-15.79
-17.49
-18.98
-20.47
-22.16
-24.09
-26.10
-27.78
-28.57
-27.91
-25.55
-21.62
-16.75
-11.91
-8.07
-5.87
-5.39
-6.10
-7.08
-7.43
-6.61
-4.63
-1.89
1.00
3.57
5.61
7.25
8.80
10.74
13.66
18.09
24.33
32.27
41.13
49.65
56.39
60.23
60.72
58.22
53.59
47.75
41.42
34.89
28.24
21.53
14.95
8.77
3.24
-1.65
-6.18
-10.80
-15.94
-21.80
-28.29
-35.01
-41.45
-47.04
-51.26
-53.75
-54.34
-53.12
-50.40
-46.65
-42.35
-37.77
-32.97
-27.78
-21.99
-15.48
-8.38
-1.01
6.21
12.94
18.96
24.20
28.67
32.40
35.36
37.44
38.47
38.26
36.76
34.11
30.70
27.08
23.78
21.09
18.96
17.10
15.15
12.89
10.36
7.80
5.45
3.40
1.51
-0.44
-2.62
-5.03
-7.50
-9.90
-12.18
-14.53
-17.23
-20.40
-23.82
-26.88
-28.69
-28.50
-26.01
-21.49
-15.69
-9.48
-3.53
1.87
6.74
11.21
15.24
18.68
21.24
22.80
23.49
23.70
23.93
24.66
26.16
28.47
31.46
35.03
39.17
43.84
48.82
53.47
56.92
58.34
57.35
54.18
49.45
43.68
36.94
28.88
19.18
8.02
-3.76
-15.09
-25.29
-34.52
-43.60
-53.32
-63.73
-73.88
-82.36
-87.98
-90.47
-90.48
-89.22
-87.73
-86.53
-85.63
-84.83
-84.09
-83.52
-83.16
-82.63
-80.97
-76.82
-69.01
-57.09
-41.66
-24.26
-6.85
8.86
21.83
31.74
38.64
42.71
44.11
43.06
40.07
35.82
30.91
25.45
18.96
10.63
-0.01
-12.59
-25.75
-37.60
-46.34
-50.92
-51.21
-47.73
-41.28
-32.61
-22.40
-11.40
-0.51
9.31
17.26
22.92
26.36
27.99
28.35
27.89
26.89
25.50
23.91
22.37
21.31
21.15
22.24
24.66
28.21
32.35
36.39
39.60
41.38
41.37
39.48
35.90
31.02
25.35
19.43
13.71
8.56
4.15
0.48
-2.67
-5.72
-9.14
-13.19
-17.71
-22.04
-25.21
-26.29
-24.81
-20.96
-15.45
-9.26
-3.23
2.16
6.79
10.73
14.10
16.91
19.11
20.62
21.42
21.56
21.20
20.54
19.77
19.06
18.48
18.07
17.88
18.02
18.72
20.13
22.22
24.58
26.49
27.08
25.74
22.30
17.21
11.33
5.63
0.79
-3.00
-6.02
-8.78
-11.82
-15.43
-19.65
-24.25
-28.79
-32.66
-35.11
-35.42
-33.09
-28.12
-21.11
-13.11
-5.29
1.42
6.65
10.51
13.37
15.60
17.37
18.66
19.42
19.74
19.84
20.05
20.59
21.55
22.76
23.85
24.42
24.07
22.66
20.31
17.35
14.22
11.22
8.45
5.80
3.11
0.34
-2.37
-4.73
-6.49
-7.59
-8.24
-8.82
-9.72
-11.22
-13.41
-16.25
-19.57
-23.11
-26.45
-28.96
-29.90
-28.59
-24.71
-18.48
-10.64
-2.25
5.67
12.42
17.77
21.78
24.67
26.59
27.61
27.80
27.33
26.47
25.59
24.99
24.77
24.91
25.19
25.37
25.26
24.77
23.96
22.98
21.98
21.04
20.11
19.07
17.76
16.12
14.19
12.07
9.89
7.70
5.53
3.38
1.30
-0.68
-2.57
-4.45
-6.50
-8.90
-11.75
-15.00
-18.37
-21.36
-23.29
-23.47
-21.34
-16.75
-10.07
-2.20
5.67
12.45
17.43
20.40
21.57
21.31
19.95
17.78
15.07
12.18
9.47
7.23
5.49
4.01
2.37
0.16
-2.85
-6.62
-10.85
-15.03
-18.70
-21.51
-23.39
-24.57
-25.44
-26.36
-27.49
-28.79
-30.13
-31.49
-33.11
-35.34
-38.40
-42.17
-46.17
-49.73
-52.38
-54.04
-55.13
-56.23
-57.79
-59.79
-61.77
-63.05
-63.13
-61.92
-59.60
-56.24
-51.42
-44.21
-33.64
-19.31
-1.76
17.56
36.87
54.54
69.41
80.63
87.24
88.15
82.51
70.27
52.71
32.25
11.58
-7.34
-23.83
-38.29
-51.24
-62.48
-70.86
-74.92
-73.91
-68.79
-62.28
-58.01
-58.99
-66.28
-78.38
-91.63
-101.34
-102.99
-93.21
-70.15
-33.82
13.66
67.86
122.34
169.75
203.63
220.29
219.73
205.35
182.47
156.37
131.00
108.50
89.81
75.27
64.94
58.40
54.42
51.05
46.28
38.86
28.89
17.62
6.85
-1.86
-7.66
-10.48
-10.81
-9.38
-6.86
-3.81
-0.63
2.34
4.86
6.80
8.23
9.44
10.82
12.82
15.61
19.01
22.40
24.97
25.94
24.84
21.52
16.11
8.90
0.38
-8.64
-16.94
-23.08
-25.94
-25.19
-21.62
-16.90
-13.04
-11.66
-13.43
-17.98
-24.14
-30.38
-35.23
-37.49
-36.32
-31.24
-22.29
-10.19
3.60
17.06
28.22
35.76
39.50
40.36
39.90
39.65
40.54
42.70
45.63
48.52
50.59
51.17
49.78
46.15
40.38
32.94
24.73
16.81
10.02
4.70
0.61
-3.01
-7.26
-13.31
-22.09
-33.94
-48.28
-63.52
-77.26
-87.08
-91.29
-89.59
-83.01
-73.43
-62.72
-52.16
-42.15
-32.55
-23.11
-13.84
-5.17
2.26
7.79
11.13
12.42
12.33
11.81
11.75
12.65
14.33
16.04
16.79
15.77
12.67
7.77
1.77
-4.57
-10.68
-16.39
-21.89
-27.62
-34.09
-41.59
-50.14
-59.44
-68.94
-78.00
-86.03
-92.57
-97.30
-100.01
-100.71
-99.63
-97.29
-94.37
-91.47
-88.70
-85.59
-81.12
-74.15
-63.95
-50.60
-35.07
-18.93
-3.86
8.83
18.39
24.64
27.78
28.31
26.97
24.73
22.70
21.91
22.99
25.90
29.89
33.79
36.39
36.89
35.21
31.91
27.91
24.11
21.03
18.74
16.99
15.41
13.79
12.13
10.54
9.18
8.07
7.13
6.23
5.25
4.24
3.29
2.56
2.13
1.97
1.93
1.87
1.66
1.29
0.82
0.38
0.09
-0.00
0.07
0.21
0.33
0.34
0.25
0.09
-0.04
-0.08
-0.02
0.13
0.31
0.47
0.56
0.58
0.55
0.52
0.50
0.52
0.58
0.65
0.72
0.77
0.80
0.81
0.82
0.82
0.83
0.83
0.84
0.85
0.85
0.85
0.85
0.85
0.85
0.85
0.84
0.84
0.84
0.83
0.83
0.83
0.82
0.82
0.82
0.82
0.81
0.81
0.81
0.80
0.80
0.80
0.80
0.79
0.79
0.79
0.78
0.78
0.78
0.77
0.77
0.77
0.77
0.76
0.76
0.76
0.76
0.75
0.75
0.75
0.74
0.74
0.74
0.74
0.73
0.73
0.73
0.72
0.72
0.72
0.72
0.71
0.71
0.71
0.71
0.70
0.70
0.70
0.70
0.69
0.69
0.69
0.68
0.68
0.68
0.68
0.67
0.67
0.67
0.67
0.66
0.66
0.66
0.66
0.65
0.65
0.65
0.65
0.64
0.64
0.64
0.64
0.63
0.63
0.63
0.63
0.63
0.62
0.62
0.62
0.62
0.61
0.61
0.61
0.61
0.60
0.60
0.60
0.60
0.60
0.59
0.59
0.59
0.59
0.58
0.58
0.58
0.58
0.58
0.57
0.57
0.57
0.57
0.57
0.56
0.56
0.56
0.56
0.55
0.55
0.55
0.55
0.55
0.54
0.54
0.54
0.54
0.54
0.53
0.53
0.53
0.53
0.53
0.52
0.52
0.52
0.52
0.52
0.51
0.51
0.51
0.51
0.51
0.50
0.50
0.50
0.50
0.50
0.50
0.49
0.49
0.49
0.49
0.49
0.48
0.48
0.48
0.48
0.48
0.47
0.47
0.45
0.43
0.39
0.35
0.29
0.23
0.17
0.11
0.06
0.02
-0.00
-0.02
-0.03
-0.04
-0.05
-0.07
-0.08
-0.08
-0.08
-0.08
-0.08
-0.10
-0.14
-0.19
-0.24
-0.29
-0.34
-0.39
-0.45
-0.54
-0.68
-0.88
-1.11
-1.35
-1.58
-1.77
-1.93
-2.06
-2.23
-2.48
-2.82
-3.25
-3.72
-4.14
-4.45
-4.61
-4.65
-4.66
-4.74
-4.98
-5.38
-5.88
-6.28
-6.42
-6.19
-5.66
-5.03
-4.60
-4.55
-4.76
-4.76
-3.87
-1.36
3.29
10.26
19.37
30.13
41.79
53.37
63.68
71.57
76.16
77.13
74.83
70.03
63.63
56.28
48.24
39.56
30.27
20.65
11.12
2.10
-6.21
-13.89
-21.23
-28.54
-35.87
-42.99
-49.43
-54.56
-57.91
-59.36
-59.28
-58.41
-57.56
-57.22
-57.31
-57.10
-55.62
-52.00
-45.88
-37.46
-27.37
-16.43
-5.49
4.62
13.05
19.09
22.40
23.19
22.33
21.03
20.37
21.00
22.87
25.49
28.13
30.20
31.26
31.03
29.32
26.07
21.46
16.13
11.04
7.25
5.47
5.72
7.25
8.86
9.37
8.10
5.16
1.30
-2.41
-5.10
-6.38
-6.45
-5.94
-5.73
-6.66
-9.31
-13.81
-19.68
-25.85
-30.84
-33.21
-32.07
-27.32
-19.78
-10.87
-2.16
5.02
9.79
11.75
10.90
7.57
2.38
-3.82
-10.05
-15.34
-18.95
-20.46
-19.78
-17.10
-12.79
-7.34
-1.30
4.71
10.14
14.54
17.74
19.83
21.14
22.03
22.75
23.34
23.62
23.34
22.33
20.57
18.18
15.33
12.17
8.80
5.32
1.87
-1.37
-4.11
-6.00
-6.71
-5.92
-3.46
0.59
5.94
12.11
18.58
24.94
30.96
36.57
41.65
45.86
48.68
49.48
47.89
44.00
38.38
31.93
25.52
19.68
14.49
9.74
5.18
0.78
-3.25
-6.65
-9.27
-11.31
-13.17
-15.29
-17.86
-20.80
-23.84
-26.74
-29.41
-31.82
-33.97
-35.74
-36.95
-37.47
-37.36
-36.86
-36.28
-35.82
-35.46
-35.08
-34.59
-34.02
-33.48
-33.08
-32.78
-32.48
-32.13
-31.84
-31.90
-32.54
-33.72
-34.99
-35.55
-34.47
-31.09
-25.22
-17.25
-7.97
1.60
10.51
17.99
23.61
27.28
29.22
29.83
29.57
28.80
27.73
26.42
24.79
22.79
20.45
17.96
15.64
13.83
12.72
12.27
12.21
12.10
11.49
10.14
8.00
5.24
2.16
-1.00
-4.06
-6.90
-9.44
-11.63
-13.43
-14.86
-16.00
-16.87
-17.33
-17.06
-15.58
-12.53
-7.89
-2.08
4.07
9.68
14.10
17.10
18.84
19.73
20.07
20.03
19.55
18.51
16.88
14.76
12.39
10.04
7.91
6.06
4.47
3.09
1.91
0.96
0.24
-0.28
-0.76
-1.38
-2.31
-3.62
-5.30
-7.27
-9.49
-11.95
-14.56
-17.14
-19.40
-21.04
-21.90
-22.13
-22.11
-22.36
-23.24
-24.85
-26.93
-28.94
-30.32
-30.61
-29.54
-27.10
-23.45
-18.86
-13.71
-8.40
-3.31
1.13
4.53
6.46
6.52
4.41
0.08
-6.07
-13.21
-20.18
-25.79
-29.22
-30.38
-29.93
-29.18
-29.57
-32.13
-37.01
-43.17
-48.50
-50.16
-45.49
-32.90
-12.73
12.49
38.51
60.53
74.66
79.12
74.62
63.89
50.49
37.57
27.01
19.23
13.59
9.08
4.94
0.91
-2.64
-5.07
-5.72
-4.21
-0.57
4.72
10.86
16.90
21.86
25.02
25.90
24.41
20.87
15.99
10.77
6.30
3.54
2.98
4.51
7.39
10.51
12.76
13.45
12.47
10.27
7.54
4.94
2.80
1.12
-0.40
-2.11
-4.25
-6.80
-9.48
-11.93
-13.86
-15.30
-16.61
-18.35
-20.98
-24.49
-28.34
-31.57
-33.19
-32.58
-29.72
-25.06
-19.38
-13.41
-7.81
-3.06
0.48
2.63
3.41
3.15
2.32
1.42
0.72
0.28
-0.01
-0.15
0.07
0.92
2.49
4.49
6.41
7.84
8.97
10.61
13.67
18.50
24.30
29.26
31.46
29.92
25.26
19.44
14.61
11.86
10.55
8.60
3.57
-5.99
-19.80
-35.80
-50.76
-61.03
-63.37
-55.44
-36.28
-6.61
30.98
72.21
111.96
145.34
169.03
181.98
185.38
181.90
174.43
165.18
155.25
144.95
134.44
124.24
115.28
108.58
104.76
103.83
105.30
108.26
111.32
112.31
108.35
96.51
75.11
45.14
10.62
-22.42
-48.17
-63.33
-68.26
-66.41
-62.50
-60.55
-62.76
-69.62
-80.65
-95.02
-111.65
-128.90
-144.40
-155.51
-160.18
-157.76
-149.36
-137.33
-124.38
-112.53
-102.66
-94.53
-87.30
-80.24
-73.14
-66.26
-60.14
-55.15
-51.33
-48.41
-46.06
-44.08
-42.42
-41.09
-40.06
-39.18
-38.36
-37.59
-37.06
-36.96
-37.41
-38.27
-39.34
-40.49
-41.90
-44.02
-47.39
-52.25
-58.30
-64.73
-70.52
-74.96
-78.04
-80.45
-83.27
-87.35
-92.81
-98.77
-103.55
-105.20
-102.20
-94.17
-82.32
-69.19
-57.82
-50.29
-46.53
-44.02
-38.51
-25.54
-2.02
32.88
77.42
127.72
178.25
222.59
254.39
268.78
263.79
241.22
206.35
166.31
127.95
96.01
72.54
57.47
49.75
48.19
51.64
58.80
67.99
77.16
84.42
88.45
88.77
85.78
80.41
73.69
66.35
58.53
49.89
39.96
28.57
16.28
4.36
-5.60
-12.24
-15.04
-14.44
-11.67
-8.15
-4.94
-2.42
-0.34
1.77
4.26
6.95
9.22
10.18
9.12
5.90
1.07
-4.29
-9.06
-12.57
-14.94
-16.99
-19.81
-24.22
-30.40
-37.85
-45.68
-52.90
-58.75
-62.71
-64.52
-64.15
-61.87
-58.26
-54.15
-50.35
-47.43
-45.55
-44.43
-43.55
-42.36
-40.38
-37.27
-32.86
-27.19
-20.65
-13.93
-7.83
-2.94
0.70
3.69
7.00
11.47
17.29
23.80
29.64
33.25
33.51
30.09
23.69
15.74
8.11
2.55
0.30
1.76
6.49
13.40
21.17
28.57
34.79
39.37
42.12
42.87
41.47
37.77
31.89
24.26
15.62
6.82
-1.37
-8.52
-14.51
-19.42
-23.41
-26.60
-29.06
-30.88
-32.18
-33.12
-33.76
-34.02
-33.70
-32.72
-31.26
-29.84
-29.23
-30.16
-33.04
-37.74
-43.58
-49.61
-54.76
-58.20
-59.43
-58.34
-55.02
-49.75
-42.85
-34.62
-25.20
-14.57
-2.58
10.73
24.80
38.43
49.94
57.76
61.06
60.02
55.73
49.78
43.69
38.65
35.43
34.42
35.69
38.95
43.45
48.06
51.55
53.03
52.28
49.58
45.43
40.19
33.94
26.60
18.21
9.03
-0.49
-9.88
-18.89
-27.47
-35.65
-43.35
-50.18
-55.53
-58.86
-60.12
-59.87
-58.98
-58.07
-57.00
-54.90
-50.61
-43.51
-33.91
-23.09
-12.66
-3.85
3.05
8.56
13.59
18.85
24.50
30.10
34.94
38.36
39.99
39.81
38.09
35.29
32.02
28.81
25.95
23.43
20.93
18.06
14.59
10.62
6.49
2.64
-0.75
-3.86
-7.10
-10.84
-14.92
-18.56
-20.50
-19.64
-15.54
-8.78
-0.78
6.62
11.86
13.94
12.64
8.38
2.01
-5.41
-12.76
-18.91
-23.04
-24.90
-24.95
-24.19
-23.58
-23.39
-22.82
-20.24
-14.04
-3.68
9.58
22.68
31.77
33.91
28.55
18.23
7.72
2.10
4.43
14.34
28.21
40.85
47.86
47.49
41.07
31.87
23.22
16.98
13.10
10.24
6.82
1.85
-5.01
-13.70
-24.26
-36.83
-51.52
-68.05
-85.63
-102.93
-118.45
-130.82
-139.16
-143.35
-143.97
-142.12
-139.06
-135.73
-132.55
-129.37
-125.73
-121.14
-115.30
-108.11
-99.54
-89.61
-78.44
-66.48
-54.57
-43.81
-35.09
-28.58
-23.49
-18.31
-11.39
-1.71
10.61
24.38
37.89
49.54
58.47
64.57
68.20
69.75
69.42
67.28
63.57
58.85
53.93
49.56
46.03
42.99
39.60
34.94
28.44
20.17
10.78
1.21
-7.66
-15.31
-21.60
-26.60
-30.35
-32.69
-33.19
-31.39
-27.02
-20.31
-12.00
-3.19
5.06
12.04
17.52
21.57
24.27
25.51
25.00
22.48
18.09
12.58
7.19
3.24
1.65
2.49
5.08
8.26
10.91
12.39
12.65
12.07
11.25
10.67
10.49
10.58
10.55
10.00
8.66
6.58
4.09
1.67
-0.25
-1.50
-2.36
-3.44
-5.51
-9.24
-14.89
-22.07
-29.42
-34.69
-35.15
-28.43
-13.58
8.29
34.07
59.61
81.05
95.98
103.91
105.92
103.73
98.99
92.86
86.11
79.39
73.41
68.78
65.81
64.23
63.23
61.70
58.64
53.52
46.55
38.53
30.59
23.69
18.18
13.69
9.30
4.08
-2.31
-9.33
-15.61
-19.44
-19.54
-15.63
-8.64
-0.42
6.99
12.01
13.91
12.83
9.38
4.34
-1.57
-7.58
-12.78
-16.08
-16.48
-13.46
-7.26
1.10
10.09
18.22
24.50
28.73
31.30
32.84
33.86
34.46
34.46
33.66
32.15
30.38
29.00
28.50
29.01
30.22
31.67
32.98
34.04
34.97
35.86
36.52
36.46
35.12
32.17
27.79
22.67
17.71
13.66
10.74
8.63
6.71
4.38
1.46
-1.81
-4.89
-7.35
-9.14
-10.63
-12.50
-15.41
-19.75
-25.39
-31.68
-37.54
-41.71
-43.02
-40.82
-35.12
-26.68
-16.75
-6.77
2.08
9.12
14.25
17.77
20.13
21.73
22.78
23.35
23.49
23.35
23.13
23.04
23.14
23.29
23.16
22.40
20.91
18.86
16.72
15.04
14.10
13.76
13.35
11.95
8.80
3.64
-3.08
-10.44
-17.34
-22.96
-26.98
-29.53
-31.03
-31.87
-32.22
-32.04
-31.21
-29.79
-28.07
-26.65
-26.17
-27.13
-29.68
-33.48
-37.80
-41.66
-44.08
-44.33
-42.03
-37.28
-30.53
-22.58
-14.41
-6.99
-1.13
2.75
4.67
5.11
4.91
4.98
6.02
8.34
11.82
16.04
20.55
25.06
29.40
33.35
36.46
38.07
37.56
34.73
30.00
24.37
19.03
14.88
12.22
10.79
10.11
9.76
9.61
9.72
10.12
10.63
10.92
10.60
9.38
7.18
4.08
0.22
-4.25
-9.17
-14.45
-19.89
-25.26
-30.16
-34.03
-36.23
-36.19
-33.70
-29.04
-23.00
-16.66
-10.98
-6.52
-3.30
-0.99
0.79
2.13
2.82
2.49
0.89
-1.78
-4.89
-7.53
-8.87
-8.44
-6.39
-3.41
-0.43
1.73
2.65
2.32
1.14
-0.38
-1.71
-2.46
-2.32
-1.16
0.98
3.78
6.74
9.28
10.94
11.58
11.35
10.60
9.64
8.61
7.40
5.79
3.57
0.69
-2.64
-6.04
-9.05
-11.22
-12.35
-12.45
-11.75
-10.57
-9.11
-7.31
-4.81
-1.17
3.94
10.43
17.67
24.64
30.21
33.47
34.07
32.20
28.44
23.53
18.16
12.87
8.06
4.05
1.11
-0.66
-1.39
-1.45
-1.42
-1.85
-3.01
-4.77
-6.67
-8.14
-8.76
-8.53
-7.80
-7.13
-7.03
-7.72
-9.21
-11.34
-13.96
-16.97
-20.29
-23.77
-27.17
-30.24
-32.88
-35.14
-37.18
-39.13
-40.86
-41.97
-41.98
-40.49
-37.49
-33.37
-28.84
-24.62
-21.28
-19.00
-17.62
-16.81
-16.09
-15.10
-13.48
-11.03
-7.64
-3.39
1.49
6.65
11.67
16.23
20.09
23.19
25.55
27.28
28.49
29.26
29.60
29.35
28.22
25.84
21.94
16.67
10.69
5.19
1.47
0.42
2.07
5.48
9.02
10.96
10.21
6.59
0.93
-5.43
-11.09
-15.07
-17.01
-17.11
-15.94
-14.08
-11.97
-9.81
-7.63
-5.52
-3.66
-2.36
-1.88
-2.21
-3.01
-3.62
-3.38
-1.95
0.45
3.16
5.23
5.90
4.78
2.06
-1.68
-5.63
-9.08
-11.61
-13.08
-13.54
-13.04
-11.58
-9.10
-5.70
-1.75
2.07
5.02
6.58
6.72
5.80
4.44
3.14
2.14
1.35
0.52
-0.57
-2.04
-3.92
-6.22
-8.98
-12.31
-16.28
-20.80
-25.58
-30.06
-33.57
-35.44
-35.21
-32.77
-28.41
-22.82
-16.88
-11.46
-7.14
-4.08
-1.97
-0.26
1.61
3.93
6.63
9.34
11.67
13.42
14.74
15.91
17.24
18.72
20.08
20.97
21.12
20.59
19.66
18.68
17.79
16.91
15.79
14.19
12.10
9.72
7.36
5.28
3.56
2.11
0.69
-0.93
-2.94
-5.45
-8.51
-12.15
-16.33
-20.92
-25.57
-29.68
-32.44
-33.07
-31.08
-26.49
-19.86
-12.13
-4.26
3.05
9.46
14.93
19.46
22.99
25.32
26.23
25.68
23.88
21.35
18.64
16.22
14.28
12.72
11.33
9.89
8.37
6.88
5.64
4.84
4.46
4.34
4.23
3.91
3.31
2.48
1.49
0.34
-1.04
-2.79
-4.97
-7.55
-10.39
-13.28
-16.07
-18.67
-21.18
-23.73
-26.42
-29.12
-31.42
-32.62
-31.94
-28.83
-23.24
-15.67
-7.02
1.69
9.62
16.32
21.62
25.56
28.13
29.31
29.13
27.76
25.63
23.33
21.47
20.41
20.22
20.63
21.19
21.43
21.03
19.88
18.12
16.00
13.80
11.75
9.94
8.33
6.78
5.11
3.15
0.84
-1.83
-4.77
-7.86
-10.98
-14.00
-16.79
-19.29
-21.50
-23.59
-25.88
-28.70
-32.24
-36.27
-40.10
-42.67
-42.93
-40.19
-34.43
-26.34
-17.03
-7.66
0.91
8.29
14.41
19.34
23.04
25.38
26.21
25.62
23.99
21.94
20.12
18.98
18.64
18.89
19.32
19.59
19.54
19.23
18.87
18.69
18.81
19.24
19.86
20.47
20.81
20.58
19.49
17.41
14.42
10.86
7.24
4.02
1.45
-0.50
-2.10
-3.70
-5.70
-8.39
-11.88
-16.05
-20.39
-24.04
-25.97
-25.37
-21.95
-16.22
-9.28
-2.46
3.04
6.44
7.33
5.62
1.48
-4.61
-11.73
-18.59
-23.86
-26.59
-26.52
-24.14
-20.37
-16.11
-11.88
-7.79
-3.69
0.48
4.59
8.34
11.43
13.71
15.20
15.96
16.08
15.51
14.25
12.32
9.89
7.09
3.99
0.53
-3.40
-7.91
-12.94
-18.21
-23.24
-27.33
-29.74
-29.75
-26.94
-21.33
-13.53
-4.63
4.05
11.33
16.48
19.35
20.27
19.77
18.31
16.15
13.40
10.21
7.01
4.54
3.63
4.79
7.92
12.30
17.13
22.05
27.45
34.14
42.56
52.04
60.68
66.00
66.12
60.67
50.98
39.40
28.20
18.69
11.04
4.73
-0.76
-5.54
-9.31
-11.77
-13.02
-13.73
-14.94
-17.58
-21.96
-27.47
-32.75
-36.23
-36.69
-33.83
-28.34
-21.63
-15.33
-10.80
-8.81
-9.50
-12.51
-17.15
-22.54
-27.69
-31.56
-33.19
-31.81
-27.09
-19.28
-9.34
1.28
10.97
18.40
22.90
24.57
24.09
22.40
20.31
18.34
16.65
15.16
13.66
11.87
9.51
6.33
2.27
-2.51
-7.55
-12.26
-15.99
-18.23
-18.76
-17.70
-15.62
-13.38
-11.91
-11.84
-13.19
-15.30
-16.98
-17.01
-14.61
-9.82
-3.39
3.47
9.65
14.46
17.76
19.78
20.88
21.32
21.18
20.40
18.93
16.80
14.21
11.49
9.16
7.75
7.81
9.62
13.02
17.39
21.78
25.23
27.17
27.57
26.87
25.63
24.25
22.81
21.14
19.13
16.86
14.62
12.70
11.16
9.75
7.98
5.35
1.61
-3.08
-8.22
-13.15
-17.36
-20.64
-23.09
-24.88
-26.07
-26.43
-25.61
-23.42
-20.07
-16.29
-12.98
-10.84
-9.94
-9.74
-9.40
-8.21
-5.98
-3.05
0.02
2.71
4.80
6.42
7.82
9.22
10.69
12.14
13.37
14.23
14.53
14.15
12.98
10.96
8.12
4.66
0.90
-2.78
-6.07
-8.87
-11.26
-13.46
-15.70
-18.05
-20.40
-22.52
-24.21
-25.39
-26.17
-26.79
-27.49
-28.43
-29.69
-31.24
-32.98
-34.63
-35.70
-35.56
-33.64
-29.68
-23.95
-17.23
-10.52
-4.64
0.08
3.84
7.08
10.12
12.93
15.15
16.38
16.56
16.06
15.48
15.34
15.74
16.34
16.60
16.17
15.09
13.75
12.62
11.99
11.75
11.50
10.82
9.43
7.32
4.73
2.01
-0.53
-2.64
-4.24
-5.41
-6.35
-7.37
-8.73
-10.60
-13.01
-15.85
-18.87
-21.73
-24.00
-25.18
-24.80
-22.61
-18.67
-13.42
-7.62
-2.04
2.67
6.23
8.66
10.19
11.07
11.49
11.56
11.32
10.82
10.16
9.45
8.82
8.41
8.31
8.58
9.18
9.95
10.67
11.04
10.82
9.96
8.54
6.79
4.94
3.11
1.35
-0.39
-2.12
-3.82
-5.39
-6.76
-7.91
-8.94
-10.01
-11.25
-12.74
-14.48
-16.41
-18.51
-20.75
-23.00
-24.97
-26.19
-26.10
-24.31
-20.72
-15.66
-9.78
-3.81
1.64
6.20
9.82
12.55
14.48
15.66
16.12
15.93
15.29
14.44
13.68
13.23
13.17
13.42
13.76
13.95
13.81
13.29
12.46
11.46
10.41
9.37
8.27
7.01
5.52
3.76
1.82
-0.14
-2.01
-3.71
-5.31
-6.98
-8.86
-11.02
-13.37
-15.65
-17.61
-19.07
-20.08
-20.92
-21.96
-23.58
-25.93
-28.90
-31.99
-34.43
-35.38
-34.06
-30.06
-23.40
-14.64
-4.69
5.34
14.43
21.79
26.99
29.96
30.90
30.21
28.34
25.74
22.77
19.74
16.85
14.23
12.00
10.19
8.84
7.96
7.52
7.50
7.87
8.60
9.64
10.89
12.10
12.93
13.03
12.15
10.37
8.04
5.69
3.78
2.48
1.63
0.82
-0.37
-2.15
-4.50
-7.23
-10.12
-13.01
-15.84
-18.57
-21.18
-23.69
-26.22
-28.91
-31.83
-34.80
-37.34
-38.72
-38.27
-35.57
-30.70
-24.24
-17.04
-9.97
-3.69
1.50
5.52
8.53
10.67
12.09
12.91
13.31
13.51
13.73
14.19
14.90
15.76
16.53
16.95
16.88
16.32
15.41
14.34
13.32
12.46
11.77
11.19
10.55
9.69
8.48
6.95
5.23
3.57
2.16
1.03
0.03
-1.13
-2.70
-4.75
-7.14
-9.60
-11.86
-13.79
-15.47
-17.15
-19.10
-21.54
-24.53
-27.90
-31.25
-33.99
-35.45
-35.02
-32.35
-27.56
-21.15
-13.95
-6.81
-0.39
5.00
9.35
12.81
15.52
17.48
18.65
18.97
18.54
17.57
16.33
15.07
13.88
12.67
11.24
9.34
6.80
3.64
0.06
-3.53
-6.70
-9.12
-10.58
-11.12
-10.90
-10.14
-9.02
-7.67
-6.18
-4.64
-3.20
-2.01
-1.21
-0.86
-0.93
-1.28
-1.74
-2.23
-2.78
-3.64
-5.10
-7.43
-10.59
-14.14
-17.26
-19.01
-18.62
-15.83
-10.98
-4.93
1.30
6.85
11.26
14.50
16.81
18.49
19.70
20.49
20.86
20.89
20.84
20.97
21.48
22.29
23.09
23.46
23.10
21.95
20.24
18.36
16.65
15.25
14.15
13.20
12.28
11.32
10.31
9.18
7.85
6.20
4.15
1.77
-0.81
-3.47
-6.12
-8.82
-11.68
-14.78
-18.09
-21.53
-24.90
-27.97
-30.45
-31.87
-31.69
-29.44
-24.92
-18.39
-10.58
-2.50
4.92
11.03
15.64
18.87
20.98
22.22
22.74
22.63
22.03
21.15
20.27
19.64
19.37
19.43
19.58
19.52
18.95
17.72
15.88
13.65
11.35
9.18
7.23
5.40
3.56
1.68
-0.14
-1.70
-2.81
-3.44
-3.72
-3.92
-4.30
-5.07
-6.34
-8.23
-10.93
-14.64
-19.46
-25.17
-31.13
-36.33
-39.72
-40.52
-38.48
-33.93
-27.64
-20.50
-13.30
-6.59
-0.68
4.28
8.19
11.02
12.83
13.79
14.19
14.34
14.52
14.94
15.67
16.70
17.96
19.34
20.71
21.98
23.05
23.86
24.35
24.49
24.24
23.53
22.35
20.68
18.57
16.13
13.43
10.55
7.49
4.18
0.54
-3.48
-7.85
-12.48
-17.14
-21.47
-24.90
-26.78
-26.48
-23.68
-18.50
-11.66
-4.24
2.59
7.88
11.20
12.61
12.52
11.52
10.22
9.15
8.75
9.31
10.93
13.39
16.16
18.49
19.58
18.84
16.12
11.79
6.58
1.27
-3.54
-7.62
-10.98
-13.55
-15.02
-14.78
-12.21
-7.09
0.07
8.01
15.12
19.94
21.61
20.03
15.73
9.54
2.35
-4.98
-11.60
-16.68
-19.51
-19.69
-17.30
-12.89
-7.32
-1.56
3.65
7.89
11.06
13.24
14.60
15.24
15.20
14.53
13.36
11.93
10.62
9.78
9.62
10.07
10.80
11.32
11.20
10.22
8.54
6.57
4.87
3.92
3.94
4.79
6.09
7.35
8.13
8.19
7.51
6.22
4.46
2.35
-0.11
-2.97
-6.32
-10.23
-14.74
-19.79
-25.16
-30.44
-34.96
-37.91
-38.56
-36.47
-31.62
-24.50
-15.97
-6.99
1.51
8.92
14.85
19.18
21.90
23.11
22.97
21.75
19.84
17.66
15.59
13.91
12.75
12.14
12.02
12.36
13.09
14.12
15.22
16.03
16.11
15.01
12.47
8.51
3.45
-2.10
-7.45
-12.03
-15.55
-18.05
-19.82
-21.17
-22.30
-23.23
-23.87
-24.18
-24.27
-24.35
-24.68
-25.41
-26.55
-27.96
-29.43
-30.70
-31.49
-31.44
-30.18
-27.46
-23.33
-18.19
-12.86
-8.28
-5.17
-3.74
-3.61
-3.98
-4.02
-3.27
-1.73
0.15
1.89
3.20
4.17
5.14
6.45
8.16
10.08
11.88
13.33
14.47
15.53
16.71
17.93
18.82
18.78
17.32
14.34
10.21
5.61
1.18
-2.71
-6.09
-9.26
-12.59
-16.15
-19.65
-22.57
-24.36
-24.66
-23.25
-20.02
-14.91
-7.97
0.35
9.15
17.03
22.59
24.90
24.01
20.98
17.54
15.42
15.68
18.37
22.68
27.31
30.99
32.79
32.25
29.43
24.86
19.41
14.17
10.25
8.37
8.63
10.29
11.99
12.19
9.72
4.21
-3.77
-13.03
-22.12
-29.87
-35.61
-39.26
-41.22
-42.15
-42.73
-43.45
-44.52
-45.80
-46.94
-47.47
-47.01
-45.36
-42.59
-39.02
-35.12
-31.33
-27.91
-24.85
-21.91
-18.74
-15.12
-11.06
-6.80
-2.64
1.21
4.77
8.22
11.71
15.16
18.24
20.46
21.42
20.96
19.25
16.74
14.02
11.61
9.74
8.18
6.35
3.45
-1.11
-7.36
-14.70
-21.95
-27.78
-31.04
-31.04
-27.54
-20.63
-10.67
1.66
15.28
28.80
40.70
49.69
54.95
56.12
53.17
46.27
35.74
22.17
6.53
-9.93
-25.85
-40.15
-52.16
-61.68
-68.79
-73.54
-75.78
-74.91
-70.01
-60.04
-44.39
-23.37
1.36
26.98
50.18
68.19
79.63
84.87
85.65
84.20
82.35
81.02
80.20
79.37
77.94
75.55
72.07
67.45
61.64
54.50
45.93
36.03
25.26
14.47
4.73
-2.94
-7.99
-10.50
-11.24
-11.43
-12.30
-14.66
-18.69
-23.96
-29.71
-35.20
-39.93
-43.62
-46.13
-47.32
-47.03
-45.21
-42.10
-38.29
-34.64
-31.97
-30.81
-31.19
-32.62
-34.24
-35.15
-34.69
-32.62
-29.14
-24.68
-19.70
-14.46
-8.97
-3.15
3.03
9.34
15.31
20.36
24.04
26.17
26.87
26.55
25.67
24.67
23.87
23.38
23.16
22.97
22.49
21.35
19.27
16.09
11.80
6.54
0.50
-6.05
-12.82
-19.52
-25.85
-31.60
-36.73
-41.36
-45.65
-49.66
-53.08
-55.27
-55.42
-52.85
-47.38
-39.46
-30.09
-20.43
-11.48
-3.84
2.33
7.14
10.77
13.41
15.24
16.46
17.38
18.30
19.42
20.78
22.23
23.58
24.65
25.35
25.73
25.86
25.82
25.62
25.20
24.49
23.41
21.94
20.11
18.08
16.01
14.03
12.17
10.27
8.09
5.42
2.20
-1.42
-5.15
-8.69
-11.90
-14.79
-17.57
-20.43
-23.55
-26.94
-30.54
-34.13
-37.39
-39.78
-40.68
-39.46
-35.76
-29.65
-21.70
-12.82
-4.04
3.80
10.28
15.30
19.02
21.64
23.28
24.00
23.88
23.10
21.97
20.92
20.30
20.31
20.90
21.82
22.79
23.52
23.88
23.81
23.30
22.31
20.80
18.79
16.42
13.92
11.51
9.33
7.29
5.17
2.70
-0.26
-3.66
-7.21
-10.56
-13.47
-15.89
-18.05
-20.35
-23.21
-26.87
-31.22
-35.74
-39.58
-41.81
-41.61
-38.59
-32.91
-25.23
-16.56
-7.97
-0.33
5.87
10.59
14.10
16.81
19.05
21.04
22.86
24.55
26.15
27.69
29.14
30.32
30.91
30.64
29.37
27.25
24.68
22.11
19.90
18.17
16.82
15.62
14.39
12.98
11.34
9.48
7.45
5.37
3.37
1.61
0.14
-1.07
-2.19
-3.44
-4.98
-6.90
-9.24
-12.00
-15.24
-18.96
-23.03
-27.06
-30.34
-32.01
-31.33
-27.95
-22.11
-14.59
-6.48
1.19
7.74
12.92
16.84
19.72
21.74
22.94
23.35
23.11
22.46
21.78
21.36
21.32
21.55
21.80
21.83
21.49
20.77
19.82
18.78
17.76
16.73
15.59
14.19
12.44
10.34
8.01
5.61
3.32
1.30
-0.36
-1.64
-2.55
-3.18
-3.73
-4.46
-5.63
-7.37
-9.57
-11.81
-13.50
-14.04
-13.04
-10.45
-6.58
-1.98
2.73
7.04
10.56
13.05
14.32
14.26
12.83
10.16
6.56
2.53
-1.40
-4.77
-7.30
-9.00
-10.04
-10.69
-11.16
-11.53
-11.78
-11.84
-11.72
-11.57
-11.61
-12.12
-13.30
-15.22
-17.89
-21.24
-25.16
-29.50
-33.98
-38.18
-41.70
-44.24
-45.77
-46.53
-46.86
-46.94
-46.59
-45.21
-41.97
-36.12
-27.26
-15.56
-1.74
13.00
27.18
39.33
48.21
53.15
54.19
52.12
48.28
44.14
40.90
39.18
38.91
39.49
40.12
40.12
39.17
37.34
34.97
32.45
30.00
27.64
25.18
22.39
19.10
15.27
10.97
6.36
1.71
-2.65
-6.27
-8.62
-9.29
-8.07
-5.14
-1.05
3.39
7.35
10.26
11.89
12.38
12.07
11.27
10.16
8.72
6.91
4.75
2.40
0.22
-1.46
-2.45
-2.82
-2.83
-2.88
-3.25
-4.07
-5.29
-6.74
-8.29
-9.88
-11.50
-13.17
-14.81
-16.33
-17.70
-19.04
-20.64
-22.81
-25.68
-28.97
-31.99
-33.85
-33.80
-31.51
-27.23
-21.60
-15.43
-9.44
-4.05
0.51
4.21
7.07
9.14
10.51
11.28
11.61
11.65
11.52
11.29
10.97
10.54
9.96
9.22
8.36
7.45
6.56
5.67
4.68
3.40
1.70
-0.49
-3.05
-5.76
-8.36
-10.63
-12.49
-14.03
-15.50
-17.16
-19.17
-21.46
-23.68
-25.28
-25.65
-24.43
-21.59
-17.46
-12.58
-7.48
-2.51
2.14
6.35
9.96
12.72
14.44
15.05
14.76
14.00
13.29
13.04
13.44
14.46
15.86
17.37
18.74
19.68
19.95
19.34
17.77
15.32
12.24
8.86
5.50
2.36
-0.48
-2.99
-5.16
-6.91
-8.14
-8.81
-8.96
-8.81
-8.67
-8.90
-9.83
-11.67
-14.39
-17.70
-21.05
-23.74
-25.05
-24.54
-22.17
-18.27
-13.51
-8.66
-4.32
-0.82
1.81
3.78
5.39
6.85
8.24
9.54
10.71
11.78
12.91
14.25
15.88
17.69
19.39
20.61
21.10
20.82
19.95
18.82
17.71
16.77
15.94
15.06
13.94
12.45
10.59
8.41
5.97
3.31
0.43
-2.63
-5.75
-8.70
-11.18
-13.01
-14.21
-15.06
-16.04
-17.65
-20.17
-23.52
-27.21
-30.48
-32.52
-32.75
-31.01
-27.52
-22.87
-17.69
-12.50
-7.59
-3.05
1.12
4.84
7.92
10.11
11.24
11.33
10.65
9.63
8.73
8.35
8.69
9.75
11.35
13.22
15.05
16.58
17.64
18.12
18.00
17.28
16.06
14.45
12.59
10.71
8.99
7.60
6.60
5.90
5.30
4.56
3.50
2.06
0.37
-1.40
-3.04
-4.45
-5.67
-6.87
-8.27
-10.11
-12.57
-15.67
-19.21
-22.69
-25.43
-26.71
-26.04
-23.36
-19.05
-13.85
-8.55
-3.81
0.03
2.88
4.81
5.93
6.36
6.23
5.79
5.38
5.39
6.07
7.53
9.58
11.88
13.98
15.52
16.30
16.29
15.65
14.60
13.32
11.98
10.65
9.39
8.20
7.09
6.07
5.17
4.47
4.11
4.21
4.85
5.94
7.23
8.31
8.81
8.48
7.37
5.79
4.16
2.74
1.55
0.33
-1.30
-3.66
-6.82
-10.58
-14.49
-17.94
-20.24
-20.80
-19.19
-15.36
-9.69
-3.00
3.68
9.34
13.30
15.27
15.34
13.83
11.09
7.47
3.33
-0.87
-4.55
-7.12
-8.16
-7.68
-6.17
-4.53
-3.66
-4.14
-5.96
-8.54
-10.97
-12.28
-11.70
-8.84
-3.69
3.32
11.36
19.30
25.96
30.40
32.18
31.41
28.64
24.53
19.64
14.28
8.64
2.94
-2.55
-7.53
-11.78
-15.30
-18.26
-20.92
-23.50
-26.09
-28.56
-30.68
-32.14
-32.75
-32.39
-31.05
-28.78
-25.62
-21.61
-16.89
-11.76
-6.68
-2.23
1.13
3.11
3.76
3.37
2.33
0.96
-0.50
-1.86
-2.97
-3.60
-3.61
-2.95
-1.79
-0.43
0.77
1.56
1.86
1.74
1.36
0.86
0.34
-0.16
-0.69
-1.29
-2.03
-2.91
-3.85
-4.71
-5.35
-5.73
-5.98
-6.35
-7.08
-8.23
-9.65
-10.97
-11.81
-12.04
-11.78
-11.42
-11.39
-11.93
-13.09
-14.73
-16.70
-18.86
-21.12
-23.23
-24.74
-25.00
-23.52
-20.14
-15.27
-9.75
-4.50
-0.18
2.99
5.20
6.79
7.98
8.80
9.16
8.99
8.39
7.61
6.96
6.62
6.64
6.91
7.28
7.65
7.98
8.26
8.49
8.64
8.61
8.34
7.76
6.88
5.70
4.31
2.83
1.46
0.35
-0.48
-1.19
-2.04
-3.29
-5.04
-7.15
-9.30
-11.17
-12.59
-13.62
-14.49
-15.52
-16.92
-18.82
-21.29
-24.32
-27.80
-31.41
-34.57
-36.53
-36.59
-34.27
-29.65
-23.33
-16.32
-9.73
-4.40
-0.69
1.55
2.86
3.82
4.86
6.10
7.36
8.38
8.96
9.11
9.05
9.10
9.49
10.24
11.18
12.06
12.72
13.24
13.84
14.74
15.89
16.98
17.52
17.10
15.65
13.47
11.09
8.94
7.19
5.73
4.23
2.43
0.22
-2.34
-5.15
-8.06
-11.03
-14.00
-16.95
-19.81
-22.56
-25.22
-27.91
-30.81
-34.08
-37.79
-41.79
-45.67
-48.79
-50.41
-49.86
-46.75
-41.17
-33.64
-25.02
-16.28
-8.17
-1.09
4.93
10.06
14.48
18.23
21.18
23.26
24.52
25.28
25.99
27.04
28.57
30.40
32.15
33.44
34.11
34.23
34.03
33.72
33.35
32.78
31.79
30.23
28.10
25.63
23.10
20.75
18.65
16.73
14.88
13.00
11.09
9.18
7.20
5.03
2.41
-0.84
-4.72
-8.95
-13.09
-16.68
-19.51
-21.76
-23.91
-26.59
-30.29
-35.11
-40.63
-45.99
-50.09
-51.89
-50.70
-46.30
-39.02
-29.60
-19.07
-8.48
1.26
9.55
16.21
21.37
25.39
28.61
31.23
33.25
34.60
35.30
35.57
35.78
36.30
37.24
38.42
39.48
40.07
40.03
39.45
38.53
37.48
36.38
35.19
33.79
32.09
30.07
27.74
25.18
22.46
19.68
16.91
14.18
11.49
8.78
5.98
3.06
0.06
-2.94
-5.86
-8.62
-11.17
-13.49
-15.62
-17.71
-20.05
-23.01
-26.94
-31.85
-37.37
-42.64
-46.51
-47.86
-45.92
-40.58
-32.37
-22.34
-11.74
-1.68
7.08
14.24
19.86
24.17
27.46
29.89
31.57
32.60
33.10
33.30
33.47
33.84
34.53
35.50
36.59
37.57
38.28
38.66
38.80
38.84
38.89
38.91
38.67
37.87
36.21
33.60
30.20
26.37
22.53
19.04
16.11
13.78
11.94
10.30
8.39
5.64
1.52
-4.30
-11.71
-20.21
-28.97
-37.18
-44.29
-50.17
-55.12
-59.72
-64.47
-69.62
-74.91
-79.60
-82.58
-82.73
-79.24
-71.93
-61.38
-48.69
-35.21
-22.12
-10.17
0.35
9.42
17.07
23.24
27.83
30.87
32.62
33.59
34.35
35.30
36.52
37.72
38.51
38.57
37.84
36.49
34.87
33.36
32.22
31.59
31.46
31.74
32.20
32.53
32.35
31.29
29.07
25.60
21.00
15.61
9.96
4.62
0.17
-2.97
-4.63
-4.88
-4.05
-2.59
-1.02
0.13
0.36
-0.81
-3.71
-8.37
-14.31
-20.53
-25.69
-28.45
-28.03
-24.40
-18.32
-10.97
-3.53
3.20
8.86
13.46
17.21
20.40
23.36
26.51
30.21
34.56
39.20
43.37
46.14
46.81
45.23
41.85
37.39
32.46
27.25
21.57
15.14
8.01
0.73
-5.77
-10.60
-13.31
-14.07
-13.55
-12.53
-11.61
-11.02
-10.69
-10.47
-10.26
-10.08
-10.00
-10.03
-10.14
-10.26
-10.40
-10.63
-11.04
-11.68
-12.47
-13.33
-14.19
-15.07
-16.16
-17.65
-19.75
-22.50
-25.75
-29.07
-31.88
-33.54
-33.50
-31.52
-27.67
-22.38
-16.31
-10.17
-4.58
-0.00
3.35
5.48
6.52
6.70
6.24
5.39
4.36
3.33
2.52
2.12
2.20
2.72
3.49
4.29
4.94
5.36
5.57
5.60
5.45
5.05
4.39
3.57
2.82
2.33
2.13
2.04
1.70
0.81
-0.65
-2.44
-4.12
-5.33
-5.93
-6.08
-6.12
-6.37
-7.13
-8.62
-11.05
-14.55
-18.91
-23.42
-26.81
-27.48
-24.15
-16.47
-5.31
7.36
19.21
28.31
33.75
35.73
35.14
33.04
30.27
27.30
24.37
21.69
19.41
17.54
15.82
13.74
10.81
6.81
1.98
-3.06
-7.59
-11.05
-13.30
-14.48
-14.92
-14.87
-14.43
-13.63
-12.59
-11.55
-10.86
-10.91
-11.89
-13.82
-16.53
-19.72
-23.04
-26.07
-28.41
-29.69
-29.77
-28.77
-27.09
-25.26
-23.70
-22.59
-21.81
-21.15
-20.39
-19.51
-18.63
-17.99
-17.79
-18.17
-19.12
-20.47
-21.78
-22.41
-21.68
-19.13
-14.77
-9.12
-3.05
2.55
7.09
10.40
12.63
14.06
14.90
15.18
14.93
14.22
13.25
12.33
11.74
11.63
11.92
12.41
12.82
12.92
12.63
12.04
11.26
10.44
9.63
8.79
7.84
6.71
5.37
3.90
2.37
0.86
-0.61
-2.08
-3.62
-5.28
-7.10
-9.03
-11.00
-12.89
-14.64
-16.32
-18.10
-20.25
-23.01
-26.40
-30.11
-33.46
-35.62
-35.82
-33.69
-29.37
-23.50
-16.98
-10.69
-5.25
-0.94
2.25
4.52
6.13
7.31
8.29
9.17
10.01
10.76
11.36
11.74
11.87
11.84
11.75
11.74
11.83
12.01
12.14
12.07
11.71
11.02
10.04
8.88
7.60
6.22
4.68
2.94
0.97
-1.20
-3.53
-5.98
-8.50
-11.01
-13.38
-15.45
-17.15
-18.60
-20.11
-22.09
-24.92
-28.70
-33.23
-37.90
-41.90
-44.36
-44.62
-42.37
-37.77
-31.44
-24.22
-17.00
-10.43
-4.86
-0.35
3.18
5.79
7.50
8.32
8.38
8.00
7.61
7.64
8.33
9.63
11.21
12.58
13.30
13.11
12.09
10.69
9.63
9.67
11.38
14.84
19.51
24.36
28.25
30.31
30.29
28.60
26.03
23.34
20.92
18.63
16.07
12.80
8.69
3.96
-0.86
-5.25
-8.87
-11.71
-14.07
-16.40
-19.18
-22.77
-27.33
-32.73
-38.47
-43.71
-47.39
-48.53
-46.51
-41.41
-33.98
-25.49
-17.28
-10.34
-5.02
-1.07
2.14
5.21
8.50
11.99
15.45
18.61
21.30
23.50
25.31
26.89
28.50
30.57
33.70
38.46
45.13
53.33
61.98
69.51
74.32
75.33
72.29
65.87
57.33
48.12
39.48
32.13
26.17
21.22
16.56
11.44
5.38
-1.68
-9.33
-16.89
-23.64
-29.07
-33.00
-35.57
-37.20
-38.48
-40.12
-42.82
-47.07
-52.78
-59.00
-63.88
-65.07
-60.58
-49.65
-33.30
-14.14
4.45
19.58
29.67
34.77
36.10
35.22
33.40
31.29
29.10
26.93
24.98
23.52
22.78
22.83
23.56
24.79
26.38
28.18
30.05
31.72
32.90
33.32
32.89
31.70
29.97
27.94
25.77
23.52
21.17
18.76
16.35
14.03
11.82
9.58
7.07
3.99
0.14
-4.37
-9.16
-13.64
-17.22
-19.62
-20.87
-21.40
-21.79
-22.61
-24.22
-26.84
-30.43
-34.74
-39.23
-43.06
-45.19
-44.66
-40.89
-33.94
-24.58
-14.02
-3.57
5.75
13.41
19.38
23.95
27.44
30.08
31.88
32.78
32.81
32.16
31.25
30.56
30.42
30.90
31.76
32.62
33.13
33.15
32.80
32.25
31.64
30.93
29.98
28.61
26.71
24.32
21.54
18.57
15.58
12.70
10.00
7.48
5.07
2.61
-0.06
-3.05
-6.34
-9.74
-12.98
-15.82
-18.18
-20.19
-22.16
-24.46
-27.44
-31.28
-35.89
-40.81
-45.20
-48.02
-48.29
-45.46
-39.67
-31.72
-22.80
-14.11
-6.49
-0.27
4.65
8.57
11.77
14.38
16.40
17.76
18.46
18.57
18.32
17.98
17.83
18.04
18.58
19.26
19.84
20.14
20.11
19.83
19.37
18.70
17.69
16.17
14.11
11.68
9.26
7.23
5.78
4.76
3.76
2.27
-0.02
-3.05
-6.43
-9.60
-12.08
-13.70
-14.67
-15.49
-16.76
-18.96
-22.34
-26.77
-31.73
-36.40
-39.74
-40.77
-38.85
-33.98
-26.84
-18.63
-10.67
-4.00
0.97
4.39
6.78
8.60
10.04
11.05
11.50
11.44
11.15
10.99
11.25
11.97
12.94
13.84
14.41
14.52
14.21
13.55
12.60
11.44
10.13
8.78
7.50
6.33
5.19
3.88
2.09
-0.47
-3.96
-8.31
-13.11
-17.68
-21.18
-22.90
-22.50
-20.15
-16.53
-12.60
-9.35
-7.57
-7.73
-9.94
-13.87
-18.83
-23.80
-27.61
-29.24
-28.13
-24.45
-19.03
-13.08
-7.80
-3.96
-1.77
-0.90
-0.70
-0.52
0.10
1.35
3.15
5.19
7.04
8.29
8.69
8.31
7.58
7.21
7.90
10.06
13.58
17.89
22.20
25.84
28.50
30.19
31.06
31.17
30.36
28.38
25.03
20.43
14.91
9.04
3.41
-1.54
-5.53
-8.45
-10.35
-11.41
-11.94
-12.33
-13.02
-14.50
-17.20
-21.36
-26.88
-33.16
-39.14
-43.45
-44.88
-42.83
-37.60
-30.36
-22.81
-16.64
-13.03
-12.38
-14.35
-17.96
-21.67
-23.49
-21.28
-13.30
0.90
19.96
40.72
59.21
71.99
77.55
76.73
72.07
66.51
62.01
58.95
56.47
53.32
48.75
42.77
35.98
28.98
22.05
15.16
8.15
1.04
-5.82
-11.89
-16.68
-20.03
-22.15
-23.63
-25.15
-27.23
-30.05
-33.36
-36.69
-39.61
-41.96
-43.90
-45.73
-47.56
-49.17
-49.98
-49.35
-46.91
-42.75
-37.37
-31.45
-25.57
-20.06
-15.04
-10.58
-6.79
-3.80
-1.64
-0.22
0.75
1.60
2.63
3.97
5.58
7.27
8.76
9.79
10.21
10.00
9.30
8.34
7.34
6.42
5.53
4.53
3.20
1.42
-0.79
-3.25
-5.74
-8.03
-10.05
-11.90
-13.84
-16.29
-19.61
-24.02
-29.39
-35.17
-40.42
-44.02
-45.06
-43.12
-38.54
-32.24
-25.50
-19.44
-14.76
-11.56
-9.51
-8.09
-6.81
-5.37
-3.67
-1.74
0.29
2.20
3.62
4.19
3.65
2.08
0.04
-1.58
-1.87
-0.23
3.25
7.87
12.51
16.11
17.99
17.97
16.30
13.46
10.00
6.42
3.10
0.25
-2.15
-4.38
-6.79
-9.60
-12.73
-15.75
-18.09
-19.22
-18.94
-17.34
-14.80
-11.90
-9.33
-7.76
-7.58
-8.65
-10.01
-9.98
-6.66
1.25
13.67
28.94
44.36
57.11
65.24
68.24
66.86
62.52
56.58
49.94
43.03
36.15
29.68
24.12
19.91
17.08
15.19
13.44
11.08
7.65
3.21
-1.84
-6.90
-11.53
-15.57
-19.10
-22.38
-25.70
-29.27
-33.12
-37.02
-40.50
-42.88
-43.46
-41.79
-37.86
-32.14
-25.50
-18.82
-12.82
-7.91
-4.19
-1.66
-0.25
0.18
0.03
0.04
1.27
4.73
10.95
19.76
30.16
40.67
49.73
56.15
59.28
59.11
56.08
50.92
44.46
37.46
30.51
23.96
17.91
12.27
6.89
1.63
-3.65
-9.05
-14.68
-20.57
-26.52
-31.98
-36.12
-38.07
-37.21
-33.53
-27.59
-20.40
-13.01
-6.19
-0.28
4.74
9.01
12.60
15.38
17.16
17.79
17.32
16.02
14.28
12.51
10.99
9.83
9.05
8.60
8.38
8.31
8.23
7.96
7.30
6.03
4.06
1.44
-1.64
-4.90
-8.06
-10.98
-13.70
-16.38
-19.25
-22.49
-26.05
-29.61
-32.55
-34.11
-33.60
-30.67
-25.45
-18.52
-10.79
-3.14
3.77
9.59
14.25
17.82
20.35
21.88
22.40
22.02
20.95
19.52
18.06
16.86
16.07
15.70
15.60
15.51
15.19
14.47
13.30
11.79
10.05
8.14
5.99
3.50
0.60
-2.60
-5.83
-8.84
-11.50
-13.92
-16.42
-19.23
-22.27
-24.99
-26.55
-26.10
-23.21
-18.04
-11.32
-4.03
2.94
9.05
14.13
18.26
21.56
24.04
25.64
26.30
26.13
25.40
24.48
23.69
23.11
22.62
22.01
21.11
19.92
18.59
17.25
15.88
14.19
11.83
8.50
4.17
-0.88
-6.16
-11.21
-15.70
-19.57
-23.00
-26.30
-29.92
-34.23
-39.45
-45.36
-51.17
-55.64
-57.32
-55.08
-48.59
-38.50
-26.32
-13.90
-2.78
6.12
12.67
17.28
20.54
22.90
24.61
25.77
26.45
26.79
26.98
27.20
27.50
27.85
28.11
28.13
27.81
27.12
26.15
24.98
23.71
22.34
20.83
19.09
17.10
14.90
12.59
10.24
7.79
5.03
1.71
-2.21
-6.39
-10.10
-12.39
-12.46
-10.05
-5.52
0.27
6.28
11.58
15.64
18.30
19.69
20.06
19.69
18.81
17.65
16.39
15.20
14.18
13.39
12.81
12.36
11.90
11.24
10.14
8.38
5.81
2.45
-1.53
-5.77
-9.89
-13.53
-16.52
-18.88
-20.79
-22.56
-24.44
-26.60
-28.96
-31.20
-32.70
-32.76
-30.78
-26.49
-20.21
-12.77
-5.28
1.21
6.13
9.42
11.50
12.91
14.05
15.00
15.66
15.87
15.62
15.11
14.71
14.79
15.52
16.80
18.27
19.46
19.99
19.71
18.70
17.18
15.41
13.55
11.63
9.65
7.59
5.40
2.89
-0.35
-4.92
-11.37
-19.84
-29.80
-39.95
-48.60
-54.11
-55.53
-52.88
-47.07
-39.54
-31.70
-24.48
-18.21
-12.80
-8.00
-3.74
-0.16
2.49
4.03
4.47
3.98
2.83
1.20
-0.83
-3.25
-5.94
-8.62
-10.80
-12.03
-12.09
-11.19
-9.88
-8.85
-8.55
-9.01
-9.90
-10.79
-11.53
-12.36
-13.73
-15.90
-18.56
-20.86
-21.67
-20.18
-16.26
-10.55
-4.10
2.03
7.19
11.19
14.19
16.43
18.08
19.16
19.56
19.19
17.99
16.05
13.59
10.94
8.51
6.64
5.61
5.54
6.37
7.89
9.71
11.33
12.26
12.21
11.17
9.47
7.51
5.60
3.77
1.82
-0.47
-3.05
-5.47
-6.92
-6.41
-3.18
3.11
12.16
23.09
34.69
45.60
54.64
60.93
64.02
63.81
60.51
54.59
46.61
37.16
26.75
15.75
4.44
-6.87
-17.68
-27.34
-35.11
-40.56
-43.67
-44.91
-45.03
-44.70
-44.31
-43.91
-43.30
-42.29
-40.79
-38.87
-36.70
-34.51
-32.50
-30.79
-29.38
-28.13
-26.82
-25.27
-23.42
-21.43
-19.61
-18.22
-17.38
-16.99
-16.87
-16.81
-16.75
-16.71
-16.70
-16.77
-16.89
-17.09
-17.50
-18.35
-19.82
-21.82
-23.83
-24.94
-24.00
-20.08
-12.85
-2.85
8.58
19.69
28.74
34.56
36.72
35.54
31.83
26.55
20.54
14.47
8.85
4.13
0.72
-1.14
-1.46
-0.69
0.42
1.05
0.66
-0.78
-2.80
-4.62
-5.62
-5.54
-4.62
-3.31
-2.11
-1.21
-0.54
0.19
1.20
2.51
3.90
4.96
5.36
4.87
3.58
1.75
-0.26
-2.06
-3.41
-4.19
-4.44
-4.40
-4.47
-5.14
-6.81
-9.70
-13.69
-18.30
-22.75
-26.13
-27.56
-26.55
-23.04
-17.46
-10.63
-3.49
3.11
8.58
12.68
15.46
17.12
17.89
17.97
17.48
16.57
15.41
14.26
13.37
12.91
12.93
13.21
13.37
13.02
11.93
10.12
7.88
5.56
3.43
1.53
-0.25
-2.12
-4.26
-6.72
-9.57
-12.87
-16.68
-20.99
-25.48
-29.50
-32.10
-32.38
-29.84
-24.58
-17.36
-9.28
-1.44
5.39
10.91
15.16
18.35
20.65
22.14
22.87
22.93
22.55
21.96
21.30
20.56
19.62
18.34
16.72
14.96
13.42
12.35
11.86
11.71
11.52
10.87
9.46
7.20
4.14
0.42
-3.79
-8.33
-13.00
-17.61
-22.05
-26.30
-30.38
-34.21
-37.49
-39.64
-39.98
-37.94
-33.36
-26.65
-18.64
-10.33
-2.50
4.38
10.21
15.04
18.89
21.72
23.44
24.06
23.80
23.00
22.06
21.29
20.80
20.55
20.40
20.21
19.87
19.32
18.52
17.45
16.10
14.45
12.51
10.31
7.90
5.33
2.64
-0.17
-3.15
-6.41
-10.07
-14.16
-18.58
-22.97
-26.66
-28.83
-28.71
-25.84
-20.34
-12.86
-4.43
3.87
11.22
17.21
21.83
25.25
27.62
29.05
29.59
29.38
28.66
27.76
26.98
26.40
25.95
25.39
24.58
23.50
22.29
21.10
20.00
18.84
17.30
15.08
12.08
8.47
4.67
1.10
-2.03
-4.85
-7.79
-11.34
-15.83
-21.18
-26.92
-32.28
-36.34
-38.29
-37.58
-34.13
-28.35
-21.14
-13.71
-7.15
-2.12
1.34
3.72
5.70
7.74
9.80
11.37
11.80
10.68
8.10
4.65
1.13
-1.84
-3.96
-5.32
-6.14
-6.49
-6.24
-5.12
-2.96
0.05
3.35
6.13
7.69
7.73
6.47
4.52
2.57
1.08
0.16
-0.49
-1.31
-2.75
-5.09
-8.38
-12.42
-16.78
-20.80
-23.73
-24.88
-23.83
-20.58
-15.56
-9.47
-3.02
3.40
9.77
16.40
23.64
31.62
40.03
48.19
55.25
60.51
63.63
64.56
63.50
60.71
56.42
50.94
44.76
38.53
32.97
28.61
25.57
23.51
21.81
19.77
16.90
13.03
8.29
3.01
-2.42
-7.60
-12.20
-16.01
-18.95
-21.09
-22.60
-23.76
-24.92
-26.39
-28.33
-30.66
-32.87
-34.09
-33.31
-29.72
-23.08
-13.83
-3.04
7.99
18.14
26.72
33.58
38.92
43.10
46.37
48.83
50.40
50.90
50.16
48.15
45.01
41.08
36.77
32.44
28.36
24.66
21.35
18.39
15.64
12.90
9.86
6.23
1.82
-3.29
-8.81
-14.26
-19.23
-23.45
-26.84
-29.44
-31.31
-32.48
-33.02
-33.06
-32.91
-32.94
-33.56
-35.03
-37.29
-39.89
-42.07
-42.94
-41.77
-38.30
-32.78
-25.95
-18.73
-11.93
-6.04
-1.25
2.47
5.23
7.11
8.24
8.77
8.93
8.93
8.93
8.98
9.09
9.24
9.39
9.49
9.47
9.26
8.84
8.27
7.67
7.10
6.53
5.83
4.79
3.26
1.24
-1.09
-3.41
-5.38
-6.77
-7.54
-7.93
-8.33
-9.20
-10.89
-13.46
-16.62
-19.78
-22.20
-23.22
-22.46
-19.94
-16.06
-11.54
-7.17
-3.63
-1.36
-0.48
-0.82
-2.06
-3.77
-5.52
-6.92
-7.71
-7.75
-7.11
-5.98
-4.65
-3.39
-2.42
-1.82
-1.55
-1.49
-1.46
-1.30
-0.87
-0.17
0.67
1.42
1.83
1.78
1.34
0.71
0.14
-0.29
-0.66
-1.21
-2.21
-3.85
-6.19
-9.11
-12.30
-15.26
-17.40
-18.16
-17.17
-14.45
-10.35
-5.55
-0.78
3.39
6.67
9.06
10.70
11.77
12.35
12.49
12.27
11.79
11.26
10.84
10.57
10.38
10.07
9.45
8.48
7.19
5.71
4.19
2.67
1.15
-0.41
-2.02
-3.66
-5.34
-7.09
-8.98
-11.06
-13.35
-15.77
-18.23
-20.56
-22.55
-23.95
-24.51
-24.06
-22.57
-20.15
-16.99
-13.32
-9.36
-5.36
-1.58
1.69
4.20
5.83
6.60
6.66
6.21
5.43
4.45
3.38
2.38
1.61
1.23
1.29
1.72
2.35
3.04
3.68
4.26
4.80
5.28
5.59
5.59
5.10
4.03
2.42
0.41
-1.76
-3.85
-5.63
-6.98
-7.89
-8.53
-9.26
-10.59
-12.96
-16.53
-20.91
-25.21
-28.18
-28.73
-26.45
-21.86
-16.41
-11.91
-9.82
-10.66
-13.82
-17.89
-21.28
-22.87
-22.29
-19.78
-15.92
-11.24
-6.13
-0.96
3.82
7.71
10.24
11.27
10.99
9.90
8.48
7.03
5.52
3.76
1.59
-0.91
-3.42
-5.49
-6.75
-7.05
-6.44
-5.20
-3.76
-2.52
-1.82
-1.78
-2.24
-2.83
-3.02
-2.45
-1.01
1.05
3.25
5.12
6.37
7.03
7.29
7.39
7.42
7.31
6.88
5.99
4.67
3.16
1.84
1.10
1.14
1.88
2.97
3.90
4.24
3.73
2.36
0.31
-2.25
-5.17
-8.36
-11.79
-15.39
-19.09
-22.85
-26.69
-30.73
-35.05
-39.51
-43.61
-46.49
-47.09
-44.52
-38.38
-28.93
-17.00
-3.72
9.83
22.76
34.49
44.59
52.71
58.58
62.04
63.17
62.24
59.63
55.65
50.47
44.09
36.66
28.55
20.47
13.28
7.67
3.88
1.57
-0.02
-1.76
-4.27
-7.76
-12.07
-16.91
-22.05
-27.33
-32.59
-37.45
-41.26
-43.26
-42.78
-39.56
-33.85
-26.42
-18.33
-10.72
-4.51
-0.24
1.99
2.51
1.94
1.11
0.85
1.82
4.36
8.51
14.00
20.38
27.06
33.37
38.55
41.91
42.92
41.40
37.62
32.25
26.16
20.19
14.92
10.65
7.39
5.06
3.46
2.38
1.61
1.01
0.56
0.39
0.68
1.59
3.13
5.24
7.82
10.90
14.51
18.58
22.76
26.38
28.62
28.79
26.70
22.82
18.10
13.69
10.53
9.05
9.15
10.30
11.81
13.10
13.81
13.81
13.14
11.95
10.41
8.73
7.08
5.50
3.83
1.70
-1.34
-5.50
-10.61
-15.90
-20.29
-22.64
-22.24
-18.99
-13.43
-6.53
0.70
7.40
13.04
17.33
20.18
21.57
21.56
20.32
18.18
15.60
13.10
11.05
9.57
8.45
7.30
5.69
3.40
0.55
-2.50
-5.26
-7.38
-8.74
-9.54
-10.23
-11.30
-13.19
-16.10
-19.97
-24.45
-28.97
-32.80
-35.17
-35.46
-33.33
-28.88
-22.67
-15.57
-8.50
-2.22
2.90
6.87
9.93
12.28
14.02
15.09
15.42
15.08
14.37
13.69
13.42
13.74
14.55
15.57
16.41
16.77
16.45
15.45
13.84
11.76
9.40
6.91
4.38
1.81
-0.93
-4.04
-7.71
-11.98
-16.66
-21.27
-25.13
-27.45
-27.57
-25.16
-20.29
-13.56
-5.83
1.88
8.71
14.10
17.92
20.29
21.51
21.93
21.80
21.33
20.65
19.88
19.13
18.46
17.84
17.22
16.48
15.55
14.38
13.01
11.46
9.77
7.90
5.86
3.62
1.30
-0.94
-2.95
-4.61
-6.00
-7.37
-9.12
-11.66
-15.19
-19.61
-24.38
-28.68
-31.53
-32.17
-30.24
-25.97
-20.03
-13.33
-6.78
-1.03
3.53
6.85
9.05
10.38
11.10
11.42
11.53
11.54
11.54
11.60
11.76
12.05
12.43
12.76
12.86
12.59
11.86
10.75
9.41
7.99
6.60
5.25
3.91
2.57
1.27
0.07
-1.03
-2.08
-3.23
-4.59
-6.20
-8.03
-9.91
-11.75
-13.52
-15.31
-17.30
-19.59
-22.11
-24.54
-26.37
-27.05
-26.22
-23.74
-19.87
-15.08
-9.94
-4.98
-0.58
3.09
6.00
8.27
10.01
11.36
12.40
13.16
13.64
13.83
13.74
13.40
12.85
12.17
11.48
10.91
10.59
10.53
10.63
10.70
10.47
9.75
8.48
6.73
4.70
2.67
0.85
-0.61
-1.68
-2.47
-3.20
-4.11
-5.37
-7.04
-9.05
-11.20
-13.26
-15.04
-16.51
-17.77
-19.13
-20.90
-23.25
-26.04
-28.70
-30.40
-30.33
-28.06
-23.77
-18.20
-12.33
-7.04
-2.81
0.32
2.55
4.14
5.24
5.90
6.18
6.25
6.32
6.58
7.08
7.73
8.33
8.68
8.64
8.21
7.54
6.86
6.43
6.38
6.67
7.08
7.24
6.87
5.84
4.31
2.63
1.16
0.11
-0.53
-1.02
-1.63
-2.51
-3.69
-5.04
-6.44
-7.82
-9.18
-10.56
-11.90
-13.15
-14.25
-15.27
-16.45
-18.09
-20.35
-23.06
-25.63
-27.24
-27.13
-24.90
-20.75
-15.34
-9.57
-4.31
-0.07
2.97
4.98
6.26
7.12
7.76
8.27
8.61
8.69
8.50
8.05
7.49
6.99
6.69
6.68
6.90
7.23
7.53
7.72
7.79
7.80
7.85
8.02
8.27
8.55
8.71
8.59
8.11
7.26
6.12
4.77
3.28
1.68
-0.00
-1.70
-3.33
-4.79
-6.04
-7.14
-8.22
-9.39
-10.71
-12.15
-13.67
-15.25
-16.95
-18.87
-21.07
-23.39
-25.40
-26.49
-26.06
-23.79
-19.77
-14.49
-8.74
-3.26
1.42
5.10
7.79
9.62
10.65
10.87
10.31
9.15
7.76
6.59
5.97
6.01
6.55
7.27
7.93
8.46
8.90
9.33
9.72
9.94
9.94
9.84
10.02
10.90
12.68
15.28
18.26
21.15
23.60
25.56
27.14
28.38
29.09
28.80
26.96
23.14
17.31
9.83
1.41
-7.10
-14.95
-21.64
-27.05
-31.39
-35.14
-38.80
-42.76
-47.12
-51.57
-55.47
-58.00
-58.44
-56.43
-52.12
-46.12
-39.24
-32.34
-26.05
-20.77
-16.73
-14.12
-13.03
-13.42
-15.04
-17.38
-19.75
-21.46
-21.96
-21.02
-18.69
-15.32
-11.37
-7.33
-3.63
-0.52
1.84
3.40
4.11
3.86
2.56
0.16
-3.19
-7.13
-11.00
-13.82
-14.35
-11.35
-3.97
7.71
22.38
37.61
50.53
58.66
60.74
56.94
48.56
37.41
25.17
13.06
1.88
-7.89
-15.99
-22.44
-27.59
-32.05
-36.35
-40.60
-44.39
-46.89
-47.25
-44.99
-40.24
-33.59
-25.90
-17.91
-10.17
-3.02
3.30
8.57
12.60
15.32
16.94
17.93
18.92
20.48
22.89
26.03
29.45
32.60
35.03
36.52
37.05
36.74
35.64
33.80
31.24
28.12
24.70
21.33
18.25
15.47
12.81
9.96
6.67
2.90
-1.17
-5.21
-8.88
-11.99
-14.60
-16.96
-19.50
-22.63
-26.64
-31.57
-37.10
-42.58
-47.08
-49.60
-49.25
-45.57
-38.69
-29.41
-18.98
-8.74
0.28
7.67
13.57
18.38
22.35
25.45
27.41
28.01
27.42
26.21
25.14
24.83
25.45
26.71
28.06
28.97
29.15
28.61
27.56
26.24
24.85
23.46
22.00
20.34
18.31
15.80
12.86
9.65
6.41
3.30
0.40
-2.34
-5.11
-8.09
-11.50
-15.54
-20.34
-25.82
-31.51
-36.56
-39.79
-40.08
-36.77
-29.89
-20.33
-9.44
1.35
10.92
18.70
24.60
28.77
31.37
32.53
32.37
31.16
29.36
27.60
26.43
26.11
26.56
27.38
28.05
28.13
27.47
26.17
24.54
22.90
21.40
20.00
18.42
16.27
13.25
9.32
4.78
0.16
-3.95
-7.22
-9.72
-11.82
-14.09
-16.97
-20.69
-25.22
-30.32
-35.53
-40.11
-43.14
-43.62
-40.82
-34.59
-25.53
-14.86
-4.02
5.78
13.87
20.13
24.79
28.10
30.21
31.14
31.00
30.02
28.66
27.42
26.72
26.67
27.13
27.70
28.00
27.78
27.05
26.03
25.03
24.20
23.52
22.68
21.30
19.04
15.83
11.88
7.61
3.49
-0.15
-3.23
-5.87
-8.33
-10.91
-13.83
-17.21
-21.16
-25.68
-30.62
-35.52
-39.57
-41.72
-41.05
-37.06
-30.05
-20.97
-11.18
-1.90
6.12
12.71
18.05
22.42
25.93
28.51
30.07
30.64
30.42
29.76
29.00
28.36
27.92
27.67
27.54
27.44
27.29
27.01
26.59
26.05
25.43
24.75
23.94
22.87
21.42
19.51
17.24
14.78
12.36
10.08
7.93
5.80
3.61
1.39
-0.75
-2.66
-4.34
-6.02
-8.13
-11.09
-15.16
-20.23
-25.85
-31.34
-35.98
-39.28
-40.94
-40.96
-39.56
-37.08
-34.00
-30.71
-27.53
-24.53
-21.64
-18.67
-15.51
-12.24
-9.02
-6.08
-3.56
-1.45
0.36
1.99
3.52
4.98
6.33
7.52
8.42
8.94
8.98
8.55
7.76
6.83
5.94
5.22
4.65
4.06
3.25
2.05
0.29
-2.05
-4.93
-8.24
-11.80
-15.49
-19.23
-22.99
-26.72
-30.31
-33.51
-35.98
-37.33
-37.19
-35.25
-31.22
-25.00
-16.76
-6.98
3.51
13.77
22.91
30.39
35.93
39.48
41.03
40.54
38.06
33.90
28.78
23.74
19.98
18.49
19.78
23.77
29.83
36.91
43.82
49.47
53.08
54.26
53.01
49.61
44.52
38.30
31.47
24.60
18.19
12.65
8.16
4.64
1.70
-1.23
-4.68
-8.97
-14.05
-19.55
-24.85
-29.38
-32.70
-34.67
-35.42
-35.25
-34.54
-33.68
-32.95
-32.45
-32.11
-31.58
-30.47
-28.47
-25.59
-22.21
-18.94
-16.35
-14.66
-13.75
-13.17
-12.45
-11.37
-9.96
-8.45
-7.05
-5.86
-4.90
-4.17
-3.75
-3.76
-4.30
-5.37
-6.95
-9.04
-11.77
-15.23
-19.34
-23.65
-27.33
-29.45
-29.27
-26.61
-21.90
-15.97
-9.62
-3.34
2.74
8.70
14.57
20.13
24.92
28.48
30.51
31.00
30.06
27.77
24.05
18.74
11.80
3.58
-5.03
-12.78
-18.44
-21.22
-21.07
-18.67
-15.14
-11.55
-8.57
-6.37
-4.72
-3.37
-2.25
-1.51
-1.45
-2.20
-3.58
-5.11
-6.15
-6.17
-4.93
-2.49
0.85
4.66
8.54
12.06
14.83
16.46
16.76
15.81
14.10
12.34
11.26
11.32
12.57
14.73
17.48
20.59
24.00
27.61
31.10
33.87
35.18
34.43
31.40
26.28
19.50
11.57
3.03
-5.48
-13.18
-19.17
-22.69
-23.43
-21.66
-18.26
-14.44
-11.43
-10.14
-11.04
-14.09
-18.86
-24.59
-30.39
-35.37
-38.85
-40.47
-40.26
-38.56
-35.89
-32.73
-29.44
-26.16
-22.92
-19.73
-16.62
-13.73
-11.15
-8.87
-6.68
-4.18
-0.87
3.60
9.39
16.33
23.98
31.74
38.85
44.54
48.09
48.96
46.94
42.26
35.53
27.61
19.37
11.38
3.86
-3.36
-10.57
-17.98
-25.51
-32.76
-39.10
-43.88
-46.63
-47.18
-45.73
-42.79
-38.99
-34.95
-31.12
-27.79
-25.08
-23.01
-21.54
-20.54
-19.76
-18.86
-17.49
-15.46
-12.73
-9.53
-6.19
-3.07
-0.41
1.78
3.73
5.81
8.41
11.71
15.58
19.53
22.94
25.29
26.35
26.28
25.46
24.24
22.76
20.93
18.51
15.32
11.37
6.89
2.21
-2.38
-6.62
-10.33
-13.41
-15.91
-18.03
-20.19
-22.89
-26.49
-30.96
-35.71
-39.66
-41.59
-40.52
-36.07
-28.67
-19.38
-9.55
-0.54
6.69
11.58
14.06
14.40
13.16
11.02
8.70
6.88
5.99
6.19
7.27
8.77
10.07
10.59
10.01
8.37
6.11
3.96
2.64
2.60
3.81
5.70
7.43
8.24
7.71
5.97
3.50
0.95
-1.24
-2.99
-4.60
-6.53
-9.14
-12.48
-16.22
-19.75
-22.35
-23.48
-23.00
-21.26
-19.08
-17.45
-17.23
-18.85
-22.10
-26.15
-29.65
-31.14
-29.37
-23.75
-14.54
-2.88
9.50
20.75
29.45
34.94
37.38
37.53
36.24
34.20
31.76
29.08
26.33
23.82
21.88
20.69
20.15
19.90
19.56
18.94
18.11
17.27
16.54
15.87
15.02
13.85
12.41
10.96
9.82
9.12
8.67
8.06
6.87
4.90
2.24
-0.84
-3.95
-6.81
-9.28
-11.41
-13.43
-15.62
-18.29
-21.63
-25.58
-29.73
-33.36
-35.59
-35.61
-33.00
-27.82
-20.67
-12.43
-4.05
3.70
10.41
16.00
20.59
24.37
27.41
29.71
31.22
31.94
31.98
31.62
31.15
30.86
30.91
31.32
31.96
32.65
33.16
33.30
32.91
31.89
30.26
28.09
25.54
22.80
19.97
17.13
14.30
11.49
8.69
5.89
3.05
0.06
-3.16
-6.65
-10.40
-14.32
-18.35
-22.53
-26.93
-31.57
-36.23
-40.29
-42.85
-43.04
-40.31
-34.75
-27.10
-18.45
-9.88
-2.13
4.54
10.24
15.21
19.58
23.30
26.18
28.08
29.01
29.19
28.98
28.68
28.51
28.50
28.55
28.55
28.44
28.21
27.90
27.46
26.78
25.63
23.85
21.35
18.27
14.89
11.57
8.64
6.32
4.63
3.40
2.31
0.96
-0.96
-3.58
-6.79
-10.25
-13.58
-16.56
-19.22
-21.84
-24.83
-28.47
-32.71
-37.06
-40.68
-42.63
-42.15
-38.95
-33.28
-25.91
-17.81
-9.89
-2.73
3.48
8.81
13.43
17.38
20.63
23.06
24.67
25.59
26.05
26.24
26.30
26.24
26.00
25.54
24.89
24.13
23.38
22.74
22.26
21.92
21.58
21.02
19.98
18.31
15.99
13.20
10.27
7.56
5.26
3.38
1.67
-0.19
-2.43
-5.06
-7.80
-10.24
-12.04
-13.11
-13.71
-14.35
-15.56
-17.67
-20.74
-24.58
-28.91
-33.33
-37.41
-40.58
-42.19
-41.68
-38.82
-33.87
-27.54
-20.75
-14.30
-8.66
-3.90
0.08
3.40
6.10
8.11
9.36
9.93
10.04
9.97
10.02
10.37
11.07
12.05
13.14
14.20
15.06
15.62
15.80
15.55
14.84
13.72
12.32
10.82
9.39
8.09
6.87
5.54
3.99
2.20
0.32
-1.40
-2.77
-3.74
-4.43
-5.09
-6.03
-7.54
-9.85
-13.01
-16.80
-20.68
-23.83
-25.39
-24.68
-21.49
-16.18
-9.51
-2.40
4.36
10.21
14.89
18.34
20.63
21.91
22.35
22.19
21.64
20.83
19.81
18.54
16.98
15.11
12.94
10.49
7.81
4.99
2.21
-0.25
-2.06
-2.95
-2.82
-1.79
-0.20
1.52
2.99
4.05
4.77
5.36
5.98
6.45
6.20
4.41
0.39
-6.07
-14.48
-23.86
-33.11
-41.41
-48.46
-54.29
-58.92
-62.11
-63.39
-62.31
-58.86
-53.61
-47.53
-41.61
-36.41
-31.91
-27.62
-22.96
-17.58
-11.46
-4.85
1.96
8.75
15.35
21.51
26.87
31.01
33.69
34.95
35.12
34.54
33.40
31.65
29.15
25.93
22.29
18.73
15.59
12.84
10.02
6.58
2.22
-2.83
-7.82
-11.74
-13.77
-13.50
-11.16
-7.54
-3.73
-0.88
0.18
-0.81
-3.50
-7.01
-10.28
-12.37
-12.68
-11.00
-7.40
-2.12
4.49
11.92
19.51
26.49
32.15
36.08
38.18
38.71
38.09
36.74
34.94
32.76
30.16
27.01
23.27
18.94
14.18
9.22
4.37
-0.06
-3.80
-6.67
-8.69
-10.12
-11.46
-13.25
-15.86
-19.28
-23.10
-26.61
-29.13
-30.32
-30.32
-29.59
-28.68
-27.94
-27.52
-27.43
-27.79
-28.92
-31.15
-34.56
-38.72
-42.67
-45.24
-45.43
-42.85
-37.71
-30.70
-22.59
-14.03
-5.50
2.48
9.27
14.16
16.65
16.74
15.07
12.72
10.68
9.39
8.60
7.52
5.42
2.07
-1.96
-5.50
-7.20
-6.13
-2.09
4.40
12.27
20.40
27.78
33.76
37.93
40.08
40.06
37.87
33.63
27.62
20.34
12.37
4.37
-3.04
-9.33
-14.03
-16.87
-17.83
-17.17
-15.37
-12.98
-10.48
-8.18
-6.19
-4.57
-3.39
-2.81
-3.05
-4.19
-6.09
-8.31
-10.23
-11.26
-11.13
-10.00
-8.39
-6.95
-6.15
-6.08
-6.48
-6.88
-6.93
-6.60
-6.19
-6.14
-6.84
-8.46
-10.96
-14.20
-18.03
-22.32
-26.97
-31.79
-36.50
-40.69
-43.93
-45.75
-45.79
-43.85
-39.97
-34.45
-27.82
-20.75
-13.84
-7.52
-1.95
2.88
7.04
10.53
13.24
15.15
16.43
17.55
19.14
21.70
25.33
29.63
33.80
37.05
38.86
39.15
38.18
36.33
33.82
30.71
26.97
22.69
18.09
13.44
8.94
4.57
0.13
-4.55
-9.45
-14.26
-18.40
-21.15
-21.94
-20.51
-17.04
-12.09
-6.47
-0.98
3.75
7.38
9.79
11.04
11.21
10.41
8.77
6.56
4.17
2.03
0.46
-0.51
-1.18
-2.03
-3.45
-5.58
-8.17
-10.76
-12.88
-14.27
-15.01
-15.37
-15.70
-16.28
-17.26
-18.72
-20.72
-23.26
-26.15
-28.93
-30.85
-31.12
-29.15
-24.84
-18.64
-11.42
-4.10
2.53
8.08
12.41
15.57
17.61
18.55
18.43
17.38
15.63
13.56
11.56
10.03
9.25
9.31
10.09
11.31
12.60
13.69
14.42
14.76
14.68
14.08
12.79
10.70
7.83
4.43
0.82
-2.79
-6.35
-9.90
-13.27
-16.02
-17.39
-16.73
-13.78
-8.89
-2.88
3.32
9.02
13.98
18.25
21.90
24.81
26.72
27.37
26.77
25.23
23.29
21.44
19.96
18.91
18.14
17.42
16.58
15.49
14.09
12.34
10.25
7.78
4.88
1.50
-2.41
-6.74
-11.36
-16.04
-20.68
-25.21
-29.59
-33.57
-36.61
-37.96
-36.93
-33.25
-27.31
-20.01
-12.50
-5.72
-0.10
4.43
8.21
11.59
14.68
17.36
19.40
20.64
21.05
20.79
20.07
19.15
18.28
17.66
17.48
17.84
18.69
19.83
20.93
21.65
21.82
21.46
20.72
19.80
18.72
17.38
15.60
13.16
9.94
5.99
1.61
-2.66
-6.04
-7.75
-7.22
-4.36
0.40
6.21
12.11
17.36
21.61
24.86
27.24
28.89
29.86
30.20
30.02
29.57
29.10
28.83
28.80
28.89
28.86
28.48
27.54
26.00
23.89
21.37
18.58
15.66
12.71
9.78
6.98
4.46
2.46
1.15
0.57
0.57
0.82
0.98
0.77
-0.00
-1.54
-4.11
-7.92
-12.98
-18.80
-24.39
-28.51
-30.12
-28.89
-25.33
-20.61
-15.99
-12.27
-9.59
-7.51
-5.42
-2.89
0.08
3.17
5.96
8.17
9.72
10.73
11.38
11.79
12.00
11.96
11.58
10.83
9.74
8.39
6.89
5.37
3.87
2.42
0.97
-0.50
-2.03
-3.52
-4.89
-6.02
-6.92
-7.75
-8.86
-10.63
-13.34
-17.03
-21.46
-26.12
-30.52
-34.27
-37.18
-39.12
-39.83
-38.91
-35.87
-30.46
-22.90
-13.94
-4.65
3.89
10.89
16.02
19.21
20.62
20.50
19.28
17.70
16.72
17.34
20.23
25.35
31.91
38.59
43.98
47.14
47.77
46.27
43.38
39.83
36.07
32.17
28.05
23.67
19.19
14.98
11.38
8.57
6.38
4.36
1.96
-1.19
-5.11
-9.44
-13.54
-16.83
-19.04
-20.32
-21.10
-21.94
-23.21
-24.99
-27.12
-29.24
-30.93
-31.80
-31.46
-29.69
-26.50
-22.23
-17.53
-13.17
-9.83
-7.87
-7.28
-7.81
-9.09
-10.77
-12.47
-13.76
-14.22
-13.46
-11.38
-8.16
-4.29
-0.31
3.39
6.68
9.62
12.40
15.09
17.63
19.86
21.63
22.85
23.50
23.47
22.56
20.47
17.05
12.47
7.30
2.33
-1.75
-4.54
-6.01
-6.34
-5.69
-4.09
-1.50
1.93
5.64
8.69
10.02
8.86
5.09
-0.72
-7.54
-14.25
-20.00
-24.30
-26.99
-28.07
-27.56
-25.51
-22.06
-17.56
-12.55
-7.66
-3.43
-0.11
2.29
4.00
5.22
6.07
6.49
6.33
5.50
4.07
2.32
0.61
-0.69
-1.37
-1.43
-1.06
-0.48
0.09
0.49
0.64
0.44
-0.19
-1.35
-3.05
-5.29
-7.98
-11.07
-14.52
-18.32
-22.47
-26.84
-31.14
-34.87
-37.47
-38.47
-37.73
-35.54
-32.59
-29.78
-27.89
-27.34
-28.01
-29.33
-30.44
-30.49
-28.84
-25.24
-19.90
-13.38
-6.47
0.05
5.52
9.61
12.30
13.78
14.36
14.30
13.79
12.94
11.84
10.58
9.29
8.11
7.09
6.22
5.39
4.52
3.58
2.67
1.98
1.68
1.78
2.19
2.81
3.69
5.07
7.29
10.59
14.88
19.74
24.53
28.69
31.84
33.90
34.95
35.10
34.44
33.04
31.01
28.47
25.48
21.96
17.59
11.99
4.85
-3.79
-13.41
-23.07
-31.61
-38.03
-41.70
-42.65
-41.37
-38.69
-35.35
-31.83
-28.24
-24.48
-20.49
-16.43
-12.73
-9.83
-7.97
-6.95
-6.19
-4.96
-2.75
0.42
4.03
7.24
9.26
9.71
8.76
7.02
5.22
3.87
3.10
2.63
1.97
0.72
-1.18
-3.44
-5.51
-6.86
-7.26
-6.82
-6.03
-5.48
-5.70
-7.02
-9.48
-12.90
-16.92
-21.11
-25.01
-28.12
-30.00
-30.21
-28.44
-24.62
-18.95
-12.01
-4.65
2.25
7.97
12.14
14.78
16.14
16.51
16.08
14.98
13.29
11.20
8.99
6.93
5.23
3.95
3.01
2.27
1.60
0.86
-0.08
-1.33
-2.95
-4.85
-6.78
-8.48
-9.78
-10.79
-11.92
-13.68
-16.45
-20.23
-24.71
-29.33
-33.68
-37.56
-41.12
-44.63
-48.30
-52.13
-55.92
-59.24
-61.58
-62.29
-60.75
-56.47
-49.37
-39.87
-28.87
-17.56
-6.98
2.21
9.81
15.87
20.39
23.12
23.67
21.73
17.46
11.59
5.38
0.26
-2.52
-2.25
1.19
7.30
15.13
23.40
30.69
35.59
37.00
34.37
27.94
18.68
8.01
-2.63
-12.33
-20.76
-28.03
-34.32
-39.37
-42.43
-42.49
-38.82
-31.33
-20.83
-8.70
3.54
14.71
24.22
32.02
38.31
43.28
46.95
49.15
49.69
48.59
46.07
42.56
38.54
34.45
30.56
27.07
24.06
21.52
19.34
17.31
15.21
12.90
10.32
7.49
4.37
0.81
-3.31
-7.93
-12.69
-17.05
-20.58
-23.20
-25.28
-27.26
-29.14
-30.31
-29.64
-26.14
-19.49
-10.38
-0.15
9.91
19.13
27.63
36.02
44.66
53.24
60.77
65.97
67.94
66.56
62.54
57.07
51.37
46.27
42.13
38.88
36.31
34.14
32.13
30.06
27.68
24.83
21.54
18.08
14.95
12.66
11.52
11.43
11.93
12.36
12.10
10.79
8.52
5.81
3.55
2.81
4.56
9.32
16.89
26.20
35.62
43.39
48.18
49.42
47.35
42.68
36.25
28.77
20.71
12.41
4.13
-3.87
-11.40
-18.37
-24.66
-30.14
-34.59
-37.71
-39.31
-39.39
-38.23
-36.30
-34.16
-32.28
-30.91
-30.14
-29.85
-29.87
-30.05
-30.37
-30.86
-31.64
-32.79
-34.38
-36.46
-39.03
-41.99
-45.00
-47.35
-48.12
-46.33
-41.40
-33.43
-23.19
-11.93
-0.90
8.99
17.39
24.31
29.90
34.22
37.25
38.97
39.52
39.19
38.41
37.55
36.80
36.13
35.32
34.07
32.15
29.52
26.39
23.17
20.30
18.07
16.56
15.58
14.85
14.13
13.33
12.42
11.39
10.10
8.35
5.99
2.99
-0.54
-4.40
-8.51
-12.96
-17.95
-23.55
-29.47
-34.93
-38.80
-39.95
-37.68
-31.99
-23.62
-13.78
-3.79
5.25
12.71
18.33
22.20
24.58
25.76
26.04
25.64
24.77
23.60
22.31
21.09
20.15
19.58
19.34
19.28
19.16
18.83
18.28
17.65
17.10
16.70
16.35
15.78
14.64
12.66
9.76
6.09
2.06
-1.90
-5.39
-8.18
-10.28
-11.90
-13.33
-14.88
-16.79
-19.22
-22.24
-25.80
-29.56
-32.91
-34.98
-34.92
-32.18
-26.82
-19.55
-11.47
-3.78
2.67
7.47
10.63
12.41
13.12
13.09
12.59
11.87
11.02
10.03
8.79
7.21
5.36
3.44
1.79
0.70
0.29
0.52
1.24
2.22
3.28
4.23
4.87
5.02
4.61
3.64
2.28
0.75
-0.73
-2.05
-3.22
-4.30
-5.37
-6.50
-7.66
-8.80
-9.92
-11.03
-12.28
-13.81
-15.65
-17.61
-19.19
-19.76
-18.72
-15.79
-11.14
-5.41
0.54
5.96
10.35
13.57
15.75
17.12
17.85
18.01
17.66
16.85
15.68
14.32
12.91
11.53
10.17
8.74
7.16
5.42
3.58
1.82
0.25
-1.02
-2.05
-2.99
-4.04
-5.33
-6.94
-8.82
-10.85
-12.86
-14.69
-16.25
-17.52
-18.55
-19.43
-20.27
-21.22
-22.43
-24.01
-25.92
-27.90
-29.40
-29.69
-28.11
-24.34
-18.59
-11.62
-4.39
2.16
7.49
11.46
14.19
15.85
16.52
16.19
14.94
13.02
10.87
8.96
7.61
6.87
6.53
6.27
5.88
5.32
4.75
4.37
4.30
4.48
4.67
4.57
3.94
2.66
0.76
-1.58
-4.13
-6.65
-8.93
-10.79
-12.06
-12.70
-12.80
-12.65
-12.75
-13.62
-15.56
-18.49
-21.88
-24.86
-26.60
-26.55
-24.65
-21.31
-17.14
-12.76
-8.55
-4.67
-1.18
1.89
4.41
6.16
6.97
6.80
5.82
4.39
2.91
1.77
1.20
1.21
1.65
2.31
3.04
3.75
4.42
5.01
5.37
5.30
4.54
2.96
0.61
-2.29
-5.43
-8.44
-11.05
-13.03
-14.30
-14.90
-15.02
-14.95
-15.08
-15.78
-17.34
-19.83
-23.05
-26.48
-29.40
-30.98
-30.62
-28.08
-23.60
-17.81
-11.48
-5.31
0.26
5.02
8.89
11.77
13.50
13.97
13.25
11.67
9.81
8.25
7.37
7.24
7.59
8.03
8.19
7.87
7.11
6.10
5.01
3.95
2.90
1.77
0.45
-1.11
-2.89
-4.83
-6.80
-8.66
-10.33
-11.84
-13.33
-15.12
-17.52
-20.80
-25.01
-29.92
-34.97
-39.36
-42.19
-42.74
-40.66
-36.11
-29.75
-22.54
-15.49
-9.36
-4.56
-1.10
1.26
2.83
3.83
4.39
4.55
4.34
3.86
3.29
2.82
2.59
2.63
2.82
2.96
2.86
2.43
1.67
0.63
-0.64
-2.19
-4.07
-6.32
-8.83
-11.41
-13.82
-15.92
-17.76
-19.53
-21.58
-24.19
-27.49
-31.37
-35.39
-38.90
-41.14
-41.45
-39.48
-35.33
-29.55
-22.93
-16.28
-10.17
-4.84
-0.32
3.46
6.46
8.45
9.21
8.62
6.87
4.44
2.06
0.40
-0.12
0.56
2.14
4.19
6.25
8.08
9.58
10.76
11.67
12.25
12.41
12.05
11.16
9.81
8.02
5.72
2.69
-1.33
-6.47
-12.40
-18.36
-23.16
-25.61
-24.88
-20.87
-14.21
-6.06
2.31
9.89
16.27
21.52
26.05
30.23
34.14
37.59
40.23
41.80
42.29
41.98
41.26
40.47
39.75
39.08
38.32
37.34
36.12
34.70
33.18
31.60
29.96
28.22
26.27
24.02
21.41
18.45
15.21
11.71
7.87
3.55
-1.24
-6.17
-10.44
-12.95
-12.75
-9.38
-3.16
4.95
13.75
22.17
29.46
35.12
38.76
40.05
38.87
35.55
30.92
26.15
22.35
20.16
19.60
20.06
20.63
20.50
19.26
17.04
14.39
11.95
10.08
8.64
7.03
4.44
0.23
-5.75
-13.14
-21.21
-29.08
-35.88
-40.71
-42.72
-41.09
-35.31
-25.45
-12.28
2.79
18.17
32.53
45.06
55.49
63.72
69.48
72.18
71.13
66.04
57.52
47.14
37.09
29.35
25.10
24.31
26.03
28.89
31.61
33.30
33.44
31.82
28.49
23.83
18.54
13.49
9.45
6.71
4.94
3.32
0.85
-3.18
-8.82
-15.38
-21.63
-26.23
-28.12
-26.93
-23.00
-17.27
-10.90
-4.96
-0.21
3.03
4.74
5.13
4.52
3.26
1.65
-0.00
-1.53
-2.81
-3.79
-4.43
-4.74
-4.80
-4.75
-4.79
-5.11
-5.82
-6.92
-8.38
-10.16
-12.29
-14.83
-17.79
-21.10
-24.61
-28.11
-31.39
-34.23
-36.32
-37.27
-36.58
-33.82
-28.83
-21.85
-13.60
-5.06
2.78
9.25
14.18
17.78
20.54
22.93
25.19
27.30
29.05
30.14
30.39
29.74
28.27
26.18
23.67
20.89
17.90
14.72
11.38
7.96
4.65
1.63
-0.94
-3.06
-4.91
-6.73
-8.83
-11.41
-14.55
-18.14
-21.88
-25.26
-27.66
-28.46
-27.28
-24.15
-19.51
-14.08
-8.61
-3.61
0.67
4.26
7.22
9.61
11.37
12.46
12.85
12.64
11.97
10.99
9.87
8.72
7.70
6.89
6.29
5.77
5.12
4.14
2.72
0.90
-1.12
-3.16
-5.08
-6.91
-8.76
-10.82
-13.24
-16.08
-19.22
-22.42
-25.23
-27.13
-27.63
-26.43
-23.55
-19.34
-14.32
-9.08
-4.04
0.59
4.70
8.20
10.90
12.61
13.18
12.65
11.30
9.51
7.73
6.21
5.05
4.13
3.30
2.39
1.34
0.19
-0.96
-2.00
-2.92
-3.81
-4.76
-5.87
-7.20
-8.76
-10.62
-12.85
-15.39
-18.00
-20.13
-21.04
-20.12
-17.17
-12.56
-7.15
-1.92
2.39
5.54
7.69
9.18
10.21
10.72
10.48
9.34
7.40
5.05
2.83
1.14
0.12
-0.43
-0.87
-1.45
-2.25
-3.12
-3.89
-4.51
-5.11
-5.97
-7.26
-9.00
-11.00
-13.08
-15.12
-17.14
-19.16
-20.97
-22.12
-22.02
-20.24
-16.78
-12.14
-7.15
-2.60
1.07
3.83
5.91
7.56
8.76
9.33
9.05
7.88
6.07
4.07
2.35
1.14
0.42
-0.05
-0.51
-1.10
-1.84
-2.61
-3.39
-4.18
-5.07
-6.12
-7.32
-8.62
-9.98
-11.40
-12.97
-14.76
-16.72
-18.62
-20.00
-20.31
-19.10
-16.23
-11.95
-6.86
-1.72
2.80
6.28
8.58
9.71
9.81
9.02
7.52
5.64
3.78
2.35
1.59
1.49
1.77
2.05
1.95
1.30
0.10
-1.46
-3.09
-4.58
-5.74
-6.60
-7.29
-8.07
-9.20
-10.90
-13.23
-16.07
-19.05
-21.58
-23.04
-22.88
-20.87
-17.24
-12.54
-7.51
-2.80
1.17
4.32
6.65
8.23
9.00
8.85
7.73
5.81
3.42
1.06
-0.77
-1.80
-2.01
-1.68
-1.25
-1.16
-1.68
-2.83
-4.41
-6.09
-7.62
-8.88
-10.00
-11.22
-12.82
-14.92
-17.48
-20.21
-22.66
-24.33
-24.83
-23.95
-21.72
-18.34
-14.13
-9.39
-4.40
0.60
5.35
9.53
12.79
14.83
15.48
14.79
13.09
10.87
8.71
7.08
6.24
6.12
6.39
6.62
6.42
5.60
4.19
2.35
0.28
-1.89
-4.16
-6.62
-9.38
-12.56
-16.16
-20.08
-23.97
-27.27
-29.28
-29.36
-27.13
-22.73
-16.76
-10.15
-3.83
1.55
5.76
8.96
11.45
13.46
15.01
15.94
16.10
15.52
14.45
13.31
12.46
12.00
11.75
11.30
10.28
8.51
6.13
3.44
0.84
-1.45
-3.47
-5.41
-7.60
-10.29
-13.59
-17.41
-21.48
-25.36
-28.48
-30.21
-29.93
-27.25
-22.15
-15.07
-6.86
1.42
8.86
14.86
19.31
22.39
24.42
25.65
26.15
25.92
24.96
23.45
21.67
20.01
18.73
17.86
17.21
16.44
15.23
13.45
11.20
8.74
6.36
4.19
2.22
0.27
-1.86
-4.35
-7.35
-10.91
-15.03
-19.50
-23.78
-27.06
-28.39
-27.04
-22.77
-16.00
-7.66
1.11
9.33
16.41
22.17
26.63
29.86
31.92
32.85
32.77
31.87
30.43
28.70
26.86
24.98
23.09
21.22
19.44
17.81
16.36
15.00
13.59
11.95
9.97
7.60
4.87
1.87
-1.27
-4.43
-7.55
-10.60
-13.65
-16.91
-20.52
-24.43
-28.22
-31.05
-31.86
-29.80
-24.57
-16.65
-7.20
2.36
10.77
17.31
21.81
24.57
25.94
26.22
25.52
23.93
21.62
18.95
16.35
14.24
12.85
12.16
11.95
11.92
11.82
11.47
10.78
9.75
8.37
6.68
4.74
2.65
0.52
-1.57
-3.59
-5.63
-7.84
-10.42
-13.52
-17.13
-20.99
-24.48
-26.79
-27.10
-24.86
-20.06
-13.21
-5.22
2.87
10.20
16.23
20.77
23.89
25.78
26.65
26.65
25.90
24.52
22.66
20.56
18.45
16.57
15.06
13.88
12.90
11.97
10.95
9.77
8.38
6.73
4.76
2.48
-0.02
-2.50
-4.71
-6.51
-7.97
-9.40
-11.23
-13.82
-17.33
-21.56
-26.00
-29.80
-32.06
-31.96
-29.09
-23.56
-16.05
-7.61
0.68
7.97
13.78
18.02
20.80
22.33
22.87
22.66
21.95
20.97
19.86
18.71
17.55
16.41
15.32
14.32
13.41
12.57
11.71
10.72
9.48
7.89
5.93
3.62
1.05
-1.62
-4.22
-6.61
-8.74
-10.71
-12.78
-15.28
-18.46
-22.34
-26.56
-30.42
-33.03
-33.55
-31.55
-27.06
-20.65
-13.19
-5.59
1.36
7.14
11.46
14.30
15.85
16.42
16.39
16.06
15.59
14.94
14.00
12.67
11.00
9.19
7.52
6.27
5.62
5.61
6.17
7.09
8.06
8.68
8.57
7.51
5.54
2.95
0.15
-2.54
-5.02
-7.43
-10.07
-13.17
-16.77
-20.71
-24.64
-28.06
-30.39
-31.10
-29.81
-26.39
-21.14
-14.62
-7.61
-0.81
5.23
10.17
13.83
16.12
17.00
16.55
14.98
12.62
9.94
7.39
5.37
4.15
3.75
3.97
4.40
4.59
4.25
3.33
2.07
0.88
0.08
-0.21
-0.18
-0.20
-0.57
-1.40
-2.60
-4.01
-5.57
-7.42
-9.85
-13.04
-16.81
-20.53
-23.24
-24.00
-22.24
-18.06
-12.18
-5.65
0.52
5.70
9.72
12.80
15.19
17.05
18.30
18.80
18.50
17.57
16.36
15.22
14.34
13.70
13.13
12.47
11.68
10.85
10.05
9.25
8.29
6.92
5.00
2.60
-0.01
-2.48
-4.52
-6.00
-7.05
-7.96
-9.13
-10.92
-13.53
-16.81
-20.21
-22.86
-23.83
-22.46
-18.65
-12.88
-6.07
0.74
6.76
11.61
15.27
17.98
19.91
21.15
21.66
21.42
20.59
19.47
18.52
18.16
18.58
19.70
21.20
22.69
23.90
24.80
25.59
26.55
27.92
29.77
31.99
34.28
36.29
37.61
37.92
36.90
34.35
30.21
24.59
17.91
10.78
4.03
-1.62
-5.75
-8.45
-10.30
-12.18
-14.92
-18.97
-24.34
-30.59
-37.14
-43.45
-49.14
-53.94
-57.57
-59.73
-60.13
-58.67
-55.48
-50.99
-45.86
-40.75
-36.21
-32.56
-29.92
-28.25
-27.47
-27.56
-28.46
-30.06
-32.11
-34.26
-36.15
-37.58
-38.59
-39.31
-39.79
-39.81
-38.87
-36.34
-31.85
-25.55
-18.12
-10.56
-3.79
1.65
5.71
8.68
10.85
12.38
13.21
13.20
12.38
11.02
9.58
8.56
8.20
8.43
8.89
9.17
8.98
8.32
7.39
6.45
5.60
4.76
3.74
2.38
0.66
-1.36
-3.56
-5.94
-8.53
-11.23
-13.71
-15.38
-15.53
-13.66
-9.69
-4.06
2.38
8.72
14.24
18.54
21.58
23.48
24.39
24.42
23.69
22.34
20.57
18.63
16.77
15.09
13.54
12.02
10.35
8.46
6.39
4.29
2.32
0.62
-0.72
-1.69
-2.31
-2.69
-2.97
-3.41
-4.32
-6.04
-8.79
-12.57
-17.02
-21.36
-24.58
-25.67
-24.03
-19.63
-13.14
-5.64
1.73
8.09
12.99
16.36
18.36
19.18
19.01
18.07
16.65
15.09
13.74
12.81
12.37
12.31
12.46
12.62
12.68
12.53
12.14
11.45
10.46
9.13
7.44
5.38
2.97
0.33
-2.35
-4.84
-6.99
-8.81
-10.51
-12.54
-15.34
-19.19
-23.89
-28.73
-32.61
-34.38
-33.29
-29.27
-22.94
-15.42
-7.82
-0.96
4.80
9.45
13.12
15.83
17.55
18.27
18.15
17.54
16.87
16.46
16.43
16.65
16.88
16.93
16.71
16.27
15.69
15.00
14.19
13.17
11.85
10.12
7.99
5.51
2.84
0.19
-2.29
-4.60
-6.88
-9.43
-12.56
-16.43
-20.93
-25.54
-29.45
-31.74
-31.63
-28.78
-23.40
-16.22
-8.24
-0.44
6.50
12.24
16.73
20.07
22.36
23.66
24.04
23.68
22.90
22.07
21.54
21.45
21.71
22.02
22.06
21.59
20.62
19.32
17.94
16.67
15.52
14.36
13.02
11.40
9.49
7.31
4.89
2.20
-0.79
-3.98
-7.19
-10.18
-12.80
-15.08
-17.28
-19.82
-23.12
-27.39
-32.51
-37.87
-42.47
-45.08
-44.64
-40.61
-33.29
-23.72
-13.41
-3.81
4.12
10.10
14.39
17.49
19.84
21.63
22.92
23.74
24.18
24.41
24.59
24.80
24.98
25.04
24.93
24.65
24.23
23.69
23.00
22.08
20.86
19.36
17.63
15.82
13.99
12.13
10.11
7.77
5.00
1.80
-1.68
-5.23
-8.62
-11.72
-14.54
-17.19
-19.86
-22.80
-26.28
-30.35
-34.81
-39.03
-42.03
-42.78
-40.58
-35.37
-27.82
-19.12
-10.54
-3.02
3.06
7.79
11.53
14.61
17.14
19.07
20.31
20.88
21.03
21.07
21.30
21.79
22.37
22.75
22.68
22.14
21.31
20.50
19.94
19.64
19.39
18.83
17.65
15.72
13.15
10.19
7.17
4.35
1.85
-0.36
-2.41
-4.54
-7.01
-10.06
-13.84
-18.23
-22.80
-26.76
-29.16
-29.24
-26.68
-21.77
-15.38
-8.53
-2.16
3.24
7.56
10.94
13.54
15.42
16.55
16.90
16.55
15.71
14.69
13.76
13.12
12.84
12.87
13.06
13.14
12.87
12.07
10.66
8.73
6.49
4.19
2.02
0.06
-1.72
-3.41
-5.13
-7.04
-9.29
-12.02
-15.34
-19.12
-22.96
-26.17
-27.93
-27.60
-24.92
-20.18
-14.14
-7.70
-1.69
3.42
7.49
10.62
12.96
14.56
15.38
15.41
14.76
13.71
12.61
11.74
11.19
10.85
10.49
9.94
9.21
8.46
7.89
7.58
7.35
6.80
5.50
3.24
0.13
-3.33
-6.51
-8.89
-10.33
-11.08
-11.66
-12.63
-14.39
-17.06
-20.46
-24.05
-27.00
-28.27
-26.88
-22.34
-14.95
-5.88
3.18
10.60
15.40
17.56
17.76
16.93
15.75
14.45
12.98
11.33
9.72
8.63
8.47
9.36
11.00
12.76
14.00
14.29
13.57
12.10
10.36
8.79
7.68
7.09
6.85
6.62
5.98
4.62
2.43
-0.45
-3.63
-6.67
-9.22
-11.19
-12.77
-14.27
-16.00
-18.13
-20.60
-23.23
-25.74
-27.78
-28.93
-28.75
-26.89
-23.32
-18.33
-12.58
-6.83
-1.70
2.53
5.91
8.69
11.05
13.01
14.40
15.01
14.74
13.75
12.49
11.44
11.00
11.21
11.77
12.17
11.98
11.04
9.56
7.94
6.55
5.54
4.80
4.06
3.11
1.84
0.32
-1.31
-2.90
-4.33
-5.56
-6.56
-7.36
-8.05
-8.80
-9.82
-11.32
-13.41
-16.05
-18.95
-21.60
-23.36
-23.61
-22.05
-18.76
-14.26
-9.28
-4.54
-0.50
2.72
5.27
7.37
9.18
10.69
11.75
12.29
12.36
12.21
12.20
12.56
13.33
14.32
15.16
15.53
15.32
14.62
13.72
12.88
12.25
11.83
11.48
11.06
10.44
9.50
8.13
6.24
3.89
1.29
-1.21
-3.19
-4.39
-4.79
-4.65
-4.42
-4.51
-5.25
-6.85
-9.39
-12.93
-17.49
-22.91
-28.79
-34.43
-38.85
-41.12
-40.57
-37.03
-30.97
-23.34
-15.33
-8.01
-2.04
2.42
5.65
8.14
10.29
12.26
13.94
15.10
15.60
15.47
14.98
14.47
14.22
14.31
14.64
15.00
15.21
15.23
15.12
14.98
14.79
14.44
13.72
12.48
10.78
8.86
7.05
5.62
4.67
4.00
3.29
2.17
0.40
-2.05
-4.94
-7.83
-10.26
-11.89
-12.64
-12.82
-12.96
-13.73
-15.63
-18.81
-22.94
-27.24
-30.66
-32.23
-31.36
-27.96
-22.60
-16.20
-9.80
-4.26
-0.03
2.82
4.53
5.47
6.04
6.54
7.16
7.91
8.66
9.23
9.53
9.57
9.55
9.64
9.89
10.20
10.34
10.12
9.56
8.91
8.46
8.41
8.65
8.79
8.43
7.34
5.59
3.55
1.65
0.14
-1.02
-2.08
-3.31
-4.84
-6.56
-8.23
-9.60
-10.58
-11.34
-12.10
-13.10
-14.46
-16.13
-18.04
-20.19
-22.65
-25.49
-28.59
-31.56
-33.69
-34.25
-32.73
-29.12
-23.96
-18.10
-12.40
-7.44
-3.40
-0.20
2.35
4.32
5.69
6.36
6.38
5.92
5.31
4.88
4.88
5.35
6.21
7.25
8.26
9.07
9.58
9.77
9.73
9.56
9.31
8.96
8.37
7.39
5.97
4.21
2.39
0.83
-0.30
-1.01
-1.55
-2.26
-3.38
-4.96
-6.85
-8.82
-10.59
-12.01
-13.02
-13.73
-14.34
-15.13
-16.39
-18.40
-21.24
-24.80
-28.64
-32.06
-34.21
-34.38
-32.22
-27.87
-21.94
-15.32
-8.87
-3.25
1.24
4.59
6.97
8.61
9.76
10.57
11.19
11.69
12.09
12.37
12.53
12.63
12.78
13.06
13.51
14.06
14.61
15.04
15.33
15.47
15.47
15.30
14.88
14.09
12.89
11.26
9.32
7.19
4.98
2.80
0.70
-1.28
-3.13
-4.85
-6.46
-7.98
-9.49
-11.09
-13.00
-15.49
-18.78
-22.97
-27.76
-32.50
-36.24
-38.03
-37.23
-33.69
-27.88
-20.63
-12.92
-5.59
0.79
5.98
10.00
12.97
15.11
16.58
17.56
18.13
18.35
18.30
18.09
17.91
17.95
18.32
18.96
19.71
20.34
20.73
20.87
20.85
20.72
20.42
19.83
18.82
17.41
15.82
14.27
12.93
11.73
10.42
8.67
6.31
3.38
0.11
-3.20
-6.33
-9.23
-11.95
-14.62
-17.39
-20.36
-23.71
-27.59
-32.03
-36.77
-41.09
-43.99
-44.38
-41.59
-35.65
-27.38
-18.09
-9.09
-1.27
5.10
10.25
14.53
18.15
21.09
23.16
24.30
24.69
24.78
25.04
25.78
26.97
28.26
29.25
29.62
29.38
28.78
28.15
27.75
27.59
27.49
27.18
26.39
25.04
23.20
21.04
18.79
16.59
14.49
12.39
10.11
7.47
4.38
0.94
-2.65
-6.10
-9.21
-11.89
-14.26
-16.53
-19.01
-21.95
-25.53
-29.78
-34.47
-39.07
-42.79
-44.70
-44.02
-40.44
-34.17
-25.98
-16.86
-7.76
0.68
8.13
14.51
19.84
24.10
27.26
29.36
30.51
30.98
31.11
31.28
31.82
32.91
34.58
36.63
38.71
40.48
41.70
42.41
42.86
43.39
44.17
45.16
46.07
46.53
46.30
45.45
44.28
43.28
42.81
42.95
43.43
43.75
43.41
42.18
40.16
37.76
35.57
34.17
34.03
35.43
38.22
41.68
44.30
43.99
38.57
26.44
7.31
-17.58
-45.59
-73.30
-97.36
-115.19
-125.46
-128.20
-124.61
-116.72
-106.84
-97.04
-88.77
-82.63
-78.39
-75.29
-72.27
-68.31
-62.70
-55.14
-45.80
-35.37
-24.86
-15.26
-7.36
-1.44
2.77
5.96
8.92
12.28
16.23
20.53
24.62
27.98
30.26
31.46
31.87
31.85
31.69
31.49
31.23
30.82
30.20
29.38
28.32
27.00
25.39
23.53
21.52
19.48
17.41
15.11
12.33
8.98
5.42
2.63
1.95
4.60
11.15
21.18
33.32
45.70
56.57
64.82
70.23
73.43
75.50
77.71
81.06
86.09
92.58
99.28
103.96
103.71
95.61
77.86
50.53
16.01
-21.62
-57.80
-88.96
-113.54
-131.99
-145.96
-157.03
-165.74
-171.30
-172.17
-166.91
-155.03
-137.32
-115.59
-92.07
-68.75
-47.06
-27.84
-11.65
1.00
9.59
13.69
13.37
9.31
2.92
-4.03
-9.82
-13.22
-13.73
-11.54
-7.28
-1.77
4.32
10.54
16.64
22.45
27.72
32.06
34.97
36.03
35.13
32.64
29.34
26.25
24.22
23.68
24.47
25.94
27.16
27.15
25.01
20.06
11.96
0.88
-12.33
-26.11
-38.48
-47.54
-52.09
-52.00
-48.16
-42.10
-35.42
-29.31
-24.41
-20.85
-18.52
-17.15
-16.42
-15.99
-15.58
-15.08
-14.59
-14.32
-14.39
-14.59
-14.31
-12.65
-8.74
-2.02
7.46
19.06
31.64
43.71
53.76
60.52
63.25
61.97
57.48
51.27
45.11
40.53
38.41
38.78
40.92
43.76
46.23
47.60
47.60
46.31
43.99
40.92
37.24
33.00
28.17
22.75
16.79
10.43
3.85
-2.65
-8.59
-13.16
-15.23
-13.65
-7.66
2.56
15.70
29.48
41.34
49.19
51.98
49.72
43.24
33.67
22.25
10.23
-1.07
-10.30
-16.45
-19.16
-18.97
-17.05
-14.75
-13.04
-12.24
-12.15
-12.34
-12.46
-12.43
-12.28
-12.01
-11.51
-10.67
-9.49
-8.13
-6.93
-6.15
-5.83
-5.76
-5.62
-5.13
-4.26
-3.19
-2.21
-1.55
-1.26
-1.25
-1.40
-1.60
-1.86
-2.32
-3.10
-4.30
-5.89
-7.72
-9.62
-11.41
-12.97
-14.26
-15.33
-16.34
-17.63
-19.62
-22.64
-26.67
-31.21
-35.30
-37.85
-38.05
-35.71
-31.28
-25.72
-20.03
-14.95
-10.81
-7.55
-4.98
-2.92
-1.28
-0.06
0.74
1.20
1.44
1.63
1.93
2.44
3.14
3.92
4.65
5.23
5.63
5.95
6.29
6.67
6.98
7.01
6.51
5.33
3.47
1.08
-1.64
-4.49
-7.32
-9.95
-12.12
-13.53
-13.93
-13.34
-12.14
-10.99
-10.63
-11.57
-13.89
-17.25
-20.94
-24.15
-26.15
-26.41
-24.80
-21.57
-17.40
-13.13
-9.54
-6.99
-5.29
-3.83
-1.88
0.97
4.69
8.81
12.76
16.14
18.81
20.84
22.29
23.09
23.03
21.90
19.75
16.92
13.98
11.58
10.18
9.97
10.78
12.21
13.66
14.58
14.50
13.28
11.11
8.43
5.77
3.55
1.89
0.63
-0.51
-1.90
-3.75
-6.13
-8.94
-11.88
-14.50
-16.25
-16.71
-15.71
-13.51
-10.81
-8.50
-7.42
-8.03
-10.38
-14.11
-18.60
-23.10
-26.82
-28.98
-28.93
-26.33
-21.40
-14.92
-8.15
-2.40
1.30
2.59
1.79
-0.26
-2.66
-4.70
-6.14
-7.13
-8.02
-9.15
-10.63
-12.39
-14.19
-15.91
-17.58
-19.55
-22.31
-26.22
-31.31
-37.06
-42.47
-46.39
-47.92
-46.83
-43.61
-39.27
-34.93
-31.32
-28.49
-25.84
-22.38
-17.07
-9.23
1.22
13.60
26.65
38.82
48.84
56.14
61.09
64.79
68.54
73.12
78.45
83.59
87.21
88.26
86.40
82.06
76.09
69.25
61.90
54.02
45.47
36.40
27.26
18.72
11.27
4.98
-0.51
-5.67
-10.76
-15.68
-20.04
-23.39
-25.50
-26.44
-26.38
-25.54
-24.08
-22.15
-19.96
-17.77
-15.76
-13.98
-12.32
-10.56
-8.54
-6.21
-3.65
-1.01
1.55
3.85
5.69
6.88
7.37
7.22
6.67
6.05
5.66
5.63
6.00
6.65
7.43
8.13
8.54
8.41
7.59
6.01
3.77
1.11
-1.64
-4.23
-6.54
-8.61
-10.66
-12.96
-15.78
-19.28
-23.38
-27.72
-31.58
-34.08
-34.39
-32.09
-27.40
-21.12
-14.40
-8.23
-3.15
0.86
4.16
7.12
9.91
12.43
14.47
15.86
16.62
16.90
16.87
16.66
16.31
15.89
15.51
15.37
15.65
16.44
17.62
18.83
19.54
19.27
17.76
15.15
11.97
8.89
6.50
5.01
4.25
3.77
3.11
1.97
0.34
-1.61
-3.65
-5.63
-7.56
-9.52
-11.63
-13.97
-16.56
-19.30
-21.97
-24.23
-25.64
-25.77
-24.32
-21.25
-16.84
-11.61
-6.13
-0.95
3.58
7.32
10.27
12.50
14.08
15.06
15.48
15.46
15.20
14.93
14.87
15.11
15.60
16.14
16.51
16.52
16.14
15.50
14.78
14.15
13.63
13.17
12.63
11.94
11.05
10.06
9.08
8.23
7.52
6.88
6.08
4.92
3.22
1.00
-1.53
-4.05
-6.19
-7.78
-8.84
-9.65
-10.60
-12.00
-14.00
-16.54
-19.39
-22.27
-24.88
-26.92
-28.07
-27.96
-26.34
-23.11
-18.48
-12.98
-7.33
-2.22
1.88
4.78
6.61
7.65
8.20
8.49
8.63
8.71
8.77
8.85
9.01
9.24
9.49
9.67
9.68
9.51
9.23
8.98
8.92
9.06
9.25
9.22
8.69
7.54
5.93
4.20
2.71
1.67
1.02
0.48
-0.23
-1.27
-2.59
-3.98
-5.25
-6.29
-7.16
-7.95
-8.83
-9.93
-11.36
-13.26
-15.66
-18.43
-21.10
-23.03
-23.53
-22.19
-19.01
-14.49
-9.39
-4.50
-0.36
2.81
5.10
6.70
7.81
8.55
8.97
9.10
9.03
8.84
8.66
8.54
8.48
8.46
8.44
8.38
8.30
8.22
8.18
8.17
8.17
8.08
7.83
7.31
6.49
5.41
4.21
3.07
2.13
1.45
0.91
0.30
-0.64
-2.03
-3.84
-5.85
-7.80
-9.45
-10.73
-11.78
-12.91
-14.52
-16.86
-19.89
-23.17
-25.95
-27.39
-26.94
-24.54
-20.65
-16.07
-11.56
-7.60
-4.29
-1.51
0.90
2.99
4.71
5.99
6.85
7.42
7.90
8.39
8.90
9.31
9.47
9.31
8.91
8.46
8.21
8.31
8.77
9.40
9.91
10.01
9.47
8.22
6.29
3.88
1.28
-1.11
-2.96
-4.06
-4.46
-4.46
-4.45
-4.77
-5.55
-6.71
-7.99
-9.17
-10.14
-10.95
-11.78
-12.84
-14.32
-16.33
-18.81
-21.44
-23.63
-24.66
-23.97
-21.37
-17.27
-12.46
-7.91
-4.32
-1.97
-0.66
0.05
0.62
1.27
2.05
2.86
3.62
4.28
4.82
5.22
5.44
5.43
5.17
4.77
4.39
4.19
4.28
4.63
5.08
5.38
5.34
4.85
3.94
2.78
1.53
0.36
-0.71
-1.70
-2.70
-3.79
-5.02
-6.41
-7.90
-9.46
-11.03
-12.63
-14.29
-16.05
-18.01
-20.23
-22.75
-25.48
-28.09
-29.99
-30.52
-29.14
-25.73
-20.78
-15.21
-10.04
-6.02
-3.33
-1.64
-0.39
0.83
2.11
3.22
3.87
3.94
3.60
3.24
3.25
3.79
4.72
5.74
6.52
6.86
6.81
6.50
6.12
5.73
5.29
4.67
3.81
2.76
1.66
0.67
-0.17
-0.96
-1.91
-3.19
-4.86
-6.87
-9.15
-11.67
-14.49
-17.61
-20.89
-23.97
-26.31
-27.37
-26.80
-24.55
-20.88
-16.25
-11.14
-5.98
-1.14
3.16
6.78
9.69
11.96
13.71
15.01
15.92
16.47
16.73
16.86
17.04
17.38
17.76
17.81
17.14
15.49
13.03
10.30
8.06
6.91
6.98
7.94
9.15
9.97
10.05
9.38
8.19
6.75
5.17
3.38
1.23
-1.44
-4.62
-8.16
-11.91
-15.76
-19.60
-23.25
-26.33
-28.26
-28.47
-26.54
-22.55
-17.02
-10.81
-4.81
0.38
4.53
7.78
10.45
12.82
15.01
17.08
18.95
20.60
22.02
23.23
24.22
24.94
25.27
25.14
24.51
23.51
22.36
21.34
20.66
20.41
20.51
20.74
20.80
20.42
19.40
17.65
15.24
12.34
9.18
6.02
3.08
0.47
-1.81
-3.88
-5.91
-8.12
-10.73
-13.92
-17.80
-22.30
-27.06
-31.38
-34.37
-35.15
-33.19
-28.53
-21.82
-14.09
-6.39
0.53
6.41
11.29
15.38
18.82
21.57
23.49
24.52
24.76
24.51
24.18
24.11
24.46
25.13
25.88
26.41
26.54
26.29
25.81
25.34
25.00
24.76
24.42
23.66
22.29
20.24
17.68
14.88
12.20
9.83
7.82
6.01
4.11
1.88
-0.78
-3.73
-6.66
-9.25
-11.35
-13.07
-14.83
-17.15
-20.41
-24.66
-29.43
-33.94
-37.22
-38.50
-37.37
-33.95
-28.72
-22.43
-15.82
-9.47
-3.70
1.41
5.89
9.84
13.26
16.09
18.23
19.63
20.32
20.51
20.46
20.45
20.64
21.01
21.42
21.73
21.84
21.85
21.92
22.24
22.83
23.52
23.99
23.95
23.25
21.92
20.22
18.48
16.95
15.81
14.98
14.26
13.32
11.80
9.54
6.62
3.46
0.60
-1.47
-2.60
-3.10
-3.64
-4.96
-7.57
-11.47
-16.15
-20.76
-24.29
-25.89
-25.02
-21.54
-15.72
-8.26
-0.23
7.11
12.65
15.81
16.78
16.43
15.90
15.97
16.61
17.09
16.38
13.84
9.56
4.38
-0.66
-4.78
-7.84
-10.17
-12.23
-14.16
-15.71
-16.43
-16.03
-14.62
-12.73
-11.16
-10.65
-11.69
-14.35
-18.31
-22.97
-27.69
-31.88
-35.19
-37.61
-39.42
-41.25
-43.91
-48.18
-54.48
-62.53
-71.26
-78.98
-83.86
-84.43
-80.01
-70.87
-57.98
-42.73
-26.53
-10.71
3.59
15.47
24.39
30.38
