1532446036.00
64.000000
-0.00
-0.00
-0.00
-0.00
-0.00
-0.00
-0.00
-0.00
-0.00
-0.00
0.00
0.01
0.01
-0.00
-0.03
-0.05
-0.05
0.00
0.13
0.36
0.66
1.01
1.37
1.72
2.06
2.40
2.79
3.24
3.80
4.43
5.08
5.70
6.28
6.81
7.37
8.02
8.83
9.90
11.15
12.47
13.74
14.88
15.93
17.03
18.38
20.14
22.55
25.42
28.50
31.51
34.29
36.90
39.67
43.02
47.28
52.83
59.35
66.32
73.18
79.60
85.63
91.76
98.67
106.92
117.07
128.68
141.00
153.16
164.59
175.25
185.72
197.27
208.64
222.17
238.58
258.09
279.54
299.98
314.94
319.62
310.50
286.67
250.63
206.41
158.53
110.38
63.50
17.99
-26.60
-70.36
-112.76
-152.62
-189.21
-222.29
-251.98
-278.42
-301.67
-321.99
-339.99
-356.85
-373.56
-390.63
-407.05
-420.37
-427.51
-425.69
-413.79
-392.53
-363.99
-330.56
-294.65
-258.48
-224.18
-193.72
-168.43
-148.32
-131.81
-116.36
-99.69
-81.14
-61.95
-44.46
-30.67
-21.10
-14.47
-8.50
-1.29
7.62
17.04
24.86
29.44
30.64
29.96
29.71
31.72
36.18
41.57
45.53
46.38
44.16
40.77
38.83
40.10
44.33
49.24
51.81
50.05
44.16
36.56
30.53
28.38
30.19
33.81
36.15
35.06
30.60
24.94
21.11
21.06
24.48
28.96
31.42
29.97
25.08
19.30
15.76
16.31
20.36
25.18
27.57
25.62
19.85
12.82
7.67
6.36
8.62
12.28
14.65
14.07
10.89
7.15
5.29
6.64
10.56
14.77
16.69
15.01
10.57
5.91
3.83
5.69
10.56
15.66
18.03
16.25
11.32
6.09
3.53
5.00
9.38
13.77
15.18
12.35
6.44
0.32
-3.11
-2.54
1.00
4.83
6.25
4.05
-0.77
-5.68
-8.13
-7.06
-3.48
0.11
1.22
-1.14
-5.95
-10.73
-13.07
-11.96
-8.51
-5.20
-4.43
-7.06
-11.82
-16.04
-17.17
-14.29
-8.74
-3.38
-1.01
-2.72
-7.31
-11.92
-13.74
-11.61
-6.73
-1.93
0.04
-1.88
-6.40
-10.71
-12.10
-9.65
-4.75
-0.22
1.33
-0.87
-5.26
-8.99
-9.49
-6.05
-0.24
5.07
7.42
6.11
2.61
-0.41
-0.69
2.33
7.15
11.22
12.46
10.52
7.05
4.68
5.49
9.68
15.44
19.89
20.81
17.95
13.26
9.79
10.03
14.39
20.95
26.59
28.71
26.78
22.59
19.11
18.71
21.76
26.42
29.88
30.08
27.02
22.76
20.12
20.91
24.75
29.25
31.47
29.70
24.52
18.46
14.54
14.43
17.52
21.32
22.96
20.92
15.89
10.36
7.08
7.42
10.54
13.91
14.89
12.29
7.10
1.97
-0.42
1.10
5.38
9.66
11.16
8.72
3.52
-1.60
-3.82
-1.97
2.73
7.36
9.05
6.63
1.33
-3.89
-6.11
-4.11
0.84
5.78
7.76
5.54
0.32
-4.99
-7.52
-6.10
-1.91
2.32
3.97
2.13
-1.90
-5.40
-5.99
-3.05
1.80
5.72
6.29
3.06
-2.14
-6.30
-6.97
-3.67
1.68
5.98
6.68
3.32
-2.23
-6.82
-7.87
-4.84
0.48
5.02
6.24
3.62
-1.14
-5.08
-5.79
-2.83
2.02
5.83
6.21
2.82
-2.43
-6.49
-6.96
-3.54
1.77
5.83
6.22
2.71
-2.53
-6.26
-6.12
-1.96
3.93
8.23
8.51
4.65
-1.10
-5.47
-6.09
-2.81
2.28
6.10
6.42
3.16
-1.67
-5.14
-5.23
-1.93
2.71
5.82
5.43
1.58
-3.64
-7.37
-7.63
-4.49
0.02
3.06
2.75
-0.71
-5.19
-7.86
-6.94
-2.80
2.19
5.08
4.07
-0.34
-5.64
-8.79
-8.00
-3.84
1.11
3.80
2.51
-2.10
-7.34
-10.13
-8.89
-4.32
0.93
3.86
2.91
-1.10
-5.85
-8.83
-8.83
-6.46
-3.30
-0.64
1.31
3.06
5.04
7.15
8.95
10.24
11.42
13.48
16.82
20.92
24.39
25.59
23.72
19.29
13.56
7.55
1.55
-4.40
-9.54
-11.88
-9.21
-0.98
9.99
17.99
17.31
5.93
-12.73
-30.82
-40.24
-37.15
-23.90
-7.63
4.26
8.24
6.03
2.09
0.16
0.77
1.71
0.91
-1.57
-3.45
-2.35
1.67
5.71
6.13
1.19
-7.33
-14.98
-17.63
-13.93
-6.06
1.57
5.06
3.22
-2.52
-9.40
-15.03
-18.28
-18.70
-16.14
-10.54
-2.51
5.83
11.32
11.42
6.31
-0.85
-5.16
-2.94
5.94
17.75
27.00
29.79
25.82
18.11
10.30
4.57
0.84
-1.94
-3.79
-3.42
0.47
7.18
13.07
13.29
5.17
-9.68
-25.47
-35.32
-35.21
-26.06
-13.26
-3.39
-0.61
-4.71
-12.16
-18.37
-20.17
-16.85
-9.52
-0.02
9.82
18.29
23.55
24.23
20.32
14.01
8.71
7.45
11.12
17.78
24.00
26.79
25.39
21.36
16.90
13.03
9.08
3.79
-2.71
-7.96
-8.52
-2.50
7.90
16.59
16.84
5.69
-13.83
-33.62
-44.80
-42.74
-29.53
-12.52
-0.05
3.39
-0.84
-7.38
-10.60
-8.13
-1.90
3.96
6.15
4.05
-0.22
-3.89
-5.31
-4.52
-2.86
-1.79
-2.01
-3.29
-4.83
-5.80
-5.72
-4.61
-2.82
-1.15
-0.44
-1.02
-2.48
-3.43
-2.06
2.58
9.44
15.58
17.42
13.11
4.17
-5.20
-10.12
-7.95
0.09
9.60
15.57
15.37
10.13
3.85
0.53
1.79
5.87
9.03
8.25
3.25
-3.51
-8.33
-8.75
-4.93
0.84
5.44
6.76
4.80
1.20
-1.84
-2.88
-1.93
-0.19
0.85
0.18
-1.97
-4.41
-5.62
-4.56
-1.34
2.67
5.44
5.40
2.31
-2.32
-5.96
-6.55
-3.61
1.22
5.09
5.65
2.53
-2.50
-6.44
-7.03
-4.08
0.40
3.49
3.28
0.07
-3.77
-5.41
-3.30
1.69
6.74
8.90
6.72
1.29
-4.46
-7.51
-6.47
-2.32
2.27
4.49
3.14
-0.76
-4.59
-5.76
-3.26
1.69
6.38
8.16
6.02
1.12
-3.87
-6.24
-4.81
-0.57
3.87
5.77
3.87
-0.94
-6.03
-8.63
-7.33
-2.96
1.96
4.66
3.83
0.36
-3.20
-4.26
-1.86
2.67
6.56
7.26
4.15
-1.11
-5.50
-6.53
-3.63
1.42
5.65
6.59
3.67
-1.43
-5.87
-7.23
-4.88
-0.32
3.74
4.93
2.60
-1.82
-5.68
-6.64
-4.06
0.60
4.63
5.66
3.13
-1.36
-4.99
-5.41
-2.21
2.76
6.55
6.83
3.39
-1.77
-5.57
-5.76
-2.26
2.78
6.30
6.15
2.39
-2.71
-6.09
-5.71
-1.76
3.42
6.75
6.23
2.12
-3.23
-6.71
-6.33
-2.34
2.89
6.31
5.98
2.22
-2.62
-5.55
-4.82
-0.94
3.62
5.95
4.46
-0.14
-5.23
-7.92
-6.62
-2.13
2.98
5.80
4.83
0.74
-4.02
-6.69
-5.80
-1.89
2.75
5.49
4.85
1.34
-2.87
-5.21
-4.27
-0.67
3.33
5.17
3.61
-0.44
-4.43
-5.64
-2.89
2.62
7.98
10.20
8.01
2.54
-3.29
-6.51
-5.72
-1.84
2.48
4.50
3.01
-1.06
-5.18
-6.82
-4.87
-0.35
4.19
6.20
4.61
0.48
-3.63
-5.20
-3.29
0.90
4.74
5.74
3.15
-1.58
-5.65
-6.58
-3.75
1.19
5.29
6.03
2.90
-2.31
-6.50
-7.11
-3.69
1.87
6.40
7.34
4.21
-1.08
-5.40
-6.23
-3.13
2.01
6.07
6.60
3.25
-2.01
-6.08
-6.62
-3.46
1.36
4.86
4.91
1.61
-2.88
-5.60
-4.65
-0.35
4.90
8.07
7.28
2.84
-2.84
-6.70
-6.74
-3.12
1.97
5.57
5.67
2.32
-2.37
-5.46
-5.02
-1.23
3.68
6.77
6.14
2.11
-2.96
-6.09
-5.42
-1.38
3.60
6.55
5.71
1.54
-3.50
-6.50
-5.81
-1.96
2.61
5.16
4.24
0.57
-3.43
-5.12
-3.35
0.89
5.01
6.43
4.20
-0.42
-4.67
-5.92
-3.27
1.90
6.73
8.55
6.29
1.12
-4.29
-7.25
-6.48
-2.69
1.93
4.82
4.54
1.37
-2.78
-5.56
-5.47
-2.64
1.13
3.58
3.31
0.64
-2.52
-3.88
-2.29
1.32
4.49
4.74
1.38
-3.90
-7.93
-8.05
-3.90
2.15
6.47
6.44
2.10
-3.83
-7.62
-6.88
-1.91
4.39
8.37
7.76
2.94
-3.57
-8.41
-9.37
-6.35
-1.11
3.63
5.72
4.44
0.75
-3.30
-5.56
-4.87
-1.70
2.18
4.56
4.17
1.38
-1.99
-3.75
-2.74
0.33
3.28
3.90
1.40
-2.82
-6.01
-5.76
-1.58
4.55
9.28
9.90
6.03
-0.22
-5.36
-6.65
-3.65
1.58
5.77
6.45
3.36
-1.44
-4.98
-5.12
-1.86
2.69
5.70
5.33
1.81
-2.72
-5.58
-5.08
-1.54
2.88
5.53
4.79
1.08
-3.41
-5.97
-4.99
-0.91
3.99
6.90
6.11
2.05
-2.96
-6.07
-5.50
-1.62
3.26
6.27
5.65
1.89
-2.66
-5.16
-4.01
0.12
4.70
6.82
4.97
0.02
-5.29
-7.97
-6.58
-2.09
2.75
5.08
3.63
-0.46
-4.52
-5.97
-3.93
0.29
4.08
5.11
2.76
-1.53
-5.19
-6.01
-3.45
1.07
5.00
6.13
3.78
-0.70
-4.79
-6.15
-4.01
0.41
4.48
5.76
3.43
-1.16
-5.22
-6.23
-3.46
1.48
5.63
6.41
3.28
-1.96
-6.17
-6.76
-3.26
2.39
7.01
8.01
4.88
-0.52
-5.14
-6.49
-4.03
0.55
4.36
5.10
2.40
-1.97
-5.19
-5.11
-1.61
3.32
6.76
6.62
2.94
-2.10
-5.45
-5.06
-1.10
4.05
7.25
6.45
1.85
-4.13
-8.32
-8.53
-4.82
0.63
4.76
5.41
2.54
-1.84
-4.87
-4.59
-1.06
3.60
6.58
6.01
2.11
-2.94
-6.26
-6.03
-2.57
1.90
4.54
3.69
-0.09
-4.37
-6.31
-4.39
0.61
5.98
8.72
7.21
2.25
-3.50
-6.97
-6.50
-2.70
1.99
4.76
4.12
0.70
-3.17
-4.97
-3.45
0.60
4.82
6.66
4.94
0.53
-4.14
-6.48
-5.23
-1.20
3.24
5.53
4.43
0.75
-3.18
-4.88
-3.22
0.89
5.05
6.74
4.88
0.43
-4.12
-6.25
-4.89
-1.08
2.63
3.79
1.53
-2.77
-6.26
-6.39
-2.51
3.62
8.66
9.66
5.83
-0.95
-7.16
-9.58
-7.21
-1.69
3.66
5.88
4.01
-0.42
-4.52
-5.78
-3.56
0.64
4.23
5.14
3.04
-0.50
-3.10
-3.00
-0.17
3.68
6.07
5.27
1.36
-3.69
-7.06
-6.68
-2.53
3.28
7.65
8.21
4.73
-0.75
-5.07
-5.83
-2.76
2.11
5.70
5.73
2.11
-3.02
-6.61
-6.57
-2.94
2.07
5.56
5.59
2.33
-2.13
-5.15
-5.09
-2.30
1.18
2.93
1.64
-2.01
-5.81
-7.25
-5.08
-0.07
5.35
8.41
7.52
3.20
-2.26
-6.02
-6.28
-3.26
0.99
3.82
3.55
0.45
-3.37
-5.32
-3.86
0.49
5.40
8.08
6.90
2.41
-2.95
-6.22
-5.75
-2.08
2.41
4.93
4.07
0.59
-3.08
-4.37
-2.19
2.38
6.67
8.07
5.56
0.37
-4.76
-7.14
-5.69
-1.54
2.71
4.50
2.82
-1.17
-4.83
-5.69
-2.88
2.22
6.84
8.35
5.84
0.59
-4.60
-7.03
-5.57
-1.29
3.19
5.24
3.71
-0.46
-4.80
-6.80
-5.38
-1.49
2.43
3.97
2.22
-1.63
-5.05
-5.70
-2.96
1.61
5.26
5.70
2.58
-2.26
-5.91
-6.11
-2.65
2.48
6.28
6.51
3.00
-2.26
-6.26
-6.72
-3.36
1.94
6.23
7.19
4.41
-0.37
-4.29
-5.06
-2.24
2.50
6.34
7.01
4.17
-0.49
-4.19
-4.81
-2.14
1.98
4.81
4.45
0.99
-3.44
-6.06
-5.10
-1.01
3.81
6.45
5.20
0.64
-4.65
-7.65
-6.61
-2.09
3.37
6.68
6.03
1.86
-3.38
-6.73
-6.34
-2.61
2.20
5.32
5.08
1.95
-1.87
-3.78
-2.39
1.61
5.87
7.74
5.97
1.43
-3.36
-5.68
-4.26
0.01
4.56
6.63
4.95
0.53
-3.96
-5.70
-3.46
1.61
6.58
8.44
5.93
0.37
-4.97
-6.82
-3.84
2.45
8.44
10.60
7.51
0.83
-5.62
-7.97
-4.80
2.23
9.22
12.20
9.37
2.13
-6.05
-11.82
-13.81
-12.93
-11.18
-9.88
-8.67
-6.29
-2.34
1.74
3.23
0.15
-6.92
-14.44
-17.83
-14.17
-4.09
8.31
17.73
20.37
15.64
5.83
-5.01
-12.81
-14.66
-9.35
1.95
15.82
27.14
30.85
24.30
9.25
-8.56
-22.05
-26.35
-21.41
-11.61
-3.10
0.00
-2.25
-6.17
-7.65
-5.01
0.07
3.97
4.29
1.59
-1.00
-0.35
3.97
9.28
11.68
9.14
2.85
-3.41
-5.70
-2.68
3.84
9.95
12.24
9.72
3.88
-2.52
-7.06
-8.70
-7.64
-4.68
-0.92
2.63
5.04
5.67
4.56
2.60
0.92
0.17
0.25
0.21
-0.86
-3.02
-5.22
-5.86
-3.92
0.09
4.16
5.91
4.06
-0.55
-5.34
-7.52
-5.62
-0.58
4.81
7.59
6.22
1.50
-3.91
-7.07
-6.49
-2.87
1.35
3.56
2.54
-0.80
-4.07
-4.89
-2.32
2.43
6.81
8.29
5.95
0.96
-4.05
-6.49
-5.27
-1.42
2.60
4.36
2.88
-0.77
-4.19
-5.08
-2.64
1.85
5.83
6.90
4.31
-0.55
-4.92
-6.34
-4.00
0.68
4.92
6.23
3.87
-0.68
-4.66
-5.61
-2.89
1.95
6.08
7.05
4.32
-0.52
-4.58
-5.50
-2.82
1.74
5.30
5.58
2.25
-2.82
-6.70
-7.06
-3.60
1.78
6.07
6.95
4.00
-0.99
-5.14
-6.18
-3.73
0.52
3.88
4.27
1.48
-2.69
-5.62
-5.35
-1.89
2.77
5.83
5.36
1.53
-3.50
-6.73
-6.15
-1.92
3.68
7.52
7.47
3.55
-2.03
-6.21
-6.83
-3.82
0.73
3.93
3.84
0.63
-3.57
-5.92
-4.66
-0.24
4.98
8.00
7.06
2.57
-3.01
-6.68
-6.59
-3.08
1.55
4.51
4.14
0.93
-2.90
-4.68
-3.00
1.43
6.14
8.36
6.67
1.81
-3.63
-6.77
-6.10
-2.31
2.10
4.37
3.15
-0.70
-4.66
-6.09
-3.89
0.78
5.14
6.54
4.03
-1.00
-5.58
-7.00
-4.36
0.85
5.65
7.32
5.01
0.16
-4.40
-6.05
-3.96
0.50
4.62
5.93
3.69
-0.76
-4.70
-5.71
-3.12
1.61
5.71
6.72
4.00
-0.84
-4.85
-5.52
-2.31
3.00
7.25
7.83
4.23
-1.57
-6.23
-6.97
-3.11
3.38
9.13
11.18
8.66
3.13
-2.27
-4.68
-3.13
1.12
5.42
7.50
6.82
4.77
3.41
3.53
3.80
1.58
-4.91
-14.83
-24.42
-28.92
-25.43
-14.97
-2.10
7.32
9.42
4.37
-4.22
-11.42
-13.64
-10.35
-3.58
3.56
8.48
9.81
7.43
2.19
-4.08
-9.11
-10.98
-9.07
-4.51
0.16
2.41
1.25
-2.23
-5.40
-6.12
-4.12
-1.07
0.59
-0.22
-2.20
-2.62
0.40
6.29
11.96
14.05
11.63
6.85
3.76
5.68
12.72
21.59
27.48
26.98
20.05
9.94
1.07
-3.38
-3.01
0.03
2.68
2.82
0.18
-3.73
-6.69
-7.15
-4.88
-1.32
1.27
1.17
-1.83
-6.12
-9.08
-8.60
-4.47
1.41
5.89
6.36
2.34
-4.20
-9.84
-11.61
-8.66
-2.79
2.63
4.52
1.96
-3.36
-8.15
-9.42
-6.27
-0.35
5.08
7.07
4.66
-0.61
-5.63
-7.61
-5.61
-1.13
2.97
4.16
1.84
-2.36
-5.54
-5.33
-1.37
4.43
8.93
9.55
5.79
-0.45
-5.92
-7.93
-5.73
-1.02
3.25
4.56
2.39
-1.54
-4.38
-3.92
-0.02
5.22
8.67
8.09
3.46
-2.91
-7.63
-8.25
-4.54
1.25
5.82
6.63
3.40
-1.80
-5.79
-6.10
-2.54
2.83
6.82
7.07
3.45
-1.83
-5.53
-5.30
-1.13
4.69
8.86
9.01
5.13
-0.48
-4.55
-4.82
-1.35
3.57
6.82
6.35
2.48
-2.25
-4.72
-3.07
2.05
7.81
10.78
9.08
3.47
-2.93
-6.44
-4.92
1.01
8.23
12.94
12.75
8.11
1.93
-2.03
-1.19
4.10
10.99
15.72
15.64
10.74
3.64
-2.18
-4.68
-4.41
-3.87
-5.42
-9.33
-13.36
-14.55
-11.97
-8.08
-7.44
-13.57
-25.95
-39.41
-46.85
-43.34
-29.24
-10.28
5.61
12.41
8.88
-1.60
-13.01
-19.63
-18.20
-8.57
6.48
22.17
33.17
35.37
27.61
12.85
-2.91
-13.42
-15.23
-9.52
-1.01
4.94
5.54
1.95
-2.03
-3.18
-1.09
1.83
2.52
0.20
-2.79
-2.48
3.37
12.97
21.15
22.63
15.96
4.58
-4.99
-7.15
-0.84
10.04
18.98
20.81
14.70
4.00
-6.12
-11.55
-11.27
-6.92
-1.09
4.09
7.57
8.96
7.96
4.46
-0.92
-6.90
-11.74
-14.08
-13.69
-11.36
-8.21
-4.94
-1.52
2.19
5.73
7.80
6.96
2.81
-3.18
-8.13
-9.44
-6.25
-0.27
5.20
7.36
5.33
0.65
-3.69
-5.17
-3.16
0.83
4.12
4.61
2.07
-1.81
-4.48
-4.16
-1.03
2.92
5.16
4.20
0.54
-3.57
-5.56
-4.04
0.28
4.98
7.35
6.00
1.65
-3.26
-6.00
-5.13
-1.32
3.12
5.50
4.43
0.61
-3.59
-5.45
-3.64
0.98
5.79
7.95
6.08
1.19
-3.91
-6.24
-4.41
0.48
5.50
7.66
5.63
0.56
-4.59
-6.85
-4.98
-0.17
4.69
6.71
4.75
0.02
-4.62
-6.36
-4.11
0.86
5.65
7.43
5.10
-0.04
-5.07
-7.07
-4.94
-0.02
4.70
6.35
3.89
-1.25
-5.98
-7.41
-4.57
0.96
6.01
7.67
5.01
-0.32
-5.08
-6.33
-3.28
2.25
6.89
7.71
4.05
-2.08
-7.16
-8.26
-4.85
0.94
5.54
6.18
2.46
-3.32
-7.68
-7.99
-4.14
1.46
5.35
5.12
0.85
-4.89
-8.62
-8.01
-3.27
2.94
7.02
6.61
1.95
-4.22
-8.28
-7.81
-3.05
3.21
7.28
6.74
1.88
-4.42
-8.32
-7.34
-1.77
5.38
10.11
9.72
4.39
-2.94
-8.17
-8.45
-3.80
3.00
7.98
8.33
3.99
-2.32
-6.76
-6.67
-2.10
4.20
8.45
8.09
3.31
-3.08
-7.36
-7.11
-2.65
3.18
6.75
5.89
1.15
-4.50
-7.46
-5.77
-0.27
5.82
8.86
6.96
1.18
-5.15
-8.33
-6.56
-1.01
4.89
7.55
5.31
-0.49
-6.39
-8.80
-6.17
0.03
6.20
8.73
6.06
-0.35
-6.87
-9.80
-7.44
-1.14
5.52
8.78
6.86
0.96
-5.44
-8.63
-6.81
-1.16
4.88
7.67
5.58
-0.07
-5.72
-7.77
-4.74
1.76
7.92
10.05
6.80
0.09
-6.07
-7.97
-4.45
2.33
8.22
9.55
5.43
-1.74
-7.71
-8.92
-4.65
2.57
8.49
9.66
5.48
-1.54
-7.28
-8.53
-4.84
1.31
6.04
6.45
2.32
-3.78
-8.06
-7.85
-3.26
2.92
6.87
6.06
0.89
-5.59
-9.39
-8.05
-2.08
5.22
9.68
8.73
2.88
-4.57
-9.43
-9.01
-3.65
3.51
8.42
8.33
3.42
-3.45
-8.33
-8.51
-4.03
2.37
6.91
6.96
2.59
-3.44
-7.42
-6.90
-2.16
3.90
7.53
6.45
1.31
-4.71
-7.76
-5.69
0.64
7.74
11.55
9.74
3.13
-4.80
-9.90
-9.68
-4.66
1.94
6.21
5.79
1.25
-4.38
-7.33
-5.49
0.35
6.96
10.52
8.88
2.85
-4.26
-8.65
-8.15
-3.53
2.07
5.08
3.73
-0.97
-5.76
-7.21
-3.85
2.84
9.20
11.48
8.11
0.61
-7.15
-11.14
-9.40
-3.11
4.17
8.56
8.02
3.42
-2.15
-5.26
-4.24
-0.09
4.21
5.64
3.01
-2.18
-6.68
-7.50
-3.75
2.65
8.05
9.21
5.27
-1.70
-7.82
-9.63
-6.13
0.65
6.79
8.74
5.36
-1.44
-7.87
-10.32
-7.52
-1.13
5.27
8.29
6.62
1.75
-3.05
-4.77
-2.40
2.41
6.40
6.80
3.04
-2.81
-7.17
-7.14
-2.32
4.89
10.55
11.44
6.94
-0.65
-7.37
-9.91
-7.43
-1.95
3.01
4.54
2.05
-2.46
-5.72
-5.28
-1.00
4.75
8.51
7.83
2.76
-4.09
-9.01
-9.31
-4.88
1.72
6.73
7.33
3.29
-2.98
-7.79
-8.33
-4.37
1.71
6.26
6.59
2.54
-3.40
-7.62
-7.53
-3.15
2.92
7.02
6.73
2.30
-3.47
-6.89
-5.64
-0.18
6.50
10.59
9.68
4.18
-2.93
-7.88
-8.25
-4.30
1.22
4.84
4.43
0.48
-4.28
-6.49
-4.30
1.44
7.66
10.80
8.88
2.73
-4.49
-9.08
-8.96
-4.77
0.56
3.63
2.67
-1.45
-5.80
-7.19
-4.18
1.92
7.86
10.23
7.55
1.15
-5.52
-8.85
-7.12
-1.43
4.93
8.37
7.06
1.86
-4.15
-7.53
-6.43
-1.67
3.83
6.76
5.45
0.80
-4.19
-6.34
-4.24
0.87
5.82
7.44
4.53
-1.35
-6.79
-8.52
-5.45
0.72
6.43
8.47
5.77
0.11
-5.05
-6.59
-3.57
2.16
7.15
8.33
4.87
-1.41
-7.02
-8.88
-6.06
-0.31
4.99
6.85
4.36
-0.77
-5.30
-6.36
-3.25
2.17
6.57
7.15
3.39
-2.63
-7.43
-8.18
-4.45
1.53
6.21
6.76
2.87
-3.12
-7.59
-7.80
-3.55
2.67
7.19
7.36
3.12
-2.92
-7.10
-6.83
-2.22
4.00
8.12
7.62
2.75
-3.68
-7.95
-7.63
-3.05
2.91
6.58
5.68
0.73
-5.30
-8.68
-7.23
-1.63
5.02
8.97
8.05
2.91
-3.34
-7.00
-5.98
-1.00
4.85
7.99
6.44
1.01
-5.16
-8.42
-6.74
-0.91
5.89
9.90
8.91
3.48
-3.32
-7.73
-7.43
-2.87
3.03
6.59
5.62
0.67
-5.23
-8.41
-6.79
-1.16
5.25
8.76
7.36
1.97
-4.21
-7.56
-6.23
-1.17
4.47
7.22
5.39
0.09
-5.50
-8.01
-5.87
-0.26
5.61
8.39
6.55
1.27
-4.29
-6.85
-4.90
0.37
5.85
8.28
6.21
0.83
-4.72
-7.19
-5.15
0.21
5.73
8.20
6.19
0.95
-4.37
-6.56
-4.27
1.11
6.33
8.12
5.24
-0.86
-6.85
-9.53
-7.65
-2.60
2.52
4.69
2.85
-1.58
-5.55
-6.26
-2.94
2.67
7.33
8.20
4.59
-1.65
-7.14
-8.91
-6.10
-0.42
4.75
6.41
3.63
-1.85
-6.68
-7.89
-4.66
1.13
6.07
7.25
4.08
-1.36
-5.53
-5.61
-1.28
5.05
9.63
9.63
4.83
-2.26
-7.85
-9.08
-5.56
0.37
5.18
6.12
2.83
-2.52
-6.55
-6.79
-3.15
2.07
5.53
4.95
0.53
-5.11
-8.48
-7.29
-1.94
4.71
8.99
8.56
3.77
-2.51
-6.65
-6.28
-1.67
4.41
8.43
8.04
3.45
-2.69
-6.84
-6.63
-2.19
3.89
8.06
7.88
3.43
-2.73
-7.05
-7.12
-3.10
2.41
5.90
5.16
0.61
-4.91
-7.89
-6.30
-0.91
5.18
8.38
6.76
1.27
-4.90
-8.18
-6.76
-1.63
4.03
6.78
4.94
-0.46
-6.27
-9.09
-7.21
-1.57
4.79
8.44
7.53
2.80
-2.90
-6.23
-5.34
-0.89
4.34
7.12
5.71
0.85
-4.61
-7.41
-5.78
-0.59
5.20
8.21
6.66
1.39
-4.57
-7.84
-6.64
-1.87
3.43
5.90
3.98
-1.20
-6.45
-8.45
-5.81
0.12
5.97
8.43
6.20
0.73
-4.62
-6.64
-4.12
1.43
6.70
8.56
5.86
0.13
-5.40
-7.61
-5.31
0.10
5.39
7.47
5.11
-0.30
-5.50
-7.35
-4.64
1.13
6.57
8.43
5.57
-0.38
-5.93
-7.82
-5.01
0.68
5.70
6.91
3.57
-2.23
-6.83
-7.28
-3.13
3.22
8.01
8.37
4.04
-2.44
-7.32
-7.85
-3.94
1.89
6.01
5.86
1.45
-4.72
-9.08
-9.14
-4.84
1.36
6.00
6.51
2.73
-3.06
-7.42
-7.74
-3.74
2.31
6.94
7.51
3.76
-2.02
-6.29
-6.43
-2.33
3.56
7.66
7.50
3.23
-2.49
-6.09
-5.31
-0.62
5.08
8.23
6.75
1.35
-4.88
-8.32
-6.89
-1.32
5.28
9.18
8.22
2.94
-3.69
-8.04
-7.84
-3.44
2.40
6.21
5.76
1.44
-4.03
-7.25
-6.15
-1.27
4.50
7.72
6.39
1.24
-4.76
-8.10
-6.87
-1.90
3.80
6.82
5.47
0.73
-4.38
-6.66
-4.67
0.41
5.46
7.37
4.89
-0.58
-5.84
-7.76
-5.16
0.47
5.88
7.90
5.29
-0.52
-6.26
-8.67
-6.36
-0.59
5.42
8.37
6.75
1.66
-3.84
-6.48
-4.75
0.26
5.50
7.71
5.48
0.07
-5.35
-7.51
-5.11
0.42
5.70
7.49
4.65
-1.10
-6.22
-7.50
-4.00
2.30
7.74
9.10
5.56
-0.83
-6.40
-7.99
-4.79
1.25
6.57
8.07
4.92
-1.08
-6.55
-8.53
-6.14
-1.07
3.46
4.61
1.68
-3.49
-7.57
-7.80
-3.72
2.50
7.31
7.92
4.02
-2.00
-6.48
-6.65
-2.33
3.94
8.47
8.55
4.08
-2.44
-7.35
-7.97
-4.06
2.02
6.76
7.48
3.87
-1.83
-6.16
-6.41
-2.30
3.87
8.51
8.85
4.58
-1.94
-7.04
-7.89
-4.17
1.76
6.31
6.72
2.78
-3.16
-7.57
-7.86
-3.92
1.86
6.02
6.13
2.20
-3.29
-6.96
-6.51
-2.16
3.43
6.78
5.72
0.75
-5.16
-8.40
-6.81
-1.09
5.57
9.38
8.13
2.54
-4.17
-8.11
-6.98
-1.45
5.35
9.59
8.96
3.94
-2.53
-6.82
-6.78
-2.88
2.17
5.05
3.95
-0.39
-5.12
-7.12
-4.91
0.40
5.69
7.72
5.10
-0.81
-6.66
-9.08
-6.63
-0.67
5.38
8.09
5.93
0.19
-5.80
-8.60
-6.57
-0.91
5.16
8.19
6.55
1.31
-4.39
-7.18
-5.47
-0.33
5.14
7.67
5.74
0.54
-4.79
-7.00
-4.69
0.83
6.31
8.48
5.92
0.00
-5.95
-8.56
-6.33
-0.56
5.40
8.12
6.02
0.38
-5.50
-8.19
-6.11
-0.52
5.25
7.77
5.53
-0.10
-5.76
-8.06
-5.60
0.16
5.76
7.88
5.36
-0.16
-5.14
-6.44
-3.17
2.68
7.47
8.14
4.12
-2.30
-7.30
-7.89
-3.68
2.86
7.84
8.29
3.85
-3.00
-8.43
-9.49
-5.74
0.54
5.69
6.85
3.58
-1.93
-6.19
-6.56
-2.74
3.00
7.26
7.52
3.70
-1.78
-5.48
-4.97
-0.44
5.45
9.04
7.93
2.37
-4.77
-9.72
-9.91
-5.48
0.87
5.41
5.60
1.55
-4.09
-7.70
-6.91
-2.06
4.04
7.77
6.87
1.82
-4.41
-8.16
-7.16
-1.95
4.47
8.42
7.64
2.60
-3.80
-7.97
-7.66
-3.21
2.67
6.56
6.27
2.13
-3.28
-6.63
-5.87
-1.45
3.96
7.05
5.91
1.20
-4.21
-6.93
-5.09
0.48
6.66
9.89
8.25
2.60
-3.83
-7.43
-6.28
-1.22
4.55
7.47
5.75
0.40
-5.29
-7.85
-5.67
-0.01
5.68
7.83
4.94
-1.48
-7.75
-10.22
-7.40
-0.86
5.71
8.62
6.41
0.60
-5.20
-7.52
-5.01
0.76
6.29
8.24
5.45
-0.46
-6.01
-8.03
-5.44
0.12
5.26
6.91
4.09
-1.48
-6.43
-7.77
-4.59
1.36
6.67
8.32
5.40
-0.34
-5.52
-7.14
-4.30
1.24
6.15
7.44
4.34
-1.34
-6.23
-7.44
-4.28
1.29
5.87
6.59
2.86
-3.22
-8.11
-8.87
-4.88
1.73
7.31
8.79
5.40
-0.81
-6.20
-7.65
-4.38
1.65
6.86
8.15
4.78
-1.29
-6.49
-7.79
-4.47
1.48
6.58
7.84
4.62
-1.10
-5.90
-6.93
-3.62
2.02
6.57
7.32
3.79
-1.88
-6.33
-6.91
-3.38
2.01
5.81
5.57
1.28
-4.57
-8.43
-7.89
-3.10
3.25
7.59
7.52
3.27
-2.53
-6.41
-6.16
-2.13
3.07
6.15
5.19
0.71
-4.57
-7.43
-6.11
-1.38
3.89
6.47
4.70
-0.43
-5.90
-8.34
-6.07
-0.11
6.39
9.89
8.52
3.10
-3.34
-7.25
-6.60
-1.99
3.73
7.17
6.33
1.80
-3.62
-6.59
-5.24
-0.34
5.17
7.90
6.14
0.87
-4.76
-7.27
-4.98
0.91
7.07
9.93
7.78
1.77
-4.80
-8.35
-7.07
-1.94
3.89
6.96
5.51
0.47
-5.09
-7.81
-6.04
-0.84
4.65
7.03
4.82
-0.71
-6.22
-8.32
-5.68
0.17
5.69
7.48
4.35
-1.99
-7.86
-9.84
-6.67
-0.10
6.22
8.83
6.38
0.42
-5.61
-8.35
-6.44
-1.24
4.02
6.17
4.04
-0.92
-5.48
-6.62
-3.45
2.26
7.14
8.24
4.90
-0.87
-5.60
-6.43
-2.88
2.87
7.32
7.68
3.58
-2.75
-7.80
-8.78
-5.17
0.97
6.21
7.75
4.95
-0.32
-4.77
-5.64
-2.30
3.33
7.88
8.54
4.74
-1.48
-6.59
-7.66
-4.11
1.88
6.70
7.42
3.59
-2.49
-7.19
-7.69
-3.77
2.12
6.32
6.26
1.95
-3.94
-7.79
-7.24
-2.61
3.25
6.71
5.60
0.44
-5.71
-9.19
-7.83
-2.23
4.56
8.83
8.30
3.42
-2.97
-7.23
-7.01
-2.55
3.50
7.64
7.51
3.23
-2.73
-6.96
-7.11
-3.26
2.16
5.74
5.20
0.78
-4.90
-8.32
-7.24
-2.10
4.24
8.12
7.35
2.51
-3.34
-6.52
-4.92
0.64
6.90
10.14
8.31
2.31
-4.60
-8.70
-7.92
-2.98
3.10
6.79
6.14
1.80
-3.39
-6.17
-4.82
-0.15
4.93
7.24
5.24
0.08
-5.10
-6.96
-4.07
2.13
8.15
10.45
7.51
0.80
-6.14
-9.65
-8.13
-2.83
2.94
5.78
4.17
-0.66
-5.58
-7.39
-4.80
0.84
6.27
8.26
5.50
-0.60
-6.69
-9.36
-7.20
-1.56
4.23
6.81
4.78
-0.47
-5.66
-7.54
-4.90
0.72
5.92
7.51
4.47
-1.45
-6.77
-8.30
-5.17
0.72
5.83
7.12
3.86
-1.87
-6.55
-7.24
-3.43
2.68
7.51
8.23
4.42
-1.69
-6.54
-7.29
-3.56
2.46
7.26
8.09
4.52
-1.32
-6.00
-6.82
-3.37
2.26
6.71
7.32
3.70
-2.09
-6.68
-7.35
-3.67
2.30
7.18
8.22
4.89
-0.84
-5.62
-6.66
-3.45
1.99
6.29
6.71
2.81
-3.25
-7.95
-8.49
-4.51
1.70
6.52
7.19
3.40
-2.49
-6.87
-7.12
-3.13
2.61
6.56
6.27
1.84
-4.09
-8.01
-7.57
-3.02
2.96
6.83
6.31
1.76
-4.12
-7.78
-7.01
-2.20
3.86
7.66
7.03
2.47
-3.17
-6.32
-4.94
0.31
6.37
9.63
8.04
2.40
-4.12
-7.86
-6.79
-1.72
4.23
7.51
6.19
1.11
-4.65
-7.63
-5.99
-0.64
5.34
8.43
6.74
1.08
-5.45
-9.27
-8.36
-3.40
2.63
6.21
5.39
0.91
-4.28
-6.80
-4.97
0.19
5.56
7.88
5.69
0.32
-5.00
-7.04
-4.53
1.03
6.34
8.24
5.58
-0.12
-5.62
-7.82
-5.59
-0.35
4.75
6.64
4.15
-1.35
-6.70
-8.80
-6.38
-0.75
4.97
7.66
5.97
1.10
-3.92
-6.05
-4.03
0.87
5.63
7.29
4.69
-0.68
-5.65
-7.18
-4.20
1.66
7.04
8.78
5.80
-0.31
-6.17
-8.62
-6.56
-1.48
3.45
5.34
3.28
-1.16
-4.91
-5.31
-1.67
4.23
9.08
10.06
6.38
-0.14
-6.13
-8.54
-6.41
-1.36
3.43
5.11
2.88
-1.58
-5.16
-5.29
-1.51
4.16
8.42
8.60
4.34
-2.18
-7.46
-8.67
-5.35
0.41
5.20
6.33
3.40
-1.51
-5.13
-5.04
-1.08
4.46
8.21
7.69
2.88
-3.77
-8.71
-9.31
-5.41
0.62
5.30
6.08
2.79
-2.35
-6.09
-6.15
-2.60
2.25
5.27
4.41
-0.02
-5.52
-8.89
-8.07
-3.37
2.73
7.00
7.28
3.66
-1.60
-5.40
-5.58
-2.13
2.78
6.14
5.83
1.97
-3.14
-6.39
-5.68
-1.27
4.35
7.89
7.22
2.70
-3.06
-6.67
-6.02
-1.60
3.85
6.94
5.69
0.79
-4.83
-7.68
-5.85
-0.11
6.42
10.07
8.73
3.09
-3.76
-8.12
-7.81
-3.41
2.22
5.67
5.10
1.22
-3.25
-5.29
-3.49
1.09
5.57
7.02
4.25
-1.40
-6.75
-8.63
-5.72
0.52
6.66
9.16
6.44
-0.09
-6.80
-9.90
-7.66
-1.41
5.17
8.27
6.17
0.26
-5.91
-8.77
-6.85
-1.58
3.69
5.81
3.68
-1.09
-5.29
-6.00
-2.46
3.49
8.41
9.25
5.19
-1.80
-7.98
-9.96
-6.64
0.17
6.69
9.40
7.01
1.14
-4.69
-7.17
-5.18
-0.27
4.35
5.85
3.51
-1.05
-4.86
-5.52
-2.60
2.10
5.66
5.77
2.19
-3.10
-6.93
-6.84
-2.51
3.89
8.92
9.78
5.91
-0.61
-6.27
-8.15
-5.54
-0.37
4.03
4.96
1.97
-2.86
-6.22
-5.65
-1.07
5.09
9.29
9.03
4.34
-2.21
-6.99
-7.40
-3.42
2.41
6.55
6.48
2.22
-3.70
-7.80
-7.71
-3.56
2.14
5.94
5.59
1.40
-3.98
-7.07
-5.74
-0.54
5.63
9.15
7.89
2.42
-4.28
-8.57
-8.17
-3.47
2.74
6.91
6.73
2.41
-3.46
-7.45
-7.27
-3.07
2.62
6.37
5.94
1.63
-3.88
-7.10
-5.91
-0.86
5.07
8.27
6.69
1.20
-4.97
-8.15
-6.40
-0.76
5.42
8.51
6.72
1.18
-4.76
-7.59
-5.67
-0.20
5.52
8.10
6.01
0.48
-5.24
-7.81
-5.75
-0.29
5.37
7.90
5.81
0.31
-5.41
-8.01
-5.95
-0.40
5.48
8.31
6.50
1.18
-4.51
-7.17
-5.18
0.33
6.17
8.92
6.95
1.38
-4.57
-7.47
-5.70
-0.38
5.31
7.97
6.06
0.70
-4.91
-7.48
-5.47
-0.07
5.51
7.92
5.70
0.07
-5.71
-8.35
-6.40
-1.17
4.06
6.07
3.65
-1.68
-6.57
-7.93
-4.82
0.94
5.87
6.96
3.51
-2.39
-7.18
-7.95
-4.19
1.89
6.72
7.48
3.76
-2.25
-7.02
-7.84
-4.27
1.55
6.16
6.81
3.07
-2.93
-7.69
-8.45
-4.76
1.24
6.07
7.01
3.69
-1.72
-5.80
-5.98
-2.07
3.58
7.51
7.24
2.79
-3.28
-7.38
-7.03
-2.28
4.22
8.81
8.87
4.42
-1.99
-6.72
-7.25
-3.61
1.69
5.21
4.73
0.56
-4.62
-7.43
-5.82
-0.36
6.02
9.74
8.59
3.08
-3.86
-8.55
-8.68
-4.61
0.89
4.33
3.58
-0.85
-6.05
-8.54
-6.35
-0.28
6.54
10.42
9.34
4.04
-2.42
-6.40
-5.86
-1.42
3.99
6.94
5.57
0.65
-4.82
-7.49
-5.66
-0.32
5.44
8.26
6.56
1.47
-3.84
-6.05
-3.71
1.87
7.34
9.34
6.43
0.02
-6.46
-9.54
-7.65
-2.05
3.99
7.05
5.56
0.66
-4.48
-6.55
-4.13
1.49
6.99
9.02
6.21
-0.04
-6.32
-9.18
-7.14
-1.57
4.14
6.54
4.20
-1.41
-6.82
-8.62
-5.52
0.82
6.83
9.10
6.43
0.51
-5.12
-7.17
-4.55
1.01
5.99
7.25
3.87
-2.25
-7.55
-8.92
-5.51
0.69
6.13
7.72
4.73
-0.89
-5.60
-6.48
-2.92
2.93
7.45
7.71
3.26
-3.57
-9.03
-10.02
-5.98
0.87
6.82
8.79
6.10
0.75
-3.78
-4.68
-1.43
3.81
7.57
7.17
2.42
-4.23
-9.10
-9.41
-4.99
1.64
6.76
7.57
3.86
-1.99
-6.43
-6.88
-3.25
2.05
5.64
5.14
0.71
-5.08
-8.75
-7.94
-2.86
3.79
8.32
8.21
3.55
-3.01
-7.77
-8.14
-4.15
1.64
5.65
5.51
1.45
-3.79
-6.66
-4.94
0.84
7.62
11.51
10.11
3.91
-3.94
-9.44
-10.00
-5.90
0.03
4.17
4.31
0.83
-3.57
-5.71
-3.88
1.08
6.28
8.48
6.07
0.14
-6.11
-9.10
-6.98
-0.70
6.41
10.55
9.56
4.15
-2.54
-6.82
-6.57
-2.39
2.83
5.77
4.68
0.39
-4.26
-6.17
-3.91
1.42
6.74
8.80
6.12
-0.09
-6.55
-9.79
-8.13
-2.71
3.25
6.34
4.97
0.27
-4.59
-6.41
-3.86
1.70
6.94
8.60
5.46
-0.91
-6.99
-9.38
-6.74
-0.64
5.44
8.13
6.11
0.87
-4.21
-5.95
-3.29
2.08
6.72
7.54
3.73
-2.73
-8.25
-9.70
-6.26
0.08
5.75
7.63
4.88
-0.65
-5.57
-6.95
-4.10
1.07
5.20
5.54
1.69
-4.16
-8.46
-8.43
-3.75
3.19
8.63
9.64
5.78
-0.63
-5.97
-7.37
-4.42
0.75
4.87
5.49
2.50
-1.98
-4.88
-4.13
0.12
5.49
8.76
7.74
2.61
-4.07
-8.70
-8.74
-4.18
2.42
7.35
7.87
3.82
-2.36
-7.09
-7.81
-4.38
0.85
4.61
4.71
1.35
-3.05
-5.39
-3.78
1.21
6.82
9.65
7.70
1.64
-5.44
-9.69
-8.71
-3.02
4.20
8.89
8.48
3.34
-3.43
-7.86
-7.51
-2.75
3.44
7.39
6.94
2.59
-2.95
-6.43
-6.06
-2.39
2.08
4.59
3.70
0.15
-3.68
-5.24
-3.34
1.09
5.50
7.21
4.97
-0.23
-5.60
-8.11
-6.22
-0.84
5.10
8.26
6.80
1.53
-4.51
-7.82
-6.47
-1.32
4.48
7.33
5.38
-0.32
-6.43
-9.35
-7.32
-1.57
4.46
7.19
5.05
-0.53
-6.02
-7.92
-4.87
1.50
7.55
9.77
6.87
0.56
-5.49
-7.80
-5.16
0.64
5.96
7.41
3.97
-2.42
-7.97
-9.31
-5.53
1.24
7.09
8.58
4.84
-1.95
-7.80
-9.28
-5.54
1.25
7.20
9.02
5.89
-0.13
-5.42
-6.98
-4.14
1.12
5.50
6.32
3.16
-2.03
-6.11
-6.64
-3.30
1.98
6.17
6.95
4.01
-0.85
-4.72
-5.35
-2.44
2.23
5.80
6.09
2.82
-2.14
-5.87
-6.11
-2.62
2.63
6.56
6.78
3.08
-2.37
-6.24
-6.01
-1.60
4.53
8.67
8.11
2.85
-4.33
-9.41
-9.53
-4.68
2.23
7.04
6.93
2.07
-4.49
-8.62
-7.67
-2.08
4.88
9.07
7.98
2.26
-4.62
-8.47
-6.88
-0.69
6.49
10.41
8.65
2.08
-5.64
-10.21
-9.19
-3.39
3.71
7.96
7.05
1.76
-4.57
-8.05
-6.60
-1.09
5.19
8.57
7.15
1.85
-4.18
-7.45
-6.19
-1.29
4.30
7.41
6.43
2.22
-2.52
-4.94
-3.68
0.37
4.70
6.71
5.26
1.32
-2.70
-4.38
-2.78
1.00
4.47
5.30
2.71
-1.98
-6.06
-7.02
-4.06
1.33
6.16
7.64
4.80
-0.81
-5.97
-7.63
-4.79
0.86
5.83
6.84
2.92
-3.97
-9.94
-11.45
-7.43
0.03
6.83
9.28
6.25
-0.24
-6.27
-8.41
-5.71
-0.15
4.68
5.81
2.69
-2.64
-6.81
-7.22
-3.62
1.83
5.86
6.05
2.26
-3.38
-7.66
-8.18
-4.69
0.85
5.41
6.62
4.09
-0.42
-4.07
-4.58
-1.55
3.27
7.04
7.50
4.27
-0.82
-4.85
-5.48
-2.39
2.47
6.04
6.00
2.22
-3.09
-6.69
-6.24
-1.82
4.07
7.91
7.34
2.60
-3.53
-7.34
-6.41
-1.13
5.42
9.26
7.88
1.79
-5.68
-10.26
-9.24
-3.07
4.85
10.10
9.84
4.41
-2.94
-8.00
-8.11
-3.61
2.49
6.43
6.00
1.75
-3.46
-6.33
-5.11
-0.65
4.28
6.64
5.06
0.55
-4.04
-5.81
-3.51
1.66
6.64
8.35
5.43
-0.81
-7.01
-9.63
-7.03
-0.46
6.51
9.96
7.89
1.41
-5.90
-10.08
-9.06
-3.82
2.28
5.54
4.18
-0.77
-6.15
-8.66
-6.81
-1.80
3.38
5.68
3.92
-0.69
-5.22
-6.86
-4.60
0.19
4.53
5.59
2.39
-3.58
-9.16
-11.32
-8.96
-3.58
1.56
3.30
0.48
-5.43
-11.10
-13.43
-11.39
-6.67
-2.69
-2.48
-6.77
-13.45
-18.81
-19.88
-16.24
-10.48
-6.66
-7.82
-14.06
-22.35
-28.31
-28.84
-24.00
-17.05
-12.50
-13.36
-19.27
-26.62
-30.50
-27.33
-16.68
-1.37
14.10
25.75
31.71
32.44
29.98
26.49
23.48
21.60
20.98
21.79
24.44
29.49
37.17
47.12
58.24
68.95
77.61
83.00
84.63
82.98
79.13
74.40
69.76
65.69
62.01
58.22
53.70
48.07
41.25
33.42
24.82
15.69
6.07
-4.05
-14.60
-25.46
-36.33
-46.61
-55.60
-62.62
-67.25
-69.37
-69.15
-67.04
-63.22
-58.17
-52.38
-46.26
-40.11
-34.06
-28.22
-22.67
-17.67
-13.47
-10.44
-8.97
-9.42
-12.24
-17.56
-25.26
-34.97
-46.15
-57.91
-69.18
-78.74
-85.43
-88.32
-86.86
-80.90
-70.10
-55.39
-38.16
-19.96
-2.28
13.70
27.15
37.64
45.12
49.78
51.92
52.04
50.72
48.47
45.74
42.85
40.01
37.31
34.78
32.30
29.85
27.42
25.06
22.82
20.72
18.80
17.05
15.43
13.89
12.38
10.93
9.54
8.25
7.07
6.01
5.07
4.23
3.45
2.71
2.02
1.38
0.79
0.27
-0.20
-0.54
-0.82
-1.07
-1.29
-1.48
-1.65
-1.78
-1.89
-1.95
-1.98
-1.98
-1.95
-1.91
-1.84
-1.75
-1.67
-1.58
-1.49
-1.40
-1.33
-1.26
-1.20
-1.14
-1.09
-1.04
-0.99
-0.95
-0.90
-0.87
-0.83
-0.80
-0.77
-0.74
-0.72
-0.69
-0.67
-0.64
-0.62
-0.61
-0.59
-0.57
-0.56
-0.54
-0.53
-0.51
-0.50
-0.49
-0.48
-0.46
-0.45
-0.44
-0.43
-0.42
-0.42
-0.40
-0.39
-0.39
-0.37
-0.37
-0.36
-0.35
-0.35
-0.34
-0.34
-0.33
-0.32
-0.31
-0.30
-0.28
-0.25
-0.22
-0.18
-0.14
-0.08
-0.02
0.06
0.14
0.22
0.31
0.41
0.51
0.60
0.70
0.80
0.90
1.01
1.13
1.25
1.39
1.53
1.69
1.86
2.06
2.27
2.51
2.78
3.08
3.42
3.79
4.20
4.66
5.17
5.72
6.34
7.02
7.75
8.55
9.41
10.35
11.37
12.49
13.69
14.94
16.24
17.56
18.89
20.28
21.75
23.39
25.20
27.18
29.29
31.47
33.69
35.93
38.13
40.29
42.38
44.22
45.56
46.07
45.42
43.35
39.73
34.54
27.97
20.34
11.97
3.06
-6.20
-15.68
-25.14
-33.79
-41.41
-47.43
-51.43
-53.33
-53.52
-52.73
-51.79
-51.55
-51.94
-52.65
-52.95
-52.22
-50.27
-47.51
-44.90
-43.47
-43.88
-45.99
-49.00
-51.63
-52.91
-52.43
-50.69
-48.74
-47.66
-48.29
-51.15
-56.51
-64.09
-72.48
-78.82
-79.25
-70.32
-50.88
-23.32
7.01
33.65
51.81
60.10
60.57
56.97
52.54
48.75
45.23
41.16
36.32
31.58
28.27
27.14
27.81
28.85
28.70
26.21
21.53
15.83
10.75
7.60
6.76
7.54
8.48
8.11
5.61
1.31
-3.59
-7.54
-9.41
-9.08
-7.44
-6.14
-6.58
-9.47
-14.20
-19.28
-22.89
-23.80
-21.85
-18.02
-13.94
-10.82
-9.03
-7.55
-4.49
2.11
13.67
30.68
52.61
77.67
102.67
122.98
133.29
129.21
109.45
76.80
37.65
-0.65
-33.22
-59.64
-83.46
-108.81
-136.94
-163.33
-180.96
-183.08
-167.30
-137.48
-101.68
-68.62
-44.51
-32.26
-32.31
-43.47
-63.00
-85.95
-104.75
-110.70
-97.47
-64.41
-17.60
32.38
74.70
103.59
119.14
125.25
126.35
124.88
121.09
114.59
106.08
97.57
91.56
89.52
91.03
94.07
96.13
95.55
91.57
85.22
78.61
74.12
73.13
75.76
80.69
85.74
88.50
87.29
81.75
72.89
63.04
53.96
46.99
42.15
38.09
32.56
23.47
10.15
-6.52
-23.40
-37.18
-45.33
-47.07
-43.27
-35.88
-27.19
-19.48
-14.77
-15.03
-21.72
-35.12
-53.77
-74.60
-94.17
-109.79
-120.82
-128.48
-135.10
-142.41
-149.18
-152.51
-147.36
-129.64
-99.17
-61.64
-25.24
0.78
10.81
5.48
-8.55
-22.15
-28.44
-25.78
-18.28
-11.89
-9.79
-9.61
-4.80
11.00
39.57
76.13
111.28
135.70
143.98
136.84
119.98
100.73
84.16
71.35
60.05
46.87
30.63
12.57
-4.21
-16.50
-22.82
-24.02
-22.54
-21.33
-22.31
-25.71
-30.44
-34.60
-36.69
-36.28
-34.15
-31.78
-30.59
-31.32
-33.70
-36.83
-39.60
-41.22
-41.55
-40.99
-40.21
-39.74
-39.70
-39.74
-39.33
-37.95
-35.29
-31.42
-26.66
-21.45
-16.15
-10.98
-6.00
-1.29
3.15
7.22
10.82
13.82
16.13
17.74
18.68
19.00
18.78
18.07
16.93
15.38
13.50
11.33
8.91
6.34
3.70
1.00
-1.71
-4.38
-6.95
-9.36
-11.57
-13.60
-15.42
-17.09
-18.69
-20.33
-22.08
-23.95
-25.94
-28.08
-30.44
-32.93
-35.62
-38.60
-41.99
-45.79
-49.86
-54.02
-58.08
-62.07
-65.74
-69.24
-72.86
-76.85
-81.21
-85.60
-89.54
-92.59
-94.63
-95.39
-95.16
-94.43
-93.47
-91.91
-88.66
-81.92
-69.44
-53.05
-33.58
-12.26
9.44
30.59
50.81
70.82
91.69
114.42
139.77
168.42
200.01
233.12
265.45
294.02
315.58
327.34
327.69
316.99
298.43
275.88
252.96
231.89
213.22
196.55
181.43
168.19
157.89
152.17
150.47
149.88
147.04
139.85
129.02
117.80
110.11
108.64
113.77
121.92
126.64
121.33
101.14
64.47
13.53
-46.34
-112.35
-175.66
-227.22
-263.30
-287.05
-304.82
-320.12
-331.54
-333.96
-322.65
-295.61
-255.74
-212.23
-170.74
-135.38
-108.02
-88.83
-76.41
-67.83
-58.48
-44.53
-24.57
0.08
24.84
44.94
58.09
65.03
68.26
70.84
74.24
77.83
79.89
76.76
66.28
46.74
17.45
-20.35
-61.86
-99.51
-125.11
-132.67
-121.97
-99.18
-74.89
-59.42
-57.68
-66.76
-77.96
-81.65
-72.33
-51.47
-25.66
-2.90
11.63
17.67
18.57
18.14
18.28
18.79
18.52
16.99
14.85
13.12
12.27
11.75
10.33
6.94
1.58
-4.19
-7.65
-5.92
2.65
16.82
31.56
38.54
29.44
0.80
-42.93
-88.98
-119.94
-120.65
-85.05
-19.84
57.34
124.44
163.11
166.40
140.02
97.87
54.78
20.71
-1.62
-14.95
-23.75
-30.86
-36.48
-39.80
-40.43
-38.88
-35.38
-28.31
-14.66
7.76
37.41
68.16
91.55
100.63
93.43
73.64
48.18
23.56
3.41
-11.57
-22.01
-28.19
-29.82
-27.08
-21.62
-16.52
-14.89
-18.20
-25.66
-34.49
-41.43
-44.10
-42.06
-36.58
-30.23
-25.84
-25.25
-28.55
-34.11
-39.33
-42.12
-41.63
-38.85
-35.60
-33.23
-31.51
-28.67
-22.93
-13.80
-2.17
10.47
22.97
34.54
44.27
50.50
51.53
47.13
39.89
35.17
38.90
54.50
80.14
108.63
129.97
135.52
121.71
91.30
51.99
12.72
-19.06
-39.62
-49.23
-51.12
-49.44
-47.73
-47.82
-49.72
-52.19
-52.73
-48.23
-35.78
-13.76
16.72
51.29
83.16
106.00
115.74
112.22
98.56
79.01
56.96
34.08
10.90
-11.91
-32.59
-48.69
-58.12
-60.32
-56.73
-50.21
-43.97
-40.13
-39.22
-40.24
-41.72
-42.59
-42.61
-42.29
-42.11
-41.80
-40.27
-36.08
-28.32
-17.87
-7.01
1.78
7.59
11.63
16.38
23.47
31.95
38.61
39.49
32.81
20.63
8.32
1.60
3.32
12.70
23.46
30.37
30.16
22.92
11.24
-0.94
-9.78
-11.90
-4.41
14.41
44.45
82.23
121.43
154.93
178.45
192.43
201.55
211.66
225.89
242.87
257.19
262.97
255.00
233.21
202.09
168.01
135.87
107.11
80.43
53.79
26.66
0.58
-21.80
-38.94
-51.88
-64.09
-80.09
-103.35
-134.77
-171.75
-208.61
-238.11
-254.20
-254.65
-242.27
-223.97
-207.73
-199.09
-198.90
-203.29
-205.81
-200.80
-185.79
-162.25
-134.31
-106.93
-84.27
-68.94
-61.73
-61.50
-65.33
-69.11
-69.02
-62.90
-51.15
-36.56
-23.09
-14.34
-12.34
-17.34
-27.89
-41.23
-53.40
-59.83
-56.76
-42.66
-19.32
8.31
33.59
50.53
55.80
49.32
33.58
12.06
-11.63
-34.36
-53.53
-67.28
-74.49
-74.70
-67.96
-54.80
-36.71
-15.72
5.64
24.93
40.43
52.16
61.99
72.63
85.73
99.08
108.37
109.44
100.54
83.39
62.77
45.00
35.45
36.59
44.52
53.30
58.34
57.92
52.40
43.20
32.27
21.12
11.10
-0.92
-16.67
-34.09
-48.31
-55.36
-54.56
-48.23
-41.46
-39.39
-51.29
-81.97
-128.61
-182.57
-234.75
-279.03
-312.54
-336.15
-319.74
-250.30
-141.61
-25.29
74.15
148.75
201.05
236.96
258.01
268.52
265.03
245.24
211.47
169.45
123.61
74.18
30.85
-0.22
-15.82
-21.77
-25.02
-28.64
-31.37
-30.97
-26.33
-17.43
-6.53
4.48
11.63
12.82
9.11
3.64
-0.78
-2.69
-1.62
1.04
4.01
5.18
3.34
-1.00
-6.32
-11.25
-15.04
-17.33
-18.84
-20.13
-21.90
-24.66
-28.20
-31.91
-35.33
-38.16
-40.06
-41.15
-42.97
-44.54
-45.84
-47.17
-49.07
-52.21
-56.99
-63.39
-71.22
-79.72
-87.96
-95.40
-101.57
-106.60
-111.29
-116.88
-124.44
-134.17
-144.79
-153.59
-157.29
-152.61
-137.98
-114.33
-84.95
-54.60
-28.33
-10.21
-2.64
-6.25
-19.22
-38.22
-59.18
-78.16
-92.12
-99.63
-100.68
-95.68
-88.46
-80.96
-74.33
-68.74
-64.26
-60.69
-57.97
-55.96
-54.23
-52.09
-48.40
-42.55
-34.56
-25.25
-15.27
-5.41
3.84
12.67
21.88
33.04
47.21
64.43
83.40
103.18
121.94
137.77
149.70
158.46
166.38
175.88
188.25
202.92
220.51
239.63
257.89
273.61
287.44
302.49
322.92
352.52
393.50
449.35
517.74
589.94
653.70
698.13
717.51
712.57
689.25
655.66
623.85
598.89
577.35
550.49
509.91
451.61
376.99
292.12
174.23
26.79
-127.24
-260.80
-360.45
-428.84
-474.87
-505.59
-523.83
-530.56
-522.48
-501.33
-473.58
-446.51
-423.70
-404.04
-384.81
-362.98
-338.26
-308.92
-276.93
-246.79
-222.99
-207.37
-199.53
-197.08
-197.36
-199.10
-199.80
-198.99
-197.84
-197.77
-199.02
-200.41
-200.54
-197.98
-192.57
-183.92
-172.89
-161.15
-150.47
-141.88
-135.54
-131.16
-128.00
-125.88
-124.43
-123.55
-123.23
-123.31
-123.14
-121.47
-119.61
-117.71
-115.89
-114.25
-112.83
-111.52
-110.14
-108.46
-106.34
-103.76
-100.43
-96.33
-91.60
-86.32
-80.52
-74.08
-66.88
-58.87
-50.20
-40.89
-31.27
-21.76
-12.56
-3.59
5.52
15.30
26.18
38.18
51.12
64.42
77.44
90.05
102.62
116.04
131.32
149.16
169.63
192.06
215.33
238.23
260.62
282.89
306.03
331.09
358.91
390.06
424.89
463.42
504.84
547.91
589.55
625.45
651.58
665.98
669.76
666.40
659.72
651.48
641.75
627.50
604.47
569.41
521.48
462.37
395.09
322.49
246.58
170.67
97.23
28.03
-35.80
-93.73
-145.37
-190.33
-227.94
-267.02
-309.44
-352.95
-392.41
-422.68
-441.50
-450.08
-452.38
-451.89
-453.20
-456.24
-457.95
-452.47
-432.37
-391.10
-325.78
-238.96
-141.16
-48.06
26.42
72.57
88.08
77.56
49.01
10.31
-32.43
-74.08
-107.93
-124.67
-117.82
-86.91
-39.31
11.45
50.84
69.73
66.80
50.34
35.49
33.57
46.87
69.30
92.17
108.94
119.60
126.08
129.83
130.29
121.99
98.83
58.92
4.38
-59.52
-126.73
-192.82
-254.89
-311.76
-366.90
-423.10
-480.05
-533.95
-579.24
-611.01
-627.23
-628.09
-594.69
-519.53
-407.75
-276.10
-144.33
-26.73
70.80
147.80
206.86
251.35
280.79
295.18
296.34
288.25
275.49
262.43
250.00
237.69
224.39
206.29
180.67
146.87
106.43
62.01
19.89
-16.37
-45.05
-65.60
-79.81
-89.21
-99.74
-110.57
-119.19
-123.28
-121.87
-114.71
-101.99
-85.14
-65.57
-37.35
-1.33
39.20
80.25
118.32
151.17
178.02
198.64
213.33
222.43
226.13
225.36
220.93
214.51
206.15
195.88
183.73
169.85
153.57
134.33
113.08
91.26
71.00
54.12
41.96
35.14
33.55
33.89
32.17
31.51
33.61
39.83
50.00
62.58
75.05
84.70
85.51
73.12
47.15
10.40
-32.08
-75.66
-117.13
-154.85
-188.27
-222.50
-261.90
-307.68
-358.26
-410.70
-463.58
-517.63
-574.99
-606.23
-592.96
-534.39
-447.84
-355.40
-271.23
-200.21
-141.97
-94.59
-56.07
-29.75
-18.28
-21.62
-35.87
-54.31
-69.48
-74.43
-64.17
-37.25
-0.58
35.90
63.00
76.26
76.68
68.94
59.04
51.78
49.88
50.66
52.55
55.42
61.49
73.63
93.36
119.83
150.15
179.51
203.39
219.47
227.49
229.24
227.16
223.03
217.57
210.34
201.00
189.20
175.17
159.64
143.88
129.05
115.74
105.69
96.94
88.27
79.09
69.24
58.83
48.22
37.80
27.81
18.23
9.11
0.82
-6.49
-12.91
-18.60
-23.61
-27.88
-31.40
-34.32
-36.11
-36.32
-35.29
-34.14
-34.25
-36.69
-41.99
-50.11
-60.66
-71.30
-79.74
-84.55
-85.23
-81.69
-73.48
-59.54
-38.34
-10.19
26.43
71.77
123.78
178.42
230.87
276.77
312.90
337.25
336.93
306.39
249.09
176.21
100.73
32.06
-25.34
-70.59
-104.85
-130.11
-146.42
-154.32
-155.58
-152.95
-149.26
-146.48
-145.47
-146.33
-148.78
-150.77
-150.87
-149.00
-146.20
-143.63
-141.89
-140.74
-139.33
-136.75
-131.51
-121.98
-107.74
-89.44
-68.13
-44.68
-19.81
5.57
29.93
52.09
70.26
82.30
86.52
82.44
71.17
55.12
37.21
19.94
5.81
-3.73
-7.87
-6.06
2.58
19.31
45.38
81.66
123.59
167.26
209.11
245.64
272.68
284.88
276.81
245.33
192.20
124.84
55.14
-5.18
-48.66
-74.03
-85.21
-88.11
-87.45
-85.52
-82.63
-78.35
-73.33
-69.49
-68.55
-70.68
-73.70
-74.12
-68.76
-56.87
-40.32
-22.74
-7.86
2.35
8.12
11.28
13.74
16.36
19.33
21.18
20.94
18.38
14.07
8.79
3.25
-2.11
-7.13
-11.68
-15.80
-19.16
-21.33
-22.07
-21.46
-19.88
-18.04
-16.68
-15.96
-15.80
-15.40
-14.38
-12.78
-11.25
-10.52
-11.00
-12.39
-13.72
-13.90
-12.17
-8.83
-5.21
-2.97
-3.19
-5.84
-9.87
-13.51
-15.21
-14.06
-10.30
-5.31
-0.78
2.27
3.73
4.02
3.71
3.09
2.12
0.44
-2.57
-6.91
-11.91
-16.79
-21.59
-26.85
-32.61
-37.40
-38.99
-35.38
-25.51
-9.16
12.46
36.90
61.76
85.55
108.28
129.80
148.97
163.73
172.44
173.01
163.16
141.89
106.66
62.19
18.62
-14.81
-38.23
-55.64
-70.49
-85.77
-102.84
-120.97
-137.48
-150.04
-157.21
-157.99
-150.53
-133.89
-109.23
-80.08
-51.58
-28.49
-14.53
-11.44
-18.31
-29.43
-37.82
-37.39
-26.00
-6.97
12.89
25.37
23.94
6.65
-22.29
-54.69
-81.49
-96.20
-96.91
-86.07
-68.91
-50.96
-36.13
-25.48
-18.75
-15.44
-15.60
-19.59
-27.23
-37.34
-47.77
-56.31
-61.06
-61.61
-58.98
-54.93
-50.72
-46.60
-41.64
-34.25
-23.07
-7.35
12.26
32.94
52.17
67.70
78.04
82.63
83.67
81.38
76.06
67.80
56.97
43.90
28.75
11.76
-6.59
-25.53
-43.73
-59.65
-72.12
-79.47
-80.70
-76.11
-67.10
-55.78
-44.26
-33.57
-23.92
-14.95
-4.15
10.77
31.11
57.08
88.49
119.84
148.64
174.03
196.34
218.87
244.41
273.93
306.27
338.35
366.69
389.37
405.63
401.91
372.30
318.71
250.19
178.20
110.84
51.57
1.12
-41.02
-75.24
-99.35
-111.66
-111.78
-99.79
-78.57
-52.10
-25.02
-3.03
8.10
5.94
-8.94
-34.47
-63.07
-85.85
-96.60
-94.09
-81.77
-65.10
-47.58
-30.25
-12.66
5.24
22.87
38.02
47.69
49.64
43.73
33.04
22.63
17.37
20.43
31.20
45.17
55.16
54.25
37.67
6.69
-35.30
-84.22
-135.10
-182.01
-218.17
-237.40
-234.20
-205.68
-153.23
-82.55
-5.14
65.65
118.93
148.37
152.04
133.54
100.31
61.11
24.75
-5.80
-31.54
-55.09
-79.87
-110.96
-152.02
-203.99
-264.44
-326.27
-384.05
-433.08
-469.59
-473.94
-434.92
-353.51
-244.24
-147.43
-75.97
-30.95
-9.29
-1.16
-2.69
-15.68
-43.26
-87.80
-149.09
-222.32
-301.32
-376.23
-433.95
-462.65
-456.70
-416.85
-349.50
-251.29
-127.97
4.81
129.26
233.42
312.51
365.74
394.70
402.36
393.28
373.26
347.80
321.86
299.07
280.43
264.12
248.12
230.97
212.39
192.98
173.90
156.61
142.33
130.91
120.79
110.82
102.10
93.31
83.90
74.17
64.92
56.85
49.99
43.49
37.65
32.73
29.16
27.69
29.21
34.38
43.30
55.32
65.08
71.92
75.88
77.48
78.07
79.62
83.99
91.78
103.91
114.88
119.78
114.89
99.74
77.80
55.08
37.63
28.78
27.29
27.69
24.42
12.85
-8.92
-39.94
-76.44
-112.79
-142.69
-157.16
-149.06
-114.57
-56.93
12.87
77.96
122.35
136.50
120.23
80.02
26.18
-30.82
-84.44
-132.66
-177.32
-219.51
-257.77
-288.66
-310.79
-323.78
-327.78
-323.03
-310.09
-291.18
-267.50
-238.70
-190.94
-122.11
-41.24
37.82
102.07
153.53
194.57
226.42
247.10
253.85
242.68
212.64
164.63
108.69
59.15
25.48
9.45
6.88
12.01
19.08
25.54
31.74
39.39
49.09
58.56
65.32
68.21
67.82
64.98
61.33
58.23
57.71
60.26
63.79
65.54
63.37
56.48
44.96
30.37
15.69
4.63
0.54
5.10
18.11
37.63
60.28
81.54
96.85
105.36
105.94
99.53
89.26
79.53
74.36
75.70
82.53
91.54
98.89
101.79
99.92
94.86
88.57
82.03
74.73
65.12
51.82
34.56
14.12
-7.51
-28.12
-45.94
-59.90
-69.58
-75.14
-76.98
-75.74
-72.35
-67.53
-61.87
-55.85
-49.73
-43.55
-36.96
-29.21
-19.44
-7.25
6.95
21.74
34.92
44.26
48.28
46.72
40.40
30.69
18.79
5.51
-8.78
-23.75
-38.74
-52.69
-64.48
-73.34
-79.18
-82.54
-84.32
-85.31
-85.95
-86.40
-86.66
-86.75
-86.71
-86.43
-85.63
-84.03
-81.58
-78.61
-75.77
-73.57
-72.13
-71.00
-69.48
-66.96
-63.22
-58.29
-52.23
-45.07
-36.82
-27.82
-19.00
-11.64
-6.90
-5.18
-5.84
-7.48
-8.52
-7.93
-5.58
-2.07
1.69
5.10
7.97
10.60
13.33
16.23
18.96
20.84
21.15
19.47
15.87
10.89
5.32
-0.06
-4.65
-8.15
-10.41
-11.47
-11.42
-10.51
-9.21
-8.09
-7.71
-8.26
-9.44
-10.54
-10.73
-9.60
-7.37
-4.92
-3.25
-2.98
-4.02
-5.59
-6.87
-7.79
-9.33
-13.21
-20.79
-31.94
-44.47
-54.58
-58.30
-53.16
-39.37
-19.81
0.80
17.44
26.24
25.33
15.19
-1.58
-20.85
-37.84
-48.35
-49.93
-42.70
-29.25
-13.65
0.20
10.00
15.65
18.88
22.04
26.75
33.11
39.78
44.79
46.82
45.98
43.97
43.30
46.10
53.03
63.00
73.57
82.12
86.93
87.77
85.68
82.20
78.59
75.44
72.80
70.46
68.33
66.38
64.58
62.89
61.35
60.05
59.03
57.97
56.04
52.12
45.34
35.68
24.08
11.90
0.06
-11.59
-24.09
-38.37
-54.28
-70.08
-83.27
-91.91
-95.87
-97.21
-99.17
-104.60
-114.60
-128.02
-142.11
-153.77
-160.58
-161.06
-154.28
-139.36
-115.73
-84.19
-48.24
-14.45
8.84
14.43
-0.43
-32.24
-72.06
-108.69
-132.69
-139.27
-128.67
-104.62
-71.93
-34.90
2.88
38.02
66.89
86.39
95.25
95.00
89.73
84.29
81.93
82.66
83.36
79.59
68.18
48.92
24.74
0.19
-20.60
-35.51
-44.68
-49.52
-51.45
-50.98
-47.94
-42.22
-34.50
-26.48
-20.29
-17.54
-18.56
-22.35
-27.06
-30.95
-33.23
-34.46
-36.32
-40.80
-49.23
-61.45
-75.67
-89.12
-99.31
-105.25
-108.20
-111.37
-118.71
-133.29
-155.97
-184.92
-216.00
-243.88
-263.08
-268.91
-258.05
-229.18
-183.48
-124.84
-59.56
4.97
61.96
106.89
138.31
157.55
167.55
171.45
171.65
169.51
165.68
160.50
154.26
147.09
138.88
129.14
117.19
102.61
85.73
67.77
50.89
37.51
29.54
27.65
31.01
37.62
45.31
52.58
59.12
65.51
72.39
79.68
86.36
90.83
91.93
89.60
85.17
80.77
78.45
79.47
84.04
91.63
101.42
112.66
124.60
136.21
145.88
151.39
150.35
140.99
122.95
97.80
69.01
41.19
18.63
3.75
-3.80
-7.13
-10.50
-17.40
-29.01
-43.94
-59.43
-73.12
-84.52
-95.07
-106.99
-121.57
-137.98
-153.37
-164.09
-167.34
-162.32
-150.09
-132.61
-111.69
-88.39
-63.44
-38.01
-14.16
5.56
19.35
27.31
31.75
36.11
43.35
54.57
68.74
83.71
97.50
109.11
118.46
125.64
130.35
131.72
128.70
120.52
107.03
88.69
66.52
42.15
17.65
-4.69
-22.88
-35.76
-43.31
-46.48
-46.71
-45.39
-43.52
-41.66
-40.09
-38.89
-38.07
-37.58
-37.22
-36.80
-35.99
-34.53
-32.23
-29.09
-25.20
-20.70
-15.64
-9.97
-3.77
2.68
8.85
14.18
18.34
21.32
23.26
24.23
24.05
22.53
19.86
16.75
14.25
13.14
13.37
13.86
12.99
9.33
2.41
-7.04
-17.47
-27.05
-34.34
-38.60
-39.83
-38.70
-36.26
-33.68
-31.87
-31.28
-31.75
-32.74
-33.63
-34.11
-34.22
-34.42
-35.18
-36.85
-39.54
-43.18
-47.90
-54.15
-62.72
-74.53
-90.09
-109.23
-130.93
-153.61
-175.35
-194.18
-208.19
-215.54
-214.49
-203.84
-183.37
-154.37
-119.68
-83.28
-49.38
-21.47
-1.61
9.64
12.85
9.10
-0.40
-14.45
-31.65
-50.19
-67.65
-81.30
-88.63
-88.25
-80.60
-68.13
-54.62
-43.85
-37.95
-36.30
-35.57
-31.15
-19.13
1.77
29.47
59.34
85.78
104.30
112.60
110.88
101.15
86.23
68.99
51.92
37.24
27.06
23.32
27.38
39.33
57.29
77.33
94.17
102.87
100.50
87.54
67.74
46.92
30.97
23.97
27.14
38.69
54.53
69.52
78.80
79.22
70.18
53.79
34.12
15.71
2.06
-5.40
-7.21
-5.19
-1.35
2.87
6.90
10.96
15.82
22.32
30.89
41.16
51.92
61.37
67.90
70.70
69.88
66.21
60.56
53.56
45.60
37.13
28.74
21.04
14.39
8.84
4.34
1.10
-0.33
0.53
3.44
7.01
8.98
7.06
0.10
-11.19
-24.46
-36.49
-44.44
-46.68
-42.90
-33.84
-20.64
-4.51
13.32
31.35
47.81
61.06
70.29
76.08
80.20
84.63
90.22
95.80
98.62
95.65
85.46
69.12
49.90
31.91
18.36
10.48
7.51
7.53
8.64
9.57
9.92
9.75
9.22
8.38
7.29
6.32
6.43
9.10
15.64
26.15
38.71
49.38
53.59
48.34
34.11
15.15
-2.16
-12.12
-12.14
-3.36
10.71
26.50
42.01
57.01
71.52
84.33
92.35
91.76
80.02
57.65
28.67
-0.72
-24.35
-38.31
-42.07
-38.16
-30.81
-23.95
-19.78
-18.19
-17.28
-14.82
-9.53
-1.89
6.18
12.21
14.24
11.56
4.65
-5.10
-15.84
-25.74
-33.15
-36.88
-36.53
-32.62
-26.63
-20.47
-15.92
-14.11
-15.29
-19.05
-24.66
-31.38
-38.48
-45.19
-50.81
-55.02
-58.14
-61.24
-65.72
-72.57
-81.66
-91.57
-99.98
-104.74
-104.74
-100.41
-93.37
-85.56
-78.48
-72.70
-67.99
-63.89
-60.09
-56.56
-53.45
-50.81
-48.46
-46.13
-43.71
-41.37
-39.56
-38.74
-39.17
-40.68
-42.80
-44.95
-46.78
-48.35
-50.19
-53.06
-57.64
-64.21
-72.42
-81.41
-89.99
-97.03
-101.74
-103.77
-103.16
-100.18
-95.17
-88.43
-80.11
-70.33
-59.30
-47.35
-35.02
-22.92
-11.55
-1.15
8.22
16.52
23.57
28.92
32.17
33.17
32.35
30.67
29.29
29.13
30.30
32.20
33.68
33.74
31.96
28.75
25.16
22.47
21.61
22.73
25.08
27.28
27.93
26.24
22.48
17.91
14.19
12.63
13.74
17.02
21.48
26.07
30.16
33.56
36.27
38.10
38.58
37.09
33.24
27.03
18.98
10.01
1.28
-5.80
-9.70
-9.03
-2.97
8.35
23.68
40.86
57.50
71.63
82.22
89.22
93.30
95.32
95.95
95.43
93.72
90.79
86.83
82.19
77.23
72.09
66.55
60.14
52.51
43.64
33.94
24.08
14.75
6.46
-0.44
-5.57
-8.58
-9.34
-8.34
-6.76
-6.18
-7.81
-11.59
-15.91
-18.15
-15.85
-7.95
4.58
19.02
32.02
41.04
45.36
46.25
46.34
48.39
54.02
63.09
73.84
83.67
90.41
92.98
91.66
87.55
81.71
74.64
66.32
56.86
46.87
37.35
28.87
20.80
11.28
-1.92
-20.07
-42.62
-67.12
-89.98
-107.47
-116.39
-114.32
-99.74
-72.51
-34.43
10.26
55.49
94.94
123.88
140.56
146.32
144.62
139.30
133.27
127.57
121.42
113.08
100.87
84.27
64.43
43.96
26.00
12.96
5.47
2.16
0.39
-2.52
-8.06
-15.84
-23.96
-29.82
-31.22
-27.31
-18.69
-7.01
6.06
19.85
34.83
52.00
71.59
92.12
110.44
123.07
127.96
125.47
118.15
109.24
101.08
94.45
89.18
85.38
84.15
87.18
95.30
107.23
119.37
127.10
126.70
117.03
99.70
78.11
55.66
34.45
15.13
-2.58
-18.71
-32.38
-42.12
-46.79
-46.56
-43.44
-40.73
-41.63
-47.92
-59.06
-72.54
-85.07
-94.11
-98.64
-99.21
-97.13
-93.60
-89.17
-83.61
-76.50
-68.08
-59.54
-52.48
-48.01
-45.83
-44.38
-41.87
-36.94
-29.89
-23.02
-19.82
-23.09
-33.62
-49.63
-68.20
-87.35
-106.10
-124.66
-143.54
-162.74
-181.00
-196.55
-207.96
-215.54
-221.37
-226.55
-230.06
-228.85
-219.60
-200.37
-172.06
-137.94
-100.39
-67.16
-45.65
-37.27
-37.16
-39.75
-39.82
-38.02
-35.81
-33.55
-30.31
-22.94
-10.44
7.24
27.74
47.26
61.89
69.40
69.09
61.42
48.63
34.31
22.94
18.50
23.53
37.77
58.06
78.70
93.27
97.80
92.28
80.61
68.37
60.82
60.92
68.79
81.83
95.62
105.67
108.82
104.19
93.30
79.51
66.65
57.69
53.65
53.50
55.22
56.99
58.00
58.01
57.00
54.39
49.10
40.19
27.69
13.02
-1.28
-12.42
-18.71
-20.22
-18.88
-17.73
-19.65
-26.20
-37.15
-50.71
-64.40
-76.09
-84.56
-89.57
-91.29
-89.68
-84.36
-75.09
-62.72
-49.89
-40.81
-39.84
-49.53
-68.92
-93.32
-115.83
-130.03
-132.48
-123.86
-108.11
-90.37
-74.73
-63.03
-55.06
-49.75
-46.15
-43.84
-42.38
-40.58
-36.43
-27.79
-13.77
4.60
24.35
41.96
54.95
62.98
67.77
71.91
77.31
84.12
90.72
94.67
94.10
88.65
79.62
69.10
59.02
50.35
42.88
35.50
26.89
16.04
2.68
-12.71
-29.01
-44.94
-59.40
-71.72
-81.82
-89.95
-96.53
-101.68
-105.10
-106.08
-103.77
-97.57
-87.31
-73.36
-56.53
-37.98
-19.18
-1.99
11.47
19.26
20.28
15.08
6.05
-2.98
-8.04
-6.41
2.34
16.29
32.10
46.35
56.67
62.13
63.09
60.51
55.51
49.01
41.64
33.79
25.57
16.93
7.76
-1.87
-11.72
-21.39
-30.39
-38.37
-45.28
-51.39
-57.08
-62.55
-67.54
-71.22
-72.47
-70.43
-65.01
-57.14
-48.53
-40.91
-35.34
-31.68
-28.70
-24.63
-17.72
-6.84
8.21
26.33
44.87
59.78
66.46
61.45
44.29
18.65
-8.23
-27.87
-33.84
-24.50
-3.78
20.35
39.09
46.23
40.18
23.96
3.30
-15.97
-30.22
-38.82
-43.46
-46.56
-49.68
-52.90
-55.47
-57.00
-58.33
-61.29
-67.50
-76.89
-86.88
-93.00
-90.70
-77.42
-53.73
-22.75
11.58
46.57
81.81
118.52
157.92
199.44
240.13
275.56
301.63
316.46
320.98
318.32
312.36
306.24
301.65
298.74
296.71
294.23
289.94
282.66
271.70
257.02
239.14
218.99
197.61
175.96
154.88
135.11
117.22
101.41
87.35
74.14
60.63
45.86
29.49
11.97
-5.65
-22.09
-36.27
-47.60
-56.02
-61.82
-65.47
-67.33
-67.68
-66.63
-64.31
-60.86
-56.47
-51.43
-45.98
-40.37
-34.76
-29.29
-24.00
-18.91
-14.01
-9.38
-5.13
-1.42
1.61
3.89
5.51
6.57
7.19
7.33
6.81
5.37
2.77
-1.09
-6.08
-11.88
-18.08
-24.23
-30.00
-35.14
-39.60
-43.44
-46.88
-50.26
-53.92
-58.12
-62.98
-68.39
-74.08
-79.70
-84.87
-89.27
-92.71
-95.12
-96.55
-97.07
-96.74
-95.62
-93.79
-91.39
-88.73
-86.17
-84.10
-82.69
-81.86
-81.32
-80.78
-80.17
-79.73
-79.97
-81.35
-84.07
-87.88
-92.23
-96.47
-100.14
-103.09
-105.42
-107.27
-108.68
-109.56
-109.77
-109.29
-108.37
-107.40
-106.80
-106.76
-107.12
-107.33
-106.68
-104.42
-100.11
-93.69
-85.47
-76.04
-65.95
-55.51
-44.61
-32.67
-18.93
-2.78
15.87
36.40
57.56
77.96
96.37
112.10
125.25
136.70
147.59
158.69
169.70
178.87
183.37
179.88
165.70
139.90
103.88
61.11
16.02
-27.23
-65.79
-98.02
-123.68
-143.54
-158.72
-170.01
-177.34
-179.75
-175.73
-164.01
-143.79
-116.64
-86.73
-59.24
-38.05
-24.35
-16.91
-13.50
-12.48
-11.72
-10.74
-10.07
-9.30
-5.51
6.36
30.99
70.38
122.57
184.74
250.11
308.70
350.60
370.02
367.56
349.17
323.94
301.19
291.33
298.54
319.15
344.36
365.28
376.38
375.45
363.00
317.82
235.82
133.00
35.42
-38.59
-84.76
-106.89
-111.51
-104.71
-91.76
-73.47
-51.67
-30.73
-13.92
-2.38
5.56
11.92
18.13
24.04
30.95
37.72
41.07
38.21
27.14
12.39
-2.76
-16.34
-28.36
-38.56
-49.52
-64.24
-82.05
-101.45
-120.14
-136.19
-148.48
-157.67
-165.12
-176.59
-197.45
-225.63
-258.35
-292.12
-320.80
-336.90
-334.08
-309.52
-270.89
-230.53
-193.45
-166.29
-155.34
-160.85
-178.04
-199.76
-219.02
-237.27
-258.42
-274.75
-282.45
-283.07
-278.10
-269.87
-261.17
-215.84
-121.36
-46.36
-11.68
2.15
6.00
8.30
13.16
20.56
27.93
25.41
1.50
-38.69
-88.49
-143.37
-198.14
-248.80
-291.56
-321.64
-308.34
-241.48
-134.01
-20.49
69.97
128.44
159.40
172.32
176.98
176.73
167.53
152.46
137.21
128.16
131.36
150.06
180.98
218.86
255.07
277.44
280.61
265.71
239.19
209.66
183.39
161.86
142.38
119.29
86.30
44.09
0.47
-33.19
-47.72
-40.40
-15.24
20.47
59.58
96.62
129.82
159.99
187.78
211.70
228.40
234.78
230.17
216.62
197.59
176.75
156.76
138.37
120.76
102.51
82.77
62.05
41.81
23.71
8.62
-3.79
-14.93
-26.52
-39.63
-54.07
-68.37
-80.47
-88.62
-92.10
-91.59
-88.82
-85.85
-84.42
-85.49
-89.07
-94.12
-98.63
-99.94
-95.44
-83.69
-65.27
-42.94
-20.99
-3.50
7.15
11.11
10.49
8.12
6.20
5.59
6.04
6.88
7.87
9.37
11.93
15.69
20.18
24.69
28.53
31.50
33.64
35.41
37.36
39.80
42.47
44.72
45.82
45.25
42.90
38.51
32.56
26.20
20.53
15.88
11.88
7.92
3.65
-0.68
-5.35
-9.49
-11.24
-9.13
-3.40
4.23
11.50
16.62
18.79
16.33
9.61
0.91
-7.53
-15.60
-25.30
-39.48
-60.59
-89.68
-128.26
-173.96
-220.17
-258.70
-283.11
-290.02
-279.15
-253.00
-200.77
-127.28
-50.90
9.87
48.42
68.35
76.34
77.93
76.30
73.09
66.99
58.75
51.64
48.58
49.39
51.00
49.64
43.01
31.44
15.56
-2.27
-18.18
-29.17
-34.58
-35.31
-32.31
-26.00
-16.62
-6.39
2.36
8.22
10.60
9.68
6.49
2.72
-0.01
-0.74
0.07
0.63
0.14
-1.65
-4.56
-8.01
-11.22
-13.63
-15.28
-17.01
-19.78
-23.76
-28.33
-32.26
-34.18
-33.26
-29.59
-24.23
-18.64
-14.12
-11.23
-9.82
-9.32
-9.17
-9.28
-9.97
-11.76
-14.70
-18.30
-21.35
-22.44
-20.38
-14.64
-5.69
5.22
16.39
26.60
35.15
42.07
47.74
52.64
57.10
60.98
63.84
65.16
65.25
64.74
64.18
63.80
63.54
63.34
62.79
61.70
59.73
57.89
57.09
57.40
57.86
57.18
54.76
50.16
43.84
36.00
28.83
24.11
22.38
23.13
25.73
30.62
37.32
45.24
52.05
57.69
63.21
70.36
81.31
98.32
123.91
157.54
197.09
219.61
207.78
159.53
89.45
16.70
-45.92
-86.41
-108.79
-116.33
-111.85
-94.86
-64.90
-27.04
10.53
31.83
26.03
-7.79
-56.65
-104.32
-138.34
-155.95
-162.70
-166.33
-171.02
-173.86
-169.16
-150.54
-117.75
-75.28
-30.27
10.73
44.30
70.38
92.60
108.51
117.93
119.51
112.82
99.40
83.01
68.17
58.17
54.50
55.91
61.22
68.04
74.11
78.04
79.49
78.38
74.32
66.78
50.16
23.89
-7.18
-35.72
-56.57
-68.22
-71.59
-68.23
-59.31
-46.53
-31.78
-18.13
-9.08
-7.45
-12.68
-22.10
-32.28
-39.92
-44.24
-46.99
-51.94
-63.16
-83.39
-113.45
-152.98
-201.55
-251.90
-287.83
-294.69
-265.91
-207.17
-133.29
-60.75
-1.82
38.60
63.29
78.92
92.54
106.24
118.12
124.62
122.95
112.31
94.44
73.64
54.11
38.07
24.89
13.94
4.86
-2.01
-5.92
-5.74
0.68
14.65
35.42
59.03
79.52
91.02
89.88
75.09
48.38
14.74
-20.58
-49.61
-66.31
-70.30
-65.91
-58.03
-50.63
-48.87
-53.21
-63.34
-77.91
-94.89
-111.19
-122.95
-122.80
-103.22
-66.58
-24.13
10.23
28.58
30.93
22.68
10.75
0.43
-6.82
-12.74
-18.88
-25.44
-31.04
-34.53
-35.41
-33.85
-29.77
-23.28
-14.77
-4.32
7.83
20.13
28.63
28.05
15.70
-6.56
-32.76
-55.06
-65.94
-60.83
-38.42
-2.96
36.39
71.47
97.49
113.66
121.60
123.96
124.33
125.08
126.37
125.11
120.17
112.06
102.42
92.17
81.58
72.44
67.07
67.47
73.03
85.26
105.62
134.35
168.58
192.69
194.27
170.53
142.62
116.85
94.58
70.37
43.08
12.99
-18.35
-46.88
-68.88
-83.06
-93.01
-101.12
-108.36
-113.84
-116.67
-116.35
-111.76
-102.46
-89.09
-74.59
-59.85
-44.82
-28.86
-12.42
3.50
18.82
33.85
48.67
61.60
71.55
77.81
80.69
81.15
80.85
81.97
85.51
90.27
92.44
88.03
74.46
51.90
23.16
-6.86
-32.45
-48.62
-52.58
-44.30
-26.20
-3.24
18.06
31.29
32.83
23.65
9.42
-1.77
-2.57
10.57
35.81
66.72
95.20
114.85
123.01
120.93
111.40
97.81
82.76
67.67
52.74
38.07
24.31
12.52
3.46
-4.94
-15.08
-28.34
-44.55
-62.16
-78.21
-89.04
-91.65
-85.23
-75.51
-67.98
-65.33
-67.87
-75.53
-88.43
-106.42
-128.79
-154.41
-188.30
-232.00
-281.96
-332.26
-378.85
-420.35
-456.56
-487.53
-513.46
-542.58
-577.46
-612.28
-636.66
-642.58
-627.14
-592.22
-543.02
-436.61
-269.80
-78.28
91.19
214.76
293.57
339.17
363.44
375.22
380.08
373.62
355.04
329.20
303.70
283.57
270.30
263.99
264.06
269.65
273.83
273.21
269.12
265.12
263.21
263.21
264.22
265.75
267.94
263.70
252.85
238.64
223.56
205.95
181.22
145.68
101.00
50.18
-2.15
-49.79
-87.46
-112.85
-127.20
-133.56
-134.54
-131.49
-125.44
-112.72
-93.38
-69.47
-43.84
-19.03
3.79
24.75
44.78
64.26
82.67
97.41
104.83
101.46
85.55
58.30
24.05
-10.82
-39.92
-58.60
-65.97
-64.43
-58.37
-52.41
-49.82
-51.98
-58.71
-68.98
-81.36
-94.66
-107.44
-117.94
-124.24
-124.55
-117.79
-103.94
-84.02
-59.63
-32.78
-5.60
19.63
40.39
54.28
59.54
55.52
43.16
24.98
4.20
-16.33
-35.04
-51.72
-66.90
-81.31
-95.74
-110.59
-125.30
-138.35
-147.59
-150.81
-145.97
-131.53
-107.30
-75.32
-39.18
-3.01
29.29
54.15
68.41
69.98
58.97
37.97
11.15
-15.45
-34.50
-39.14
-25.10
7.45
54.48
110.32
169.60
227.85
275.04
299.04
293.93
265.00
222.91
175.74
127.71
84.80
46.67
15.74
-3.52
-7.46
4.65
29.12
58.21
82.86
95.01
90.05
68.92
36.83
0.48
-34.34
-60.44
-73.34
-74.29
-69.53
-64.40
-59.79
-53.47
-45.25
-34.26
-22.87
-15.95
-18.38
-34.22
-63.65
-103.12
-143.47
-175.73
-191.83
-187.14
-162.10
-113.14
-49.44
11.80
55.92
79.33
87.39
88.77
89.90
93.29
98.50
103.15
105.17
103.09
95.76
81.78
60.82
34.17
4.36
-26.03
-56.69
-80.36
-91.11
-86.81
-70.03
-45.67
-18.50
7.73
30.37
47.37
59.00
66.38
71.53
76.43
81.85
87.90
94.24
100.24
104.93
107.95
108.73
107.51
105.06
101.09
96.13
91.38
87.93
85.81
84.78
83.45
81.24
78.41
72.99
64.92
55.76
46.38
34.69
22.11
6.90
-12.16
-35.02
-64.92
-101.29
-139.82
-175.74
-206.98
-233.89
-259.27
-286.25
-317.73
-361.01
-416.43
-475.56
-525.22
-553.71
-553.91
-525.78
-475.22
-376.90
-239.39
-96.38
19.89
99.33
148.68
179.10
198.05
209.12
213.79
207.50
190.63
169.17
150.85
140.22
138.65
144.87
157.00
173.58
189.40
202.65
214.55
226.03
230.58
223.18
202.36
171.42
137.01
102.91
71.97
44.67
21.57
2.74
-10.39
-15.48
-10.61
3.63
21.28
34.43
36.46
24.75
0.71
-30.01
-59.79
-81.59
-91.64
-92.19
-90.10
-93.55
-107.92
-133.77
-166.04
-195.82
-213.69
-212.81
-191.80
-154.82
-109.12
-61.42
-16.24
24.45
59.73
84.93
97.44
98.30
90.42
76.78
60.92
48.10
40.28
38.65
43.34
54.02
69.46
87.94
105.25
118.28
124.62
122.44
111.55
93.24
70.61
47.34
26.84
11.74
3.82
3.19
7.98
15.26
21.76
25.29
25.10
21.85
17.14
12.93
10.37
9.10
7.78
4.67
-1.30
-10.13
-20.73
-31.50
-40.99
-48.91
-56.55
-66.09
-79.48
-97.23
-117.82
-138.12
-154.62
-164.84
-168.44
-167.42
-165.27
-165.56
-170.36
-179.10
-188.53
-193.60
-189.25
-172.33
-142.80
-103.68
-59.81
-16.04
24.30
60.01
91.66
120.71
148.63
176.27
203.55
229.45
252.08
269.19
278.62
278.99
270.04
252.60
228.45
199.83
169.22
139.07
111.57
88.42
70.56
58.10
50.46
46.61
45.34
45.30
44.97
42.68
37.00
27.06
12.82
-5.03
-25.35
-46.88
-68.40
-88.80
-106.99
-122.19
-134.21
-143.71
-152.15
-161.23
-172.31
-185.80
-201.10
-216.91
-231.88
-245.09
-256.25
-265.45
-272.94
-278.77
-282.69
-284.16
-282.22
-275.49
-262.32
-241.46
-212.69
-177.47
-138.85
-100.66
-66.59
-39.17
-19.50
-7.51
-2.39
-2.95
-7.48
-13.58
-18.07
-17.41
-8.57
10.28
39.33
77.31
121.76
169.51
216.78
259.49
293.77
316.73
327.30
326.55
317.58
304.59
291.83
282.56
278.41
279.16
283.08
287.43
289.23
286.02
276.51
260.91
240.83
218.77
197.30
178.37
162.87
150.49
140.01
129.66
117.53
102.17
82.96
60.46
36.34
12.96
-7.35
-23.05
-33.99
-41.42
-47.47
-54.18
-62.62
-72.47
-82.24
-90.05
-94.58
-95.74
-94.70
-93.35
-93.37
-95.44
-99.12
-103.13
-106.30
-108.17
-109.02
-109.38
-109.31
-108.20
-105.13
-99.65
-92.20
-83.91
-75.71
-67.49
-57.84
-44.91
-27.82
-7.72
12.26
28.33
37.82
40.50
38.49
34.98
32.37
31.09
29.59
25.44
16.86
3.81
-11.84
-27.22
-39.82
-48.45
-53.43
-56.01
-57.44
-58.24
-58.07
-56.07
-51.56
-44.52
-35.78
-26.62
-18.36
-11.90
-7.52
-5.06
-4.14
-4.52
-6.18
-9.22
-13.65
-19.16
-25.06
-30.35
-34.00
-35.22
-33.70
-29.61
-23.51
-16.20
-8.43
-0.87
6.02
11.96
16.84
20.59
23.18
24.60
24.77
23.67
21.37
18.10
14.19
10.00
5.96
2.53
0.22
-0.49
0.68
3.65
7.96
12.71
16.95
19.90
21.13
20.63
18.64
15.49
11.45
6.77
1.73
-3.38
-8.27
-12.76
-16.73
-20.14
-22.84
-24.48
-24.55
-22.50
-17.98
-11.05
-2.24
7.54
17.29
26.16
33.75
40.06
45.31
49.80
53.63
56.72
58.96
60.32
60.91
60.97
60.69
60.19
59.46
58.49
57.34
56.15
55.11
54.28
53.60
52.88
51.91
50.59
49.04
47.51
46.32
45.73
45.79
46.24
46.47
45.60
42.76
37.24
28.85
18.07
6.07
-5.49
-14.77
-20.36
-21.57
-18.62
-12.52
-4.74
3.28
10.34
15.62
18.56
18.73
15.71
9.27
-0.42
-12.60
-25.89
-38.64
-49.41
-57.47
-63.03
-67.02
-70.65
-74.89
-80.01
-85.56
-90.58
-94.01
-95.20
-94.26
-92.32
-91.27
-93.16
-99.32
-109.61
-122.25
-134.29
-142.61
-144.93
-140.24
-128.69
-111.27
-89.45
-65.28
-41.46
-21.35
-8.22
-4.21
-9.45
-21.71
-37.06
-51.10
-60.30
-62.81
-58.53
-48.63
-34.73
-18.36
-0.57
18.08
37.30
56.89
76.50
95.65
113.66
129.82
143.38
153.60
159.77
161.15
157.09
147.25
131.91
112.11
89.73
67.10
46.58
29.96
18.11
10.93
7.64
7.15
8.36
10.51
12.98
15.27
16.88
17.33
16.37
14.01
10.56
6.52
2.31
-1.82
-5.86
-10.02
-14.48
-19.32
-24.41
-29.53
-34.35
-38.63
-42.29
-45.33
-47.82
-49.81
-51.24
-51.97
-51.81
-50.67
-48.62
-45.97
-43.05
-40.10
-37.24
-34.37
-31.47
-28.60
-25.98
-23.88
-22.50
-21.78
-21.46
-21.22
-20.78
-20.09
-19.28
-18.48
-17.86
-17.42
-17.08
-16.70
-16.13
-15.14
-13.51
-11.08
-7.80
-3.88
0.27
4.05
6.98
8.77
9.51
9.56
9.35
9.22
9.22
9.14
8.58
7.20
4.87
1.76
-1.67
-4.79
-6.90
-7.44
-6.10
-2.89
1.76
7.14
12.32
16.41
18.69
18.81
16.73
12.65
7.01
0.30
-7.01
-14.40
-21.46
-27.89
-33.47
-38.08
-41.58
-43.86
-44.77
-44.19
-42.01
-38.10
-32.36
-24.65
-14.94
-3.43
9.39
22.65
35.27
46.12
54.28
59.19
60.73
59.21
55.23
49.64
43.28
36.91
31.04
25.83
21.23
17.02
12.96
8.95
5.00
1.25
-2.16
-5.14
-7.61
-9.56
-10.97
-11.84
-12.21
-12.15
-11.81
-11.43
-11.20
-11.25
-11.52
-11.87
-12.02
-11.76
-10.94
-9.48
-7.42
-4.76
-1.53
2.34
6.82
11.83
17.18
22.55
27.59
31.99
35.49
37.93
39.29
39.69
39.38
38.68
37.87
37.12
36.43
35.71
34.75
33.50
31.92
30.05
27.91
25.50
22.78
19.78
16.66
13.61
10.89
8.65
6.82
5.26
3.72
2.05
0.25
-1.63
-3.47
-5.32
-7.34
-9.78
-12.85
-16.58
-20.77
-25.03
-28.90
-31.93
-33.74
-34.13
-33.06
-30.67
-27.31
-23.42
-19.50
-15.97
-13.11
-11.03
-9.75
-9.18
-9.18
-9.63
-10.34
-11.13
-11.79
-12.13
-12.06
-11.60
-10.90
-10.18
-9.63
-9.34
-9.25
-9.20
-9.04
-8.78
-8.54
-8.46
-8.57
-8.74
-8.73
-8.35
-7.62
-6.77
-6.18
-6.14
-6.75
-7.90
-9.37
-10.97
-12.67
-14.44
-16.17
-17.57
-18.19
-17.62
-15.73
-12.67
-8.91
-5.00
-1.35
1.80
4.37
6.35
7.67
8.18
7.82
6.60
4.72
2.48
0.10
-2.26
-4.51
-6.61
-8.44
-9.80
-10.54
-10.58
-10.05
-9.22
-8.40
-7.80
-7.41
-7.14
-6.92
-6.79
-6.85
-7.21
-7.84
-8.54
-9.03
-9.09
-8.78
-8.35
-8.24
-8.86
-10.43
-12.90
-15.97
-19.23
-22.19
-24.44
-25.71
-25.87
-25.02
-23.40
-21.31
-18.94
-16.24
-12.87
-8.28
-1.85
6.78
17.50
29.67
42.25
54.04
63.99
71.46
76.23
78.54
78.88
77.79
75.72
72.94
69.49
65.26
60.08
53.90
46.88
39.45
32.13
25.43
19.61
14.69
10.52
6.90
3.69
0.81
-1.81
-4.31
-6.81
-9.43
-12.11
-14.69
-17.01
-19.05
-20.94
-22.85
-24.87
-26.86
-28.50
-29.39
-29.22
-27.94
-25.70
-22.77
-19.40
-15.78
-12.04
-8.34
-4.84
-1.74
0.75
2.50
3.49
3.81
3.67
3.30
2.82
2.32
1.75
1.08
0.35
-0.31
-0.73
-0.81
-0.54
0.03
0.80
1.68
2.57
3.36
3.85
3.87
3.37
2.50
1.54
0.80
0.43
0.28
0.06
-0.53
-1.71
-3.39
-5.39
-7.37
-9.01
-10.09
-10.51
-10.30
-9.57
-8.45
-7.01
-5.31
-3.33
-1.05
1.46
4.00
6.35
8.22
9.49
10.19
10.43
10.34
9.96
9.30
8.37
7.24
6.09
5.13
4.48
4.09
3.75
3.26
2.48
1.42
0.26
-0.83
-1.74
-2.41
-2.85
-3.14
-3.34
-3.55
-3.83
-4.23
-4.77
-5.40
-6.05
-6.68
-7.32
-8.05
-8.97
-10.13
-11.47
-12.84
-14.01
-14.72
-14.73
-13.85
-12.03
-9.33
-5.97
-2.28
1.34
4.58
7.21
9.21
10.70
11.88
12.88
13.72
14.31
14.54
14.33
13.77
13.00
12.22
11.56
10.99
10.35
9.51
8.42
7.19
6.06
5.30
5.03
5.25
5.78
6.40
6.86
7.01
6.72
5.94
4.69
3.09
1.32
-0.48
-2.24
-4.02
-5.92
-8.05
-10.40
-12.89
-15.39
-17.73
-19.76
-21.30
-22.12
-22.05
-21.02
-19.06
-16.33
-13.06
-9.44
-5.68
-1.98
1.54
4.73
7.47
9.77
11.63
13.10
14.22
14.96
15.32
15.35
15.18
14.99
14.94
15.07
15.27
15.34
15.09
14.45
13.53
12.55
11.69
11.03
10.47
9.82
8.96
7.86
6.57
5.13
3.52
1.67
-0.45
-2.81
-5.28
-7.72
-10.07
-12.34
-14.64
-17.08
-19.64
-22.30
-24.87
-27.15
-28.88
-29.78
-29.62
-28.27
-25.70
-22.12
-17.88
-13.45
-9.27
-5.63
-2.61
-0.06
2.22
4.37
6.35
7.97
9.04
9.50
9.49
9.32
9.30
9.62
10.26
11.04
11.79
12.34
12.62
12.60
12.29
11.63
10.64
9.31
7.73
6.00
4.27
2.67
1.28
0.07
-1.06
-2.29
-3.78
-5.54
-7.51
-9.56
-11.59
-13.56
-15.55
-17.58
-19.54
-21.20
-22.23
-22.39
-21.61
-20.08
-18.09
-15.94
-13.74
-11.38
-8.59
-5.17
-1.12
3.23
7.41
10.96
13.63
15.47
16.68
17.47
17.92
18.00
17.68
17.05
16.32
15.79
15.68
15.97
16.45
16.81
16.80
16.27
15.29
13.96
12.38
10.63
8.72
6.67
4.55
2.46
0.52
-1.19
-2.69
-4.05
-5.38
-6.77
-8.29
-9.98
-11.86
-13.90
-16.01
-17.99
-19.58
-20.41
-20.17
-18.67
-15.96
-12.27
-7.97
-3.48
0.85
4.77
8.15
11.00
13.40
15.41
17.07
18.38
19.28
19.72
19.78
19.55
19.20
18.82
18.35
17.68
16.69
15.43
14.11
13.00
12.24
11.77
11.36
10.72
9.69
8.32
6.83
5.40
4.07
2.68
1.01
-1.08
-3.54
-6.11
-8.50
-10.45
-11.89
-12.90
-13.72
-14.59
-15.73
-17.28
-19.19
-21.26
-23.20
-24.67
-25.42
-25.35
-24.50
-22.99
-20.95
-18.50
-15.67
-12.55
-9.25
-5.98
-3.01
-0.53
1.33
2.58
3.31
3.66
3.84
4.04
4.39
4.95
5.69
6.52
7.37
8.22
9.09
10.05
11.07
12.06
12.86
13.27
13.18
12.62
11.71
10.62
9.49
8.39
7.32
6.24
5.05
3.62
1.90
-0.11
-2.35
-4.61
-6.76
-8.69
-10.41
-12.08
-13.80
-15.52
-17.07
-18.10
-18.27
-17.40
-15.57
-13.01
-10.08
-7.07
-4.16
-1.40
1.22
3.71
6.04
8.07
9.68
10.71
11.12
10.97
10.41
9.69
9.01
8.49
8.09
7.69
7.16
6.41
5.53
4.65
4.01
3.71
3.72
3.82
3.76
3.31
2.44
1.32
0.19
-0.75
-1.48
-2.09
-2.77
-3.64
-4.68
-5.75
-6.73
-7.59
-8.46
-9.57
-11.03
-12.81
-14.62
-16.03
-16.63
-16.18
-14.62
-12.11
-8.99
-5.61
-2.28
0.78
3.46
5.73
7.65
9.24
10.53
11.49
12.10
12.36
12.32
12.05
11.64
11.16
10.61
10.01
9.34
8.58
7.77
6.86
5.84
4.72
3.53
2.36
1.32
0.52
-0.02
-0.35
-0.59
-0.87
-1.30
-1.89
-2.60
-3.37
-4.21
-5.15
-6.22
-7.41
-8.61
-9.71
-10.57
-11.19
-11.72
-12.35
-13.25
-14.39
-15.56
-16.39
-16.52
-15.72
-13.96
-11.32
-8.04
-4.41
-0.69
2.85
6.04
8.77
11.05
12.95
14.57
15.94
16.99
17.65
17.86
17.68
17.29
16.89
16.62
16.44
16.23
15.83
15.19
14.37
13.50
12.66
11.81
10.85
9.64
8.21
6.66
5.24
4.11
3.28
2.57
1.72
0.53
-1.00
-2.66
-4.20
-5.42
-6.31
-7.05
-7.87
-8.96
-10.41
-12.18
-14.09
-15.94
-17.43
-18.30
-18.36
-17.51
-15.81
-13.43
-10.59
-7.47
-4.25
-1.06
1.92
4.47
6.46
7.86
8.82
9.58
10.37
11.22
11.98
12.36
12.17
11.38
10.18
8.83
7.58
6.54
5.65
4.80
3.90
2.93
1.94
0.96
-0.05
-1.16
-2.38
-3.71
-5.04
-6.31
-7.49
-8.61
-9.74
-10.91
-12.10
-13.20
-14.12
-14.83
-15.39
-15.97
-16.72
-17.73
-19.01
-20.34
-21.37
-21.70
-20.94
-18.93
-15.73
-11.68
-7.28
-2.97
0.94
4.40
7.48
10.33
13.09
15.78
18.34
20.64
22.54
23.85
24.46
24.33
23.55
22.33
20.86
19.36
17.96
16.72
15.67
14.82
14.18
13.70
13.19
12.40
11.10
9.25
6.94
4.46
2.09
0.03
-1.64
-2.98
-4.08
-5.04
-5.99
-7.06
-8.40
-10.05
-11.89
-13.64
-15.01
-15.89
-16.47
-17.16
-18.38
-20.22
-22.25
-23.69
-23.68
-21.69
-17.81
-12.69
-7.28
-2.47
1.27
3.97
6.06
8.18
10.88
14.31
18.28
22.15
25.10
26.34
25.32
21.93
16.64
10.55
5.25
2.39
3.08
7.23
13.32
18.67
20.44
16.72
7.26
-6.53
-22.32
-37.81
-51.42
-62.41
-70.47
-75.41
-77.06
-75.50
-71.42
-66.07
-60.92
-57.01
-54.48
-52.61
-50.18
-46.06
-39.60
-30.82
-20.23
-8.77
2.45
12.27
19.69
24.24
26.22
26.67
27.00
28.38
31.29
35.30
39.47
42.83
44.99
46.15
46.89
47.62
48.27
48.24
46.74
43.19
37.59
30.53
22.96
15.84
9.80
5.04
1.42
-1.43
-3.79
-5.74
-7.18
-7.85
-7.53
-6.11
-3.68
-0.42
3.34
7.23
10.88
13.97
16.25
17.52
17.64
16.47
14.04
10.49
6.10
1.31
-3.38
-7.59
-11.10
-13.92
-16.16
-17.96
-19.37
-20.31
-20.62
-20.09
-18.59
-16.11
-12.76
-8.83
-4.65
-0.57
3.17
6.48
9.37
11.94
14.24
16.25
17.85
18.90
19.29
18.99
18.09
16.69
14.93
12.91
10.75
8.54
6.46
4.74
3.61
3.24
3.54
4.25
4.94
5.20
4.82
3.84
2.46
0.96
-0.50
-1.92
-3.42
-5.08
-6.88
-8.70
-10.37
-11.78
-12.91
-13.83
-14.59
-15.26
-15.84
-16.43
-17.10
-17.91
-18.90
-19.96
-20.92
-21.54
-21.63
-21.04
-19.73
-17.71
-15.03
-11.78
-8.04
-3.98
0.21
4.30
8.06
11.26
13.80
15.69
17.03
17.98
18.65
19.07
19.15
18.84
18.14
17.14
15.94
14.64
13.33
12.06
10.93
10.01
9.34
8.89
8.51
8.09
7.54
6.90
6.31
5.86
5.58
5.34
4.95
4.31
3.43
2.43
1.44
0.50
-0.48
-1.54
-2.73
-3.94
-5.00
-5.74
-6.10
-6.16
-6.08
-6.03
-6.06
-6.10
-5.94
-5.41
-4.44
-3.02
-1.31
0.59
2.56
4.61
6.75
8.96
11.10
13.00
14.49
15.47
15.99
16.17
16.16
16.01
15.67
14.98
13.76
11.86
9.27
6.06
2.38
-1.57
-5.60
-9.54
-13.25
-16.61
-19.51
-21.84
-23.52
-24.47
-24.69
-24.25
-23.33
-22.12
-20.86
-19.71
-18.71
-17.77
-16.76
-15.57
-14.17
-12.66
-11.17
-9.86
-8.91
-8.39
-8.41
-8.94
-9.81
-10.73
-11.30
-11.18
-10.15
-8.23
-5.66
-2.77
0.07
2.64
4.87
6.82
8.65
10.54
12.62
14.94
17.39
19.78
21.93
23.71
25.10
26.24
27.23
28.16
28.99
29.63
30.03
30.28
30.60
31.27
32.52
34.30
36.34
38.13
39.21
39.37
38.73
37.73
36.88
36.65
37.24
38.68
40.88
43.61
46.48
48.76
49.37
47.03
40.55
29.23
13.00
-7.51
-31.29
-57.01
-83.23
-108.24
-130.05
-146.33
-154.62
-152.82
-139.97
-116.80
-85.88
-51.02
-16.11
16.24
45.30
72.20
98.67
125.77
152.87
177.81
197.74
210.51
215.52
213.75
207.25
198.23
188.49
179.29
171.55
165.99
163.18
163.36
166.33
171.43
177.56
183.31
186.93
186.43
179.99
166.36
145.42
118.33
87.16
54.06
20.46
-13.13
-46.65
-79.83
-111.80
-141.56
-168.78
-194.24
-219.22
-244.03
-266.67
-282.62
-286.43
-274.35
-246.69
-208.51
-167.74
-132.08
-106.31
-91.34
-85.45
-86.23
-91.89
-101.32
-113.19
-125.29
-134.93
-140.36
-142.13
-143.48
-149.02
-162.37
-184.13
-211.25
-238.26
-259.69
-272.42
-276.93
-276.66
-276.03
-277.90
-281.68
-283.30
-276.86
-257.38
-223.05
-176.08
-121.66
-65.95
-13.95
31.51
69.72
101.21
126.75
146.88
161.90
172.15
178.32
181.62
183.49
185.23
187.45
189.71
190.67
188.63
182.45
172.15
159.12
145.51
133.25
123.33
115.43
108.31
100.61
91.53
81.23
70.65
61.09
53.51
48.24
44.85
42.50
40.39
38.00
35.26
32.44
29.90
27.95
26.66
25.86
25.14
23.97
21.83
18.36
13.51
7.63
1.39
-4.41
-9.10
-12.25
-13.73
-13.79
-13.01
-12.33
-12.74
-15.04
-19.37
-24.97
-30.41
-34.09
-34.91
-32.74
-28.38
-23.20
-18.36
-14.52
-11.71
-9.57
-7.83
-6.41
-5.48
-5.24
-5.68
-6.55
-7.28
-7.17
-5.55
-1.95
3.86
11.82
21.56
32.49
43.84
54.80
64.60
72.59
78.32
81.56
82.29
80.70
77.21
72.47
67.30
62.59
59.09
57.20
56.82
57.36
57.92
57.67
55.71
51.94
47.31
43.38
41.63
42.78
46.59
51.89
57.07
60.20
60.35
58.17
55.57
54.85
57.70
64.48
73.84
83.10
87.86
84.63
72.33
52.59
28.93
5.67
-13.00
-24.07
-26.53
-24.38
-22.13
-22.40
-25.68
-31.89
-41.08
-53.41
-68.97
-87.74
-114.82
-152.09
-195.01
-234.71
-263.35
-276.91
-275.21
-261.10
-239.92
-227.33
-235.27
-265.73
-312.27
-366.57
-421.36
-470.03
-506.61
-527.55
-544.92
-570.30
-606.74
-649.10
-690.45
-724.55
-745.37
-747.90
-659.10
-457.69
-190.64
62.77
252.86
374.59
446.81
491.32
523.12
547.91
556.16
540.38
504.26
459.92
417.80
382.26
353.29
329.22
309.08
285.22
254.91
224.00
202.24
194.42
197.25
202.47
201.72
190.47
164.14
125.13
83.29
50.89
35.25
36.23
48.47
64.95
79.74
86.48
82.18
68.17
48.47
27.00
6.36
-11.72
-25.73
-34.26
-37.28
-35.31
-29.06
-19.65
-8.89
1.22
9.38
15.40
19.92
23.76
27.21
29.94
31.23
30.46
27.57
23.11
18.00
13.19
9.25
6.30
4.14
2.47
1.09
-0.02
-0.83
-1.32
-1.60
-1.90
-2.45
-3.41
-4.79
-6.48
-8.30
-10.08
-11.69
-13.07
-14.24
-15.27
-16.29
-17.42
-18.69
-20.01
-21.16
-21.89
-22.00
-21.39
-20.20
-18.54
-16.52
-14.03
-10.85
-6.78
-1.76
4.04
10.22
16.36
22.13
27.31
31.76
35.35
37.79
38.78
38.21
36.21
33.28
30.15
27.45
25.53
24.25
23.14
21.63
19.33
16.24
12.68
9.19
6.23
3.95
2.25
0.84
-0.55
-2.03
-3.52
-4.80
-5.71
-6.24
-6.59
-7.09
-8.09
-9.75
-12.09
-14.91
-17.96
-20.99
-23.77
-26.07
-27.60
-27.98
-26.96
-24.43
-20.62
-16.02
-11.23
-6.77
-2.91
0.31
3.08
5.64
8.20
10.86
13.54
16.05
18.10
19.38
19.79
19.45
18.66
17.83
17.26
17.09
17.25
17.50
17.52
17.06
15.94
14.14
11.82
9.33
7.13
5.74
5.42
6.13
7.46
8.76
9.40
9.04
7.85
6.41
5.46
5.53
6.53
7.72
7.89
5.97
1.60
-4.56
-10.81
-14.95
-14.86
-9.16
2.56
19.58
40.16
61.90
82.09
98.27
108.85
113.54
113.43
110.61
107.34
105.46
105.88
108.71
113.78
121.04
130.68
142.70
156.28
169.35
178.90
181.85
176.10
161.41
139.52
113.61
87.11
62.64
41.39
23.05
6.45
-9.81
-26.73
-44.61
-63.24
-82.08
-100.53
-118.11
-134.32
-148.54
-159.95
-167.84
-171.93
-172.68
-171.12
-168.48
-165.47
-161.95
-157.06
-149.71
-139.29
-126.02
-110.86
-95.07
-79.75
-65.49
-52.52
-40.83
-30.42
-21.27
-13.35
-6.53
-0.59
4.58
8.96
12.39
14.69
15.88
16.16
16.01
15.88
16.09
16.62
17.14
17.20
16.41
14.64
12.05
9.04
6.03
3.34
1.09
-0.78
-2.45
-4.04
-5.60
-7.11
-8.49
-9.75
-11.02
-12.52
-14.44
-16.92
-19.95
-23.34
-26.84
-30.21
-33.26
-35.80
-37.55
-38.16
-37.36
-35.03
-31.38
-26.79
-21.69
-16.30
-10.63
-4.59
1.83
8.35
14.45
19.54
23.17
25.30
26.21
26.41
26.39
26.45
26.66
26.92
27.13
27.21
27.17
27.08
26.93
26.64
26.09
25.25
24.23
23.31
22.63
22.30
22.30
22.41
22.24
21.42
19.75
17.38
14.73
12.23
10.38
9.63
10.17
11.69
13.51
14.95
15.69
16.17
17.05
19.51
24.70
33.00
43.47
54.20
63.24
69.34
72.49
72.58
70.57
68.09
66.18
64.30
60.52
52.56
38.55
18.02
-10.18
-44.02
-78.10
-105.67
-121.80
-124.83
-116.27
-100.70
-84.06
-76.15
-83.02
-104.84
-137.42
-175.72
-215.59
-253.62
-288.16
-318.20
-347.94
-378.03
-403.84
-418.26
-416.91
-400.01
-371.12
-336.44
-269.99
-169.52
-56.10
43.57
117.69
168.58
201.03
223.88
240.19
250.30
248.78
233.81
207.14
174.32
140.45
108.85
82.03
61.10
47.11
37.11
30.08
27.80
32.69
44.53
60.23
75.94
88.05
95.15
95.60
90.72
84.28
80.30
80.17
82.43
84.43
83.56
79.05
70.79
60.44
50.59
43.38
39.41
37.99
38.29
39.59
41.37
42.61
42.38
40.47
37.80
36.03
36.63
39.69
43.09
42.98
35.54
19.25
-3.76
-28.01
-47.06
-56.29
-55.13
-47.14
-38.19
-33.73
-36.42
-45.35
-56.82
-66.19
-69.92
-66.75
-57.78
-45.59
-32.95
-21.68
-12.14
-3.35
6.16
17.38
30.07
42.65
52.73
58.02
57.01
49.20
35.08
15.98
-5.94
-27.99
-47.34
-61.91
-71.16
-76.40
-79.99
-83.68
-86.90
-86.28
-76.88
-54.95
-20.74
20.41
59.65
88.29
101.68
101.14
92.79
83.97
79.44
79.26
79.75
76.33
66.53
51.15
33.14
15.41
-0.79
-15.98
-31.33
-47.29
-63.21
-77.90
-90.57
-101.25
-110.27
-117.67
-122.79
-124.78
-123.19
-118.47
-111.76
-104.05
-95.91
-87.33
-78.16
-68.47
-58.16
-46.29
-30.64
-8.48
21.37
56.58
90.96
116.60
127.42
122.74
108.14
93.18
87.00
94.17
113.11
137.29
158.77
171.29
172.08
161.42
141.28
114.21
83.22
52.20
25.74
8.27
2.46
8.29
22.80
41.05
57.75
68.77
72.49
69.35
61.25
50.89
41.08
34.34
32.30
35.28
42.20
51.47
60.60
66.92
68.55
65.03
57.45
47.34
36.03
24.53
15.22
10.31
11.52
19.94
35.39
56.76
81.04
104.23
122.77
136.37
144.87
147.01
140.82
124.88
101.31
74.85
51.91
38.80
41.47
59.95
87.82
115.40
133.75
139.26
132.36
116.21
80.49
27.00
-31.77
-81.66
-112.90
-132.85
-147.75
-161.00
-173.58
-184.77
-191.24
-191.68
-187.55
-181.46
-175.72
-169.81
-163.01
-155.22
-147.08
-137.99
-128.41
-119.89
-113.78
-110.52
-108.17
-104.78
-99.25
-91.43
-80.80
-67.98
-54.54
-42.19
-32.07
-23.74
-16.61
-10.56
-6.06
-3.56
-4.03
-8.52
-17.49
-30.32
-44.96
-58.91
-69.95
-76.64
-78.31
-75.30
-68.63
-59.50
-48.94
-37.52
-25.74
-14.22
-3.71
5.04
11.51
15.58
17.51
17.76
16.81
15.03
12.71
10.14
7.66
5.69
4.64
4.87
6.57
9.79
14.39
20.03
26.25
32.50
38.24
43.02
46.50
48.39
48.52
46.86
43.63
39.30
34.46
29.69
25.38
21.67
18.54
15.83
13.39
11.03
8.47
5.35
1.34
-3.68
-9.60
-15.99
-22.30
-28.09
-33.13
-37.35
-40.82
-43.48
-45.14
-45.46
-44.05
-40.61
-35.05
-27.58
-18.62
-8.88
0.89
10.05
18.17
25.12
31.05
36.24
41.06
45.88
51.12
57.31
64.95
74.45
85.77
98.38
111.20
122.86
131.97
137.49
138.93
136.38
130.40
121.79
111.21
99.12
85.62
70.56
53.69
34.92
14.45
-7.15
-28.95
-49.90
-68.96
-85.33
-98.50
-108.33
-115.00
-118.95
-120.79
-121.21
-120.84
-120.10
-119.10
-117.58
-115.09
-111.24
-105.85
-99.14
-91.57
-83.63
-75.62
-67.58
-59.38
-50.88
-42.13
-33.30
-24.75
-16.83
-9.84
-3.98
0.66
4.08
6.36
7.60
7.89
7.36
6.13
4.33
2.12
-0.42
-3.27
-6.52
-10.37
-15.02
-20.60
-27.14
-34.47
-42.37
-50.56
-58.75
-66.71
-74.22
-81.17
-87.58
-93.57
-99.40
-105.29
-111.32
-117.30
-122.74
-126.93
-129.17
-129.03
-126.45
-121.80
-115.75
-108.99
-102.02
-95.06
-88.02
-80.64
-72.63
-63.71
-53.69
-42.41
-29.72
-15.51
0.23
17.37
35.61
54.53
73.60
92.22
109.77
125.58
138.96
149.38
156.54
160.57
161.95
161.45
160.03
158.52
157.54
157.32
157.68
158.04
157.64
155.61
151.24
144.17
134.36
122.07
107.70
91.65
74.27
55.89
36.90
17.91
-0.30
-16.80
-30.67
-41.13
-47.70
-50.24
-48.92
-44.16
-36.54
-26.82
-15.89
-4.69
5.82
14.90
22.05
27.18
30.46
32.28
33.01
32.95
32.26
31.08
29.53
27.81
26.13
24.62
23.27
21.97
20.52
18.75
16.55
13.90
10.85
7.49
3.95
0.44
-2.75
-5.33
-7.04
-7.84
-7.87
-7.41
-6.75
-6.06
-5.44
-4.88
-4.50
-4.46
-5.02
-6.39
-8.64
-11.68
-15.20
-18.81
-22.03
-24.36
-25.39
-24.84
-22.70
-19.19
-14.73
-9.78
-4.71
0.25
4.99
9.42
13.36
16.54
18.76
19.97
20.41
20.39
20.28
20.24
20.31
20.41
20.50
20.70
21.17
22.03
23.26
24.65
25.90
26.71
26.97
26.72
26.14
25.42
24.63
23.79
22.83
21.77
20.71
19.85
19.32
19.14
19.13
19.00
18.48
17.44
15.88
13.89
11.66
9.41
7.41
5.95
5.35
5.86
7.53
10.26
13.77
17.70
21.70
25.59
29.39
33.24
37.38
41.92
46.72
51.33
55.07
57.31
57.63
56.01
52.70
48.11
42.56
36.18
28.92
20.80
11.94
2.71
-6.46
-15.18
-23.22
-30.50
-37.01
-42.69
-47.42
-51.16
-53.98
-56.07
-57.58
-58.53
-58.67
-57.60
-54.97
-50.67
-44.97
-38.48
-31.90
-25.97
-21.28
-18.31
-17.48
-19.07
-23.13
-29.33
-36.89
-44.70
-51.54
-56.41
-58.76
-58.54
-56.17
-52.18
-47.10
-41.15
-34.42
-26.92
-18.78
-10.27
-1.80
6.23
13.56
20.05
25.70
30.50
34.45
37.51
39.63
40.81
41.08
40.53
39.20
37.19
34.59
31.53
28.13
24.50
20.76
17.12
13.86
11.34
9.84
9.39
9.70
10.24
10.46
10.04
9.01
7.59
6.04
4.35
2.38
-0.11
-3.22
-6.83
-10.65
-14.43
-18.01
-21.40
-24.58
-27.41
-29.56
-30.62
-30.28
-28.48
-25.42
-21.46
-16.98
-12.22
-7.34
-2.41
2.46
7.12
11.42
15.22
18.46
21.08
23.01
24.13
24.33
23.62
22.14
20.16
17.96
15.76
13.65
11.68
9.87
8.28
6.95
5.89
4.97
3.97
2.75
1.23
-0.48
-2.23
-3.90
-5.53
-7.24
-9.11
-11.20
-13.40
-15.56
-17.60
-19.50
-21.36
-23.33
-25.46
-27.75
-30.04
-32.15
-33.81
-34.78
-34.86
-33.87
-31.77
-28.60
-24.50
-19.74
-14.57
-9.23
-3.90
1.28
6.16
10.62
14.49
17.67
20.11
21.81
22.86
23.33
23.31
22.88
22.14
21.23
20.32
19.62
19.19
18.99
18.87
18.66
18.28
17.74
17.13
16.48
15.71
14.71
13.29
11.40
9.09
6.57
4.01
1.53
-0.78
-2.92
-4.83
-6.45
-7.75
-8.78
-9.66
-10.55
-11.64
-13.05
-14.81
-16.87
-19.10
-21.26
-23.03
-24.08
-24.17
-23.18
-21.16
-18.25
-14.61
-10.41
-5.82
-1.04
3.71
8.17
12.14
15.49
18.20
20.30
21.84
22.88
23.41
23.43
23.00
22.22
21.29
20.41
19.72
19.29
19.06
18.87
18.52
17.89
16.93
15.70
14.36
13.01
11.76
10.63
9.58
8.59
7.65
6.75
5.93
5.15
4.27
3.13
1.52
-0.69
-3.48
-6.68
-10.03
-13.31
-16.36
-19.23
-22.02
-24.77
-27.40
-29.63
-31.09
-31.52
-30.86
-29.27
-27.04
-24.37
-21.29
-17.70
-13.49
-8.72
-3.69
1.10
5.14
8.12
10.02
11.12
11.85
12.56
13.40
14.28
15.01
15.38
15.36
15.05
14.66
14.30
13.98
13.53
12.79
11.68
10.30
8.84
7.46
6.25
5.11
3.95
2.67
1.32
0.02
-1.12
-2.05
-2.88
-3.79
-4.99
-6.60
-8.57
-10.77
-13.09
-15.50
-18.10
-20.99
-24.19
-27.50
-30.50
-32.67
-33.58
-33.03
-31.15
-28.32
-24.99
-21.51
-18.05
-14.56
-10.93
-7.10
-3.13
0.69
4.00
6.58
8.31
9.31
9.82
10.04
10.09
10.06
10.02
10.07
10.40
11.11
12.21
13.49
14.62
15.25
15.20
14.43
13.09
11.42
9.67
7.97
6.38
4.86
3.27
1.45
-0.68
-3.03
-5.38
-7.45
-9.03
-10.14
-10.98
-11.88
-13.12
-14.84
-16.95
-19.22
-21.37
-23.16
-24.45
-25.12
-25.07
-24.24
-22.60
-20.21
-17.24
-13.90
-10.38
-6.83
-3.31
0.13
3.46
6.63
9.54
12.14
14.37
16.18
17.50
18.33
18.71
18.79
18.81
18.92
19.23
19.68
20.09
20.32
20.28
20.04
19.72
19.42
19.12
18.69
18.00
16.94
15.58
13.98
12.28
10.54
8.78
7.00
5.23
3.54
2.02
0.66
-0.56
-1.79
-3.18
-4.87
-6.91
-9.29
-11.95
-14.81
-17.80
-20.79
-23.60
-25.92
-27.48
-28.01
-27.36
-25.55
-22.79
-19.35
-15.56
-11.68
-7.92
-4.37
-1.08
1.94
4.68
7.11
9.17
10.85
12.09
12.95
13.48
13.75
13.79
13.63
13.26
12.71
12.01
11.18
10.23
9.18
7.96
6.54
4.86
2.98
0.97
-1.03
-2.84
-4.31
-5.37
-6.10
-6.64
-7.24
-8.09
-9.23
-10.61
-12.11
-13.64
-15.18
-16.81
-18.59
-20.54
-22.56
-24.52
-26.25
-27.61
-28.50
-28.82
-28.50
-27.46
-25.67
-23.20
-20.17
-16.76
-13.14
-9.46
-5.74
-2.03
1.66
5.29
8.67
11.62
13.90
15.42
16.17
16.25
15.87
15.20
14.40
13.58
12.77
12.02
11.32
10.69
10.16
9.75
9.44
9.18
8.85
8.31
7.44
6.24
4.80
3.29
1.84
0.44
-0.96
-2.49
-4.19
-6.02
-7.90
-9.76
-11.60
-13.42
-15.27
-17.15
-19.05
-20.91
-22.67
-24.21
-25.37
-25.99
-25.89
-24.98
-23.29
-20.90
-17.95
-14.53
-10.75
-6.75
-2.74
1.05
4.39
7.26
9.72
11.91
13.95
15.85
17.47
18.66
19.30
19.37
18.96
18.19
17.22
16.19
15.23
14.44
13.87
13.47
13.07
12.53
11.68
10.52
9.10
7.60
6.19
5.00
4.04
3.24
2.43
1.46
0.26
-1.19
-2.83
-4.49
-6.06
-7.44
-8.62
-9.65
-10.65
-11.78
-13.22
-15.05
-17.17
-19.32
-21.08
-22.01
-21.84
-20.57
-18.37
-15.57
-12.38
-8.93
-5.26
-1.40
2.56
6.43
9.98
13.05
15.48
17.24
18.34
18.81
18.84
18.63
18.39
18.31
18.44
18.74
19.11
19.46
19.70
19.80
19.75
19.43
18.80
17.81
16.47
14.83
12.99
11.00
8.90
6.71
4.45
2.15
-0.11
-2.24
-4.16
-5.80
-7.19
-8.41
-9.58
-10.83
-12.20
-13.67
-15.22
-16.84
-18.57
-20.48
-22.54
-24.64
-26.57
-28.00
-28.63
-28.29
-26.95
-24.69
-21.72
-18.27
-14.58
-10.87
-7.24
-3.77
-0.50
2.54
5.28
7.68
9.73
11.42
12.82
13.95
14.74
15.11
14.97
14.37
13.48
12.53
11.73
11.13
10.60
9.93
8.96
7.68
6.20
4.73
3.43
2.38
1.52
0.75
-0.03
-0.88
-1.81
-2.83
-3.98
-5.35
-7.04
-9.10
-11.53
-14.20
-16.95
-19.63
-22.17
-24.48
-26.56
-28.33
-29.62
-30.21
-29.92
-28.69
-26.63
-24.02
-21.10
-18.05
-14.81
-11.24
-7.25
-2.92
1.45
5.44
8.75
11.25
13.06
14.41
15.50
16.44
17.26
18.00
18.67
19.34
20.03
20.67
21.12
21.18
20.69
19.59
17.95
15.91
13.64
11.34
9.12
7.11
5.29
3.62
1.97
0.28
-1.42
-3.06
-4.49
-5.67
-6.63
-7.50
-8.42
-9.39
-10.34
-11.17
-11.86
-12.53
-13.36
-14.47
-15.83
-17.28
-18.58
-19.53
-20.03
-20.08
-19.65
-18.68
-17.07
-14.77
-11.83
-8.40
-4.69
-0.87
2.96
6.77
10.56
14.30
17.80
20.81
23.07
24.41
24.83
24.54
23.82
22.92
22.02
21.09
20.00
18.56
16.68
14.34
11.67
8.85
6.10
3.64
1.65
0.28
-0.42
-0.47
0.01
0.89
2.07
3.44
4.93
6.37
7.51
8.00
7.47
5.72
2.76
-1.15
-5.61
-10.28
-14.89
-19.30
-23.31
-26.73
-29.23
-30.58
-30.66
-29.54
-27.44
-24.57
-21.08
-17.00
-12.40
-7.41
-2.25
2.81
7.48
11.51
14.71
16.93
18.15
18.46
18.06
17.21
16.15
15.05
13.99
13.00
12.11
11.38
10.84
10.46
10.11
9.61
8.81
7.66
6.22
4.63
3.05
1.62
0.38
-0.71
-1.72
-2.78
-3.93
-5.25
-6.77
-8.49
-10.38
-12.39
-14.43
-16.48
-18.55
-20.71
-22.98
-25.35
-27.65
-29.64
-31.08
-31.71
-31.44
-30.21
-28.07
-25.07
-21.32
-17.00
-12.34
-7.59
-2.93
1.62
6.10
10.66
15.31
19.98
24.39
28.21
31.12
32.94
33.67
33.49
32.68
31.62
30.68
30.13
30.08
30.36
30.58
30.23
28.99
26.88
24.39
22.32
21.40
21.91
23.42
24.98
25.50
24.29
21.40
17.61
14.17
12.24
12.65
15.75
21.35
28.86
37.39
45.93
53.70
60.36
66.22
71.86
77.64
82.95
85.86
83.46
73.01
53.35
26.03
-4.76
-33.36
-54.55
-65.43
-66.19
-59.74
-50.20
-41.13
-34.23
-29.02
-23.47
-15.40
-3.77
10.57
24.81
35.22
38.59
33.70
22.00
7.14
-6.40
-15.18
-18.10
-16.69
-14.28
-14.56
-20.20
-32.29
-50.46
-73.45
-99.83
-128.19
-157.22
-185.56
-211.87
-234.97
-254.13
-269.08
-279.86
-286.37
-288.00
-283.68
-272.23
-252.99
-226.39
-193.99
-158.26
-121.84
-87.05
-55.49
-27.93
-4.43
15.72
33.81
51.55
70.66
92.34
116.73
142.89
168.91
192.57
211.85
225.36
232.48
233.29
228.38
218.65
205.18
189.08
171.42
153.23
135.35
118.53
103.35
90.16
79.10
70.05
62.66
56.44
50.89
45.61
40.41
35.28
30.30
25.63
21.30
17.22
13.26
9.29
5.31
1.42
-2.24
-5.56
-8.55
-11.26
-13.77
-16.09
-18.19
-19.99
-21.39
-22.34
-22.80
-22.68
-21.94
-20.51
-18.42
-15.80
-12.87
-9.85
-6.92
-4.18
-1.69
0.54
2.52
4.29
5.88
7.33
8.58
9.53
10.08
10.15
9.84
9.38
9.04
8.98
9.17
9.48
9.66
9.61
9.29
8.78
8.11
7.23
6.08
4.63
2.99
1.34
-0.12
-1.34
-2.43
-3.61
-5.05
-6.76
-8.59
-10.25
-11.50
-12.28
-12.77
-13.31
-14.24
-15.69
-17.53
-19.38
-20.80
-21.48
-21.36
-20.65
-19.65
-18.57
-17.43
-16.08
-14.30
-11.98
-9.16
-6.02
-2.77
0.36
3.20
5.65
7.59
9.01
9.91
10.36
10.50
10.48
10.44
10.53
10.89
11.54
12.42
13.32
13.99
14.21
13.90
13.13
12.12
11.04
9.96
8.76
7.27
5.32
2.91
0.22
-2.49
-4.95
-7.05
-8.81
-10.32
-11.77
-13.26
-14.91
-16.86
-19.20
-21.92
-24.87
-27.71
-29.98
-31.27
-31.31
-30.09
-27.83
-24.93
-21.79
-18.74
-15.93
-13.32
-10.82
-8.26
-5.59
-2.85
-0.19
2.26
4.41
6.21
7.71
8.91
9.83
10.43
10.72
10.71
10.43
9.95
9.29
8.49
7.62
6.78
6.10
5.67
5.61
5.91
6.48
7.13
7.54
7.42
6.55
4.94
2.84
0.67
-1.21
-2.58
-3.44
-3.96
-4.38
-4.82
-5.34
-5.86
-6.31
-6.66
-6.84
-6.79
-6.28
-5.03
-2.80
0.52
4.81
9.76
14.98
20.24
25.48
30.83
36.52
42.67
49.25
56.03
62.74
69.17
75.19
80.78
86.01
90.98
95.82
100.67
105.65
110.84
116.14
121.30
125.83
129.14
130.54
129.39
125.22
117.77
107.19
93.96
78.86
62.78
46.47
30.46
14.90
-0.27
-15.21
-29.97
-44.39
-58.18
-71.03
-82.76
-93.33
-102.83
-111.28
-118.51
-124.18
-127.81
-129.06
-127.80
-124.17
-118.53
-111.35
-103.03
-93.92
-84.28
-74.33
-64.34
-54.56
-45.27
-36.74
-29.21
-22.82
-17.58
-13.34
-9.82
-6.73
-3.82
-1.05
1.45
3.39
4.51
4.72
4.17
3.23
2.32
1.74
1.57
1.65
1.69
1.51
1.12
0.82
1.04
2.23
4.67
8.31
12.82
17.51
21.55
24.14
24.82
23.60
21.08
18.30
16.37
16.10
17.62
20.28
22.75
23.47
21.19
15.39
6.49
-4.37
-15.72
-26.26
-35.10
-41.91
-46.72
-49.69
-51.02
-50.92
-49.76
-48.03
-46.32
-45.06
-44.41
-44.22
-44.08
-43.58
-42.44
-40.63
-38.31
-35.76
-33.26
-31.07
-29.34
-28.07
-27.18
-26.41
-25.52
-24.34
-22.81
-21.10
-19.55
-18.46
-18.04
-18.26
-18.85
-19.40
-19.53
-19.10
-18.21
-17.24
-16.63
-16.66
-17.43
-18.77
-20.41
-22.13
-23.89
-25.81
-27.98
-30.38
-32.71
-34.50
-35.23
-34.47
-32.08
-28.21
-23.27
-17.78
-12.24
-7.00
-2.20
2.13
6.06
9.60
12.72
15.40
17.59
19.40
20.94
22.34
23.61
24.61
25.14
25.04
24.32
23.18
21.96
20.96
20.36
20.14
20.12
20.03
19.66
18.93
17.85
16.56
15.18
13.77
12.26
10.55
8.49
6.01
3.16
0.05
-3.09
-6.09
-8.85
-11.38
-13.79
-16.24
-18.85
-21.64
-24.51
-27.20
-29.40
-30.74
-30.93
-29.81
-27.43
-23.99
-19.86
-15.38
-10.89
-6.59
-2.54
1.28
4.98
8.62
12.24
15.80
19.13
22.05
24.38
25.97
26.75
26.72
25.93
24.44
22.42
20.03
17.53
15.18
13.19
11.66
10.59
9.89
9.42
9.08
8.70
8.15
7.28
6.05
4.43
2.55
0.52
-1.56
-3.65
-5.78
-7.95
-10.19
-12.49
-14.88
-17.40
-20.13
-23.10
-26.19
-29.16
-31.72
-33.58
-34.57
-34.64
-33.78
-32.03
-29.35
-25.67
-21.01
-15.49
-9.38
-3.06
3.09
8.80
13.87
18.23
21.84
24.66
26.69
27.97
28.64
28.84
28.75
28.44
27.93
27.22
26.28
25.14
23.89
22.57
21.27
20.05
18.91
17.82
16.69
15.35
13.67
11.58
9.15
6.59
4.11
1.79
-0.30
-2.29
-4.23
-6.17
-8.15
-10.17
-12.25
-14.32
-16.34
-18.20
-19.85
-21.34
-22.86
-24.68
-26.90
-29.40
-31.70
-33.16
-33.17
-31.44
-28.07
-23.51
-18.35
-13.09
-8.00
-3.10
1.67
6.30
10.69
14.60
17.87
20.42
22.30
23.62
24.43
24.72
24.47
23.74
22.71
21.66
20.79
20.16
19.57
18.73
17.45
15.70
13.72
11.81
10.15
8.74
7.42
5.95
4.25
2.37
0.48
-1.31
-3.04
-4.88
-7.05
-9.64
-12.60
-15.62
-18.37
-20.62
-22.41
-24.07
-26.06
-28.75
-32.18
-35.94
-39.33
-41.52
-41.93
-40.42
-37.23
-32.82
-27.65
-22.05
-16.18
-10.20
-4.27
1.39
6.55
11.08
15.00
18.36
21.26
23.67
25.55
26.75
27.23
27.03
26.32
25.29
24.12
22.89
21.65
20.39
19.16
18.02
16.96
15.96
14.88
13.57
11.93
10.01
7.92
5.82
3.85
2.06
0.47
-0.98
-2.32
-3.65
-5.11
-6.84
-8.97
-11.45
-14.14
-16.81
-19.26
-21.37
-23.17
-24.76
-26.23
-27.60
-28.71
-29.31
-29.09
-27.76
-25.15
-21.30
-16.41
-10.82
-4.89
1.05
6.81
12.27
17.33
21.88
25.82
29.05
31.60
33.49
34.83
35.65
35.93
35.59
34.60
33.02
31.07
29.08
27.29
25.85
24.67
23.56
22.29
20.72
18.82
16.66
14.35
11.97
9.57
7.09
4.46
1.58
-1.65
-5.31
-9.41
-13.89
-18.66
-23.54
-28.36
-32.95
-37.19
-40.98
-44.29
-47.19
-49.77
-52.10
-54.15
-55.72
-56.47
-56.01
-53.99
-50.21
-44.68
-37.58
-29.25
-20.09
-10.54
-1.05
7.98
16.20
23.32
29.14
33.58
36.74
38.87
40.29
41.29
42.02
42.40
42.29
41.49
40.05
38.22
36.41
34.92
33.84
32.96
31.90
30.30
28.04
25.29
22.45
19.93
18.04
16.80
15.94
15.07
13.80
11.98
9.64
7.00
4.32
1.80
-0.45
-2.53
-4.53
-6.63
-9.02
-11.84
-15.17
-18.92
-22.84
-26.48
-29.28
-30.72
-30.43
-28.32
-24.57
-19.61
-14.01
-8.25
-2.68
2.57
7.51
12.12
16.28
19.80
22.49
24.32
25.45
26.17
26.77
27.36
27.82
27.86
27.23
25.84
23.88
21.65
19.43
17.34
15.32
13.19
10.86
8.41
6.13
4.32
3.21
2.69
2.42
1.87
0.59
-1.63
-4.65
-8.11
-11.50
-14.42
-16.75
-18.59
-20.18
-21.80
-23.60
-25.59
-27.71
-29.76
-31.51
-32.62
-32.74
-31.63
-29.16
-25.48
-20.87
-15.69
-10.22
-4.64
0.98
6.53
11.86
16.71
20.81
23.94
25.99
27.01
27.16
26.68
25.80
24.73
23.59
22.48
21.47
20.54
19.73
19.01
18.31
17.59
16.76
15.76
14.51
13.01
11.34
9.58
7.86
6.20
4.58
2.86
0.92
-1.35
-3.92
-6.60
-9.15
-11.34
-13.13
-14.68
-16.31
-18.38
-21.12
-24.49
-28.13
-31.48
-33.89
-34.82
-34.01
-31.45
-27.44
-22.46
-17.03
-11.66
-6.65
-2.10
2.06
6.02
9.92
13.83
17.62
21.03
23.80
25.76
26.95
27.48
27.54
27.25
26.66
25.82
24.79
23.74
22.88
22.35
22.14
22.04
21.74
20.99
19.63
17.70
15.36
12.83
10.28
7.81
5.49
3.32
1.24
-0.82
-2.98
-5.30
-7.82
-10.41
-12.98
-15.37
-17.57
-19.61
-21.64
-23.77
-26.09
-28.58
-31.08
-33.34
-35.04
-35.84
-35.46
-33.75
-30.68
-26.41
-21.18
-15.32
-9.17
-3.05
2.72
7.94
12.55
16.55
20.00
22.93
25.28
26.94
27.86
28.05
27.62
26.73
25.53
24.12
22.56
20.99
19.53
18.33
17.44
16.76
16.06
15.04
13.55
11.58
9.34
7.09
5.00
3.07
1.18
-0.85
-3.14
-5.59
-8.03
-10.27
-12.23
-13.98
-15.68
-17.55
-19.68
-22.14
-24.88
-27.78
-30.74
-33.52
-35.81
-37.14
-37.10
-35.41
-32.11
-27.58
-22.38
-17.06
-11.87
-6.82
-1.71
3.56
8.88
13.91
18.16
21.32
23.33
24.43
25.01
25.42
25.81
26.13
26.20
25.84
25.03
23.87
22.55
21.21
19.90
18.53
16.98
15.21
13.24
11.19
9.18
7.28
5.44
3.58
1.60
-0.54
-2.83
-5.22
-7.61
-9.91
-12.00
-13.83
-15.45
-17.01
-18.75
-20.85
-23.37
-26.21
-29.06
-31.52
-33.20
-33.78
-33.12
-31.17
-28.00
-23.80
-18.81
-13.31
-7.67
-2.19
2.96
7.66
11.98
15.96
19.58
22.72
25.20
26.88
27.77
28.00
27.78
27.28
26.55
25.55
24.27
22.77
21.22
19.80
18.63
17.66
16.69
15.52
14.00
12.15
10.09
8.04
6.13
4.38
2.74
1.09
-0.68
-2.65
-4.79
-7.05
-9.32
-11.53
-13.68
-15.82
-18.07
-20.55
-23.33
-26.38
-29.55
-32.54
-34.91
-36.21
-36.02
-34.18
-30.82
-26.33
-21.27
-16.09
-11.04
-6.16
-1.35
3.45
8.21
12.77
16.99
20.76
24.02
26.73
28.82
30.16
30.68
30.37
29.35
27.87
26.17
24.45
22.76
21.11
19.46
17.74
15.96
14.09
12.17
10.21
8.28
6.41
4.66
3.04
1.52
0.06
-1.43
-3.00
-4.73
-6.67
-8.75
-10.88
-12.88
-14.60
-15.99
-17.15
-18.34
-19.81
-21.71
-24.03
-26.50
-28.76
-30.37
-31.02
-30.49
-28.76
-25.95
-22.28
-18.03
-13.45
-8.74
-4.04
0.54
4.87
8.83
12.31
15.31
17.82
19.88
21.55
22.80
23.63
24.03
24.03
23.67
23.03
22.16
21.11
19.97
18.80
17.70
16.70
15.75
14.74
13.58
12.17
10.48
8.56
6.45
4.22
1.95
-0.25
-2.31
-4.12
-5.69
-7.11
-8.50
-10.02
-11.69
-13.45
-15.19
-16.81
-18.36
-19.98
-21.81
-23.89
-26.03
-27.87
-29.00
-29.06
-27.89
-25.60
-22.42
-18.64
-14.57
-10.45
-6.39
-2.50
1.24
4.83
8.25
11.47
14.35
16.74
18.47
19.50
19.89
19.83
19.55
19.28
19.12
19.08
19.00
18.69
17.94
16.71
15.03
13.04
10.94
8.86
6.89
5.07
3.42
1.93
0.51
-0.85
-2.25
-3.75
-5.36
-7.07
-8.77
-10.39
-11.85
-13.16
-14.40
-15.67
-17.13
-18.88
-20.95
-23.26
-25.59
-27.67
-29.16
-29.77
-29.27
-27.50
-24.50
-20.43
-15.64
-10.57
-5.61
-1.03
3.10
6.87
10.43
13.85
17.03
19.77
21.84
23.11
23.61
23.44
22.79
21.82
20.63
19.36
18.13
17.08
16.24
15.61
15.00
14.23
13.16
11.77
10.19
8.58
7.10
5.74
4.42
3.01
1.38
-0.42
-2.28
-4.10
-5.83
-7.51
-9.20
-10.93
-12.61
-14.14
-15.42
-16.51
-17.65
-19.15
-21.17
-23.67
-26.24
-28.32
-29.36
-29.01
-27.28
-24.41
-20.77
-16.66
-12.30
-7.78
-3.19
1.34
5.67
9.63
13.11
16.10
18.60
20.64
22.23
23.38
24.06
24.26
24.00
23.32
22.32
21.11
19.75
18.26
16.62
14.81
12.88
10.89
8.96
7.18
5.65
4.40
3.40
2.58
1.78
0.89
-0.20
-1.52
-3.01
-4.56
-6.10
-7.63
-9.23
-10.97
-12.84
-14.71
-16.39
-17.72
-18.71
-19.54
-20.49
-21.80
-23.45
-25.14
-26.33
-26.48
-25.22
-22.57
-18.86
-14.61
-10.27
-6.09
-2.06
1.94
6.01
10.07
13.82
16.86
18.88
19.81
19.82
19.31
18.67
18.16
17.82
17.48
16.95
16.11
14.99
13.71
12.41
11.19
10.02
8.85
7.58
6.17
4.64
3.05
1.48
0.02
-1.26
-2.38
-3.39
-4.39
-5.50
-6.83
-8.40
-10.20
-12.12
-14.04
-15.86
-17.49
-18.96
-20.30
-21.57
-22.82
-23.97
-24.90
-25.40
-25.21
-24.10
-21.95
-18.81
-14.91
-10.65
-6.40
-2.43
1.21
4.60
7.79
10.73
13.26
15.19
16.44
17.13
17.54
17.91
18.24
18.37
18.03
17.08
15.58
13.87
12.34
11.29
10.78
10.61
10.51
10.18
9.53
8.62
7.52
6.31
4.98
3.49
1.78
-0.09
-2.00
-3.83
-5.49
-7.00
-8.43
-9.88
-11.44
-13.19
-15.18
-17.48
-20.04
-22.73
-25.29
-27.36
-28.63
-28.85
-27.94
-25.88
-22.80
-18.87
-14.28
-9.32
-4.25
0.67
5.22
9.30
12.87
15.92
18.48
20.56
22.12
23.12
23.54
23.34
22.59
21.38
19.88
18.24
16.52
14.76
12.98
11.23
9.65
8.36
7.42
6.71
6.05
5.23
4.11
2.67
0.98
-0.84
-2.66
-4.36
-5.83
-7.02
-7.91
-8.52
-8.96
-9.41
-10.06
-11.08
-12.59
-14.59
-16.98
-19.56
-22.03
-24.10
-25.46
-25.90
-25.28
-23.59
-20.95
-17.60
-13.90
-10.16
-6.55
-3.04
0.54
4.37
8.50
12.76
16.78
20.14
22.58
24.04
24.71
24.79
24.40
23.58
22.29
20.60
18.68
16.75
15.03
13.59
12.33
11.12
9.84
8.44
6.98
5.52
4.11
2.74
1.39
0.03
-1.32
-2.66
-3.97
-5.22
-6.38
-7.44
-8.43
-9.44
-10.56
-11.87
-13.44
-15.33
-17.56
-20.15
-23.01
-25.89
-28.32
-29.77
-29.78
-28.22
-25.30
-21.51
-17.37
-13.24
-9.24
-5.28
-1.29
2.68
6.48
9.92
12.93
15.49
17.65
19.36
20.48
20.87
20.46
19.45
18.20
17.07
16.27
15.75
15.26
14.53
13.43
11.99
10.38
8.74
7.13
5.52
3.87
2.15
0.38
-1.40
-3.16
-4.83
-6.42
-7.88
-9.20
-10.40
-11.51
-12.65
-13.86
-15.20
-16.70
-18.35
-20.17
-22.09
-23.99
-25.60
-26.60
-26.70
-25.70
-23.56
-20.35
-16.28
-11.60
-6.62
-1.69
2.93
7.08
10.71
13.88
16.61
18.91
20.71
21.92
22.52
22.54
22.10
21.26
20.12
18.76
17.35
16.11
15.18
14.60
14.18
13.64
12.65
11.04
8.89
6.47
4.13
2.10
0.43
-1.00
-2.38
-3.93
-5.74
-7.81
-10.01
-12.18
-14.21
-16.09
-17.89
-19.73
-21.71
-23.77
-25.74
-27.34
-28.29
-28.45
-27.75
-26.28
-24.06
-21.10
-17.40
-13.07
-8.34
-3.58
0.86
4.80
8.29
11.51
14.64
17.67
20.38
22.42
23.55
23.73
23.23
22.42
21.67
21.19
20.99
20.97
20.97
20.87
20.56
19.94
18.98
17.64
15.96
14.04
12.00
9.96
7.99
6.08
4.20
2.33
0.42
-1.55
-3.60
-5.76
-7.97
-10.20
-12.30
-14.17
-15.80
-17.35
-19.04
-21.13
-23.68
-26.50
-29.14
-31.06
-31.87
-31.41
-29.79
-27.23
-23.91
-19.91
-15.28
-10.17
-4.82
0.46
5.40
9.89
13.96
17.63
20.89
23.55
25.44
26.47
26.70
26.37
25.74
24.99
24.20
23.38
22.50
21.57
20.61
19.59
18.46
17.19
15.77
14.23
12.61
10.95
9.24
7.43
5.51
3.56
1.69
0.01
-1.43
-2.67
-3.82
-5.05
-6.48
-8.19
-10.06
-11.93
-13.61
-15.04
-16.34
-17.71
-19.38
-21.40
-23.62
-25.67
-27.18
-27.82
-27.44
-26.01
-23.61
-20.35
-16.41
-11.95
-7.21
-2.45
2.13
6.33
10.04
13.17
15.75
17.84
19.53
20.89
21.90
22.51
22.62
22.21
21.45
20.53
19.72
19.15
18.78
18.49
18.10
17.51
16.70
15.67
14.47
13.08
11.53
9.83
8.05
6.34
4.81
3.56
2.56
1.67
0.71
-0.55
-2.15
-4.07
-6.15
-8.23
-10.18
-11.97
-13.60
-15.15
-16.66
-18.26
-20.00
-21.95
-23.97
-25.81
-27.00
-27.16
-26.11
-23.94
-21.01
-17.64
-14.04
-10.20
-6.00
-1.43
3.32
7.90
11.91
15.07
17.28
18.63
19.32
19.55
19.44
19.06
18.42
17.55
16.53
15.46
14.48
13.69
13.11
12.70
12.31
11.77
10.98
9.89
8.54
6.97
5.26
3.50
1.79
0.25
-1.08
-2.25
-3.40
-4.71
-6.30
-8.10
-9.91
-11.45
-12.57
-13.33
-13.96
-14.78
-16.07
-17.94
-20.34
-23.03
-25.63
-27.70
-28.83
-28.70
-27.26
-24.67
-21.21
-17.26
-13.07
-8.79
-4.45
-0.09
4.26
8.42
12.23
15.53
18.17
20.11
21.38
22.09
22.37
22.34
22.08
21.63
21.00
20.17
19.18
18.06
16.84
15.53
14.20
12.90
11.72
10.73
9.91
9.19
8.45
7.58
6.54
5.39
4.21
3.08
2.00
0.88
-0.42
-2.02
-3.90
-5.95
-8.01
-9.91
-11.60
-13.07
-14.40
-15.65
-16.87
-18.05
-19.16
-20.13
-20.81
-20.93
-20.18
-18.31
-15.21
-11.00
-5.93
-0.36
5.42
11.24
16.97
22.55
27.90
32.97
37.75
42.37
47.03
51.95
57.24
62.73
68.11
73.03
77.33
81.12
84.67
88.24
91.88
95.41
98.52
101.04
103.03
104.70
106.22
107.50
108.07
107.22
104.27
98.92
91.37
82.30
72.44
62.26
51.76
40.50
28.04
14.27
-0.35
-14.88
-28.34
-40.12
-50.27
-59.45
-68.63
-78.58
-89.53
-101.13
-112.61
-123.02
-131.63
-137.92
-141.73
-143.11
-142.23
-139.28
-134.41
-127.75
-119.35
-109.24
-97.40
-83.95
-69.28
-54.19
-39.88
-27.69
-18.69
-13.36
-11.39
-11.82
-13.49
-15.45
-17.27
-19.07
-21.32
-24.48
-28.73
-33.86
-39.26
-44.14
-47.72
-49.40
-48.95
-46.43
-42.20
-36.72
-30.41
-23.55
-16.22
-8.47
-0.25
8.34
17.06
25.37
32.42
37.20
38.71
36.36
30.26
21.34
10.99
0.78
-8.06
-14.84
-19.41
-21.92
-22.62
-21.70
-19.36
-15.86
-11.54
-6.87
-2.19
2.25
6.31
9.95
13.17
15.95
18.24
19.97
20.95
20.99
19.97
17.95
15.26
12.52
10.31
9.02
8.67
8.96
9.45
9.79
9.86
9.66
9.26
8.58
7.50
5.95
4.04
2.05
0.28
-1.08
-2.03
-2.78
-3.58
-4.56
-5.80
-7.28
-8.98
-10.86
-12.82
-14.66
-16.26
-17.55
-18.59
-19.58
-20.68
-21.83
-22.81
-23.24
-22.86
-21.59
-19.62
-17.20
-14.55
-11.72
-8.62
-5.16
-1.37
2.55
6.33
9.68
12.46
14.69
16.49
17.99
19.24
20.15
20.59
20.44
19.74
18.64
17.38
16.16
15.10
14.17
13.28
12.31
11.21
9.93
8.46
6.86
5.23
3.63
2.19
0.92
-0.25
-1.41
-2.66
-4.07
-5.60
-7.19
-8.77
-10.33
-11.88
-13.47
-15.14
-16.87
-18.66
-20.46
-22.18
-23.68
-24.74
-25.10
-24.55
-23.04
-20.69
-17.75
-14.50
-11.14
-7.70
-4.17
-0.48
3.33
7.16
10.81
14.09
16.87
19.04
20.60
21.55
22.00
22.01
21.73
21.26
20.66
20.04
19.40
18.77
18.12
17.41
16.58
15.60
14.44
13.17
11.86
10.56
9.31
8.06
6.78
5.45
4.09
2.69
1.25
-0.25
-1.83
-3.45
-5.11
-6.76
-8.39
-10.07
-11.85
-13.76
-15.78
-17.88
-20.01
-22.10
-24.07
-25.70
-26.70
-26.82
-25.90
-23.96
-21.18
-17.78
-13.95
-9.82
-5.48
-1.06
3.19
7.08
10.43
13.16
15.34
17.06
18.41
19.44
20.18
20.63
20.76
20.59
20.15
19.52
18.80
18.05
17.38
16.79
16.23
15.63
14.89
13.92
12.78
11.51
10.20
8.92
7.69
6.42
5.03
3.42
1.56
-0.51
-2.68
-4.81
-6.75
-8.42
-9.84
-11.14
-12.49
-14.09
-16.01
-18.23
-20.59
-22.87
-24.86
-26.35
-27.13
-27.03
-25.94
-23.89
-21.06
-17.76
-14.31
-10.95
-7.70
-4.49
-1.21
2.18
5.64
9.05
12.30
15.31
17.99
20.24
21.94
23.01
23.41
23.21
22.53
21.53
20.34
19.05
17.75
16.49
15.26
14.01
12.68
11.26
9.77
8.36
7.13
6.13
5.27
4.34
3.14
1.57
-0.34
-2.42
-4.51
-6.48
-8.32
-10.11
-12.00
-14.15
-16.74
-19.78
-23.18
-26.67
-29.82
-32.17
-33.36
-33.23
-31.77
-29.19
-25.69
-21.52
-16.88
-11.95
-6.95
-2.02
2.68
7.06
11.03
14.50
17.34
19.37
20.53
20.84
20.54
19.94
19.41
19.19
19.38
19.90
20.54
21.10
21.36
21.26
20.78
20.01
18.99
17.76
16.31
14.67
12.90
11.09
9.35
7.70
6.06
4.30
2.30
0.03
-2.43
-4.92
-7.35
-9.67
-11.99
-14.45
-17.17
-20.13
-23.20
-26.13
-28.64
-30.46
-31.42
-31.48
-30.77
-29.41
-27.58
-25.33
-22.58
-19.21
-15.13
-10.35
-5.04
0.47
5.86
10.79
15.04
18.51
21.15
22.97
24.04
24.45
24.38
24.08
23.75
23.51
23.33
23.05
22.49
21.49
20.06
18.37
16.67
15.16
13.92
12.89
11.85
10.67
9.26
7.65
5.91
4.08
2.17
0.20
-1.86
-3.98
-6.14
-8.34
-10.56
-12.80
-15.03
-17.20
-19.27
-21.29
-23.32
-25.46
-27.65
-29.65
-31.12
-31.62
-30.84
-28.72
-25.42
-21.32
-16.78
-12.17
-7.66
-3.34
0.81
4.83
8.75
12.53
16.09
19.27
21.94
23.98
25.42
26.34
26.92
27.24
27.29
26.97
26.22
25.05
23.65
22.26
21.06
20.08
19.18
18.12
16.73
15.00
13.03
10.96
8.87
6.75
4.55
2.26
-0.07
-2.38
-4.64
-6.90
-9.22
-11.56
-13.89
-16.11
-18.20
-20.24
-22.41
-24.87
-27.64
-30.53
-33.18
-35.19
-36.19
-36.00
-34.54
-31.88
-28.19
-23.74
-18.79
-13.63
-8.47
-3.43
1.43
6.04
10.26
13.96
17.05
19.53
21.44
22.89
23.95
24.65
24.96
24.92
24.62
24.24
23.91
23.70
23.52
23.21
22.57
21.44
19.81
17.79
15.59
13.40
11.31
9.34
7.44
5.53
3.57
1.54
-0.52
-2.63
-4.79
-7.02
-9.37
-11.84
-14.42
-17.14
-20.05
-23.22
-26.61
-30.08
-33.33
-35.91
-37.41
-37.51
-36.13
-33.38
-29.53
-24.90
-19.75
-14.29
-8.66
-3.01
2.52
7.81
12.70
17.09
20.88
24.01
26.44
28.12
29.03
29.22
28.80
27.97
26.94
25.83
24.72
23.59
22.34
20.97
19.52
18.05
16.64
15.26
13.85
12.34
10.78
9.31
8.03
6.97
5.98
4.78
3.10
0.74
-2.19
-5.44
-8.67
-11.55
-13.99
-16.04
-18.00
-20.16
-22.74
-25.76
-29.06
-32.35
-35.30
-37.62
-39.09
-39.52
-38.79
-36.82
-33.63
-29.39
-24.33
-18.74
-12.85
-6.81
-0.72
5.30
11.06
16.33
20.87
24.51
27.15
28.74
29.36
29.19
28.47
27.56
26.75
26.23
25.97
25.80
25.44
24.71
23.56
22.10
20.53
19.08
17.90
17.01
16.32
15.64
14.72
13.35
11.41
8.97
6.16
3.15
0.09
-2.93
-5.87
-8.61
-11.05
-13.09
-14.74
-16.19
-17.75
-19.73
-22.31
-25.45
-28.84
-32.03
-34.56
-36.07
-36.39
-35.50
-33.50
-30.48
-26.53
-21.69
-16.01
-9.67
-2.93
3.83
10.23
15.93
20.74
24.58
27.47
29.43
30.53
30.78
30.34
29.47
28.51
27.75
27.31
27.07
26.79
26.23
25.31
24.14
22.94
21.81
20.77
19.62
18.18
16.40
14.34
12.18
10.05
7.95
5.73
3.24
0.38
-2.76
-5.98
-9.05
-11.79
-14.21
-16.36
-18.41
-20.47
-22.65
-25.08
-27.83
-30.94
-34.28
-37.51
-40.12
-41.60
-41.60
-40.11
-37.37
-33.75
-29.54
-24.82
-19.57
-13.75
-7.52
-1.20
4.76
10.02
14.44
18.04
20.96
23.30
25.06
26.22
26.75
26.68
26.14
25.28
24.20
22.97
21.65
20.33
19.09
18.00
17.08
16.28
15.47
14.46
13.15
11.50
9.57
7.53
5.51
3.58
1.72
-0.18
-2.27
-4.61
-7.26
-10.12
-13.06
-15.96
-18.72
-21.32
-23.86
-26.44
-29.19
-32.16
-35.21
-38.00
-40.01
-40.75
-39.91
-37.47
-33.65
-28.85
-23.48
-17.86
-12.16
-6.44
-0.68
5.09
10.80
16.24
21.18
25.36
28.59
30.85
32.23
32.91
33.09
32.86
32.31
31.47
30.43
29.28
28.09
26.88
25.60
24.15
22.50
20.61
18.52
16.31
14.05
11.76
9.49
7.23
4.97
2.69
0.31
-2.17
-4.73
-7.30
-9.75
-11.99
-14.04
-15.99
-18.06
-20.49
-23.42
-26.80
-30.43
-34.05
-37.36
-40.14
-42.16
-43.26
-43.22
-41.91
-39.24
-35.27
-30.22
-24.38
-18.04
-11.44
-4.74
1.90
8.33
14.35
19.75
24.38
28.08
30.77
32.48
33.26
33.27
32.70
31.78
30.71
29.68
28.78
28.06
27.48
26.97
26.41
25.68
24.67
23.31
21.56
19.44
17.01
14.32
11.53
8.74
6.10
3.65
1.33
-1.02
-3.55
-6.31
-9.28
-12.28
-15.12
-17.70
-20.02
-22.21
-24.47
-26.95
-29.79
-32.91
-36.12
-39.02
-41.17
-42.08
-41.42
-39.06
-35.11
-29.89
-23.84
-17.37
-10.87
-4.61
1.29
6.88
12.30
17.62
22.83
27.69
31.85
34.97
36.88
37.64
37.54
36.92
36.05
35.04
33.92
32.71
31.47
30.36
29.46
28.73
27.96
26.85
25.14
22.75
19.80
16.55
13.31
10.30
7.61
5.13
2.70
0.12
-2.75
-5.86
-9.05
-12.10
-14.76
-16.97
-18.81
-20.51
-22.37
-24.62
-27.37
-30.57
-34.11
-37.70
-41.00
-43.61
-45.13
-45.25
-43.84
-40.97
-36.88
-31.91
-26.33
-20.35
-14.09
-7.63
-1.12
5.22
11.10
16.24
20.46
23.76
26.22
28.04
29.39
30.33
30.82
30.74
30.01
28.61
26.72
24.61
22.56
20.77
19.25
17.87
16.37
14.52
12.34
9.98
7.80
6.06
4.88
4.06
3.26
2.04
0.06
-2.70
-6.09
-9.77
-13.39
-16.73
-19.71
-22.42
-25.02
-27.66
-30.41
-33.29
-36.20
-38.95
-41.28
-42.82
-43.22
-42.13
-39.42
-35.19
-29.86
-23.91
-17.89
-12.12
-6.67
-1.38
4.01
9.61
15.34
20.88
25.82
29.78
32.53
34.07
34.55
34.21
33.29
32.02
30.60
29.18
27.92
26.93
26.25
25.73
25.12
24.14
22.52
20.22
17.38
14.40
11.68
9.45
7.71
6.24
4.67
2.79
0.52
-2.01
-4.66
-7.33
-9.99
-12.63
-15.22
-17.70
-20.06
-22.39
-24.93
-27.90
-31.36
-35.07
-38.48
-40.90
-41.79
-40.91
-38.37
-34.50
-29.75
-24.44
-18.84
-13.10
-7.35
-1.67
3.89
9.29
14.42
19.11
23.12
26.22
28.29
29.44
29.90
30.00
29.95
29.83
29.62
29.22
28.60
27.77
26.77
25.59
24.18
22.56
20.75
18.85
16.92
14.98
12.97
10.84
8.61
6.42
4.43
2.77
1.46
0.38
-0.65
-1.83
-3.34
-5.33
-7.91
-11.08
-14.77
-18.80
-22.96
-27.11
-31.17
-35.07
-38.64
-41.63
-43.64
-44.31
-43.42
-40.96
-37.12
-32.17
-26.43
-20.15
-13.57
-6.90
-0.32
5.95
11.72
16.79
21.08
24.55
27.25
29.26
30.70
31.62
32.01
31.92
31.37
30.47
29.33
28.05
26.66
25.21
23.68
22.10
20.50
18.87
17.16
15.31
13.28
11.08
8.76
6.45
4.22
2.15
0.18
-1.76
-3.79
-5.98
-8.38
-10.96
-13.60
-16.21
-18.68
-21.00
-23.22
-25.53
-28.09
-31.02
-34.24
-37.50
-40.43
-42.54
-43.46
-42.94
-40.94
-37.62
-33.28
-28.25
-22.81
-17.18
-11.47
-5.73
-0.03
5.51
10.68
15.26
19.05
21.96
23.99
25.32
26.11
26.52
26.60
26.27
25.51
24.30
22.78
21.15
19.56
18.03
16.45
14.70
12.70
10.57
8.52
6.77
5.38
4.25
3.17
1.92
0.40
-1.45
-3.57
-5.87
-8.27
-10.67
-12.96
-15.10
-17.13
-19.19
-21.58
-24.51
-28.06
-32.01
-35.86
-39.03
-40.93
-41.20
-39.76
-36.81
-32.66
-27.68
-22.17
-16.36
-10.41
-4.42
1.59
7.57
13.44
19.02
23.99
28.00
30.78
32.24
32.53
31.94
30.81
29.40
27.89
26.42
25.11
24.06
23.27
22.63
21.90
20.90
19.56
17.92
16.12
14.22
12.20
10.01
7.66
5.25
2.89
0.69
-1.40
-3.49
-5.68
-7.99
-10.29
-12.46
-14.46
-16.41
-18.53
-21.03
-24.03
-27.43
-31.01
-34.43
-37.27
-39.17
-39.80
-38.99
-36.74
-33.22
-28.73
-23.58
-18.05
-12.38
-6.77
-1.32
3.87
8.73
13.23
17.32
20.92
23.90
26.16
27.66
28.47
28.73
28.59
28.12
27.35
26.30
25.06
23.80
22.72
21.85
21.13
20.33
19.26
17.83
16.16
14.43
12.81
11.36
9.97
8.44
6.55
4.20
1.43
-1.59
-4.64
-7.49
-10.05
-12.35
-14.51
-16.72
-19.11
-21.72
-24.52
-27.39
-30.19
-32.79
-34.97
-36.43
-36.84
-35.94
-33.65
-30.12
-25.71
-20.84
-15.86
-10.97
-6.17
-1.41
3.34
8.04
12.56
16.73
20.32
23.16
25.09
26.11
26.35
26.04
25.50
24.94
24.50
24.19
24.01
23.89
23.77
23.54
23.02
22.08
20.63
18.83
16.91
15.08
13.45
11.85
10.01
7.69
4.84
1.63
-1.70
-4.94
-8.02
-11.00
-14.01
-17.07
-20.16
-23.24
-26.35
-29.59
-33.09
-36.85
-40.62
-43.96
-46.32
-47.24
-46.41
-43.85
-39.71
-34.36
-28.18
-21.62
-15.07
-8.82
-3.01
2.34
7.29
11.91
16.18
20.04
23.31
25.87
27.59
28.46
28.50
27.85
26.73
25.33
23.90
22.55
21.35
20.26
19.23
18.20
17.17
16.16
15.12
13.98
12.57
10.80
8.65
6.23
3.75
1.30
-1.13
-3.71
-6.61
-9.90
-13.44
-17.02
-20.40
-23.52
-26.48
-29.45
-32.54
-35.64
-38.48
-40.63
-41.70
-41.43
-39.73
-36.71
-32.59
-27.66
-22.16
-16.40
-10.57
-4.83
0.73
6.05
11.07
15.72
19.90
23.53
26.57
29.03
30.99
32.49
33.52
34.04
34.01
33.47
32.58
31.50
30.38
29.23
27.99
26.48
24.56
22.17
19.38
16.35
13.36
10.66
8.39
6.56
4.98
3.36
1.39
-1.10
-4.11
-7.49
-10.96
-14.29
-17.38
-20.22
-22.88
-25.47
-28.08
-30.74
-33.47
-36.17
-38.63
-40.50
-41.35
-40.79
-38.66
-35.07
-30.32
-24.81
-18.86
-12.65
-6.31
0.03
6.19
11.91
16.96
21.19
24.56
27.14
29.08
30.43
31.28
31.65
31.55
31.04
30.18
29.07
27.83
26.55
25.28
24.04
22.78
21.51
20.15
18.67
16.99
15.06
12.94
10.75
8.65
6.72
4.92
3.14
1.23
-0.92
-3.31
-5.88
-8.60
-11.42
-14.29
-17.16
-19.91
-22.53
-25.12
-27.87
-30.97
-34.40
-37.80
-40.56
-42.02
-41.69
-39.49
-35.70
-30.77
-25.20
-19.30
-13.26
-7.18
-1.17
4.64
10.08
15.07
19.58
23.63
27.12
29.94
31.93
33.01
33.23
32.74
31.81
30.69
29.60
28.65
27.88
27.27
26.76
26.29
25.78
25.07
24.07
22.62
20.70
18.36
15.76
13.08
10.44
7.88
5.35
2.78
0.20
-2.33
-4.74
-6.99
-9.16
-11.33
-13.57
-15.85
-18.12
-20.32
-22.49
-24.74
-27.21
-29.94
-32.81
-35.50
-37.57
-38.61
-38.35
-36.67
-33.70
-29.71
-24.98
-19.73
-14.03
-7.94
-1.57
4.79
10.77
16.00
20.23
23.42
25.67
27.13
27.89
27.97
27.44
26.39
25.04
23.62
22.30
21.13
20.04
18.92
17.75
16.48
15.15
13.76
12.33
10.86
9.31
7.71
6.02
4.23
2.28
0.15
-2.17
-4.65
-7.28
-10.03
-12.85
-15.69
-18.48
-21.16
-23.68
-26.07
-28.43
-30.87
-33.48
-36.27
-39.05
-41.49
-43.23
-43.81
-42.95
-40.57
-36.75
-31.80
-26.05
-19.88
-13.54
-7.22
-0.99
5.06
10.79
15.97
20.33
23.70
26.04
27.51
28.33
28.68
28.69
28.37
27.71
26.79
25.78
24.85
24.13
23.59
23.10
22.48
21.57
20.30
18.62
16.54
14.08
11.33
8.47
5.66
3.05
0.68
-1.50
-3.65
-5.85
-8.11
-10.36
-12.49
-14.45
-16.32
-18.20
-20.23
-22.46
-24.88
-27.39
-29.86
-32.14
-34.06
-35.40
-35.94
-35.44
-33.72
-30.77
-26.70
-21.76
-16.26
-10.46
-4.60
1.20
6.76
11.94
16.56
20.51
23.74
26.35
28.42
29.98
30.96
31.28
30.89
29.93
28.66
27.32
26.10
25.00
23.93
22.76
21.42
19.93
18.26
16.40
14.35
12.16
9.99
8.01
6.38
5.07
3.86
2.43
0.48
-2.05
-5.02
-8.05
-10.80
-13.05
-14.77
-16.14
-17.41
-18.86
-20.68
-22.95
-25.67
-28.67
-31.63
-34.13
-35.70
-35.97
-34.73
-32.03
-28.11
-23.30
-17.90
-12.15
-6.29
-0.51
4.93
9.85
14.14
17.84
21.10
24.06
26.76
29.12
30.97
32.17
32.69
32.61
32.04
31.11
29.84
28.26
26.43
24.54
22.73
21.10
19.56
17.97
16.17
14.10
11.80
9.41
7.04
4.71
2.42
0.12
-2.26
-4.77
-7.44
-10.27
-13.16
-15.96
-18.49
-20.62
-22.41
-24.01
-25.65
-27.46
-29.48
-31.60
-33.64
-35.33
-36.38
-36.45
-35.24
-32.66
-28.82
-24.13
-19.08
-14.12
-9.46
-5.10
-0.91
3.22
7.25
11.01
14.29
16.94
18.95
20.39
21.34
21.85
21.92
21.60
20.98
20.18
19.32
18.35
17.12
15.47
13.31
10.78
8.17
5.80
3.82
2.23
0.87
-0.39
-1.58
-2.70
-3.75
-4.89
-6.32
-8.19
-10.47
-12.93
-15.28
-17.31
-19.05
-20.81
-22.94
-25.63
-28.77
-31.96
-34.66
-36.37
-36.74
-35.70
-33.30
-29.80
-25.48
-20.63
-15.46
-10.12
-4.73
0.62
5.79
10.60
14.88
18.54
21.61
24.17
26.33
28.02
29.10
29.40
28.89
27.71
26.18
24.60
23.21
22.02
20.92
19.74
18.39
16.93
15.46
14.13
12.95
11.81
10.58
9.15
7.44
5.48
3.35
1.12
-1.14
-3.49
-5.96
-8.58
-11.32
-14.04
-16.64
-19.07
-21.42
-23.88
-26.58
-29.53
-32.43
-34.84
-36.24
-36.32
-35.04
-32.55
-29.18
-25.16
-20.66
-15.74
-10.45
-4.85
0.89
6.52
11.82
16.60
20.74
24.18
26.91
28.86
30.05
30.48
30.23
29.42
28.24
26.89
25.51
24.22
23.06
21.98
20.91
19.71
18.28
16.56
14.60
12.54
10.53
8.68
7.00
5.40
3.77
2.04
0.23
-1.63
-3.47
-5.28
-7.10
-9.04
-11.19
-13.57
-16.20
-19.06
-22.12
-25.32
-28.54
-31.47
-33.76
-35.01
-34.97
-33.60
-31.04
-27.56
-23.40
-18.72
-13.59
-8.13
-2.56
2.86
7.84
12.22
15.97
19.15
21.83
23.99
25.57
26.51
26.82
26.60
26.05
25.27
24.36
23.35
22.28
21.29
20.46
19.81
19.20
18.35
17.01
15.07
12.73
10.33
8.27
6.67
5.43
4.19
2.62
0.50
-2.08
-4.89
-7.68
-10.29
-12.73
-15.12
-17.57
-20.13
-22.79
-25.51
-28.22
-30.90
-33.40
-35.54
-37.05
-37.66
-37.17
-35.55
-32.84
-29.22
-24.88
-20.01
-14.79
-9.45
-4.16
0.94
5.70
10.00
13.71
16.73
19.04
20.66
21.71
22.37
22.75
22.87
22.65
22.02
20.94
19.52
17.95
16.39
14.96
13.61
12.23
10.67
8.87
6.84
4.68
2.51
0.40
-1.62
-3.54
-5.34
-6.99
-8.49
-9.88
-11.23
-12.66
-14.29
-16.20
-18.41
-20.90
-23.60
-26.40
-29.17
-31.71
-33.73
-34.95
-35.08
-33.92
-31.42
-27.70
-23.01
-17.76
-12.33
-6.98
-1.85
3.04
7.69
12.08
16.12
19.63
22.48
24.56
25.91
26.66
27.00
27.12
27.06
26.82
26.34
25.62
24.71
23.74
22.82
21.95
21.01
19.80
18.18
16.12
13.69
11.07
8.43
5.87
3.42
1.05
-1.28
-3.62
-6.02
-8.47
-10.93
-13.23
-15.30
-17.10
-18.77
-20.60
-22.88
-25.75
-29.06
-32.46
-35.39
-37.37
-38.08
-37.37
-35.38
-32.32
-28.46
-24.01
-19.14
-13.94
-8.46
-2.77
2.97
8.57
13.73
18.22
21.86
24.58
26.42
27.49
27.93
27.90
27.57
27.12
26.65
26.26
25.92
25.58
25.15
24.55
23.76
22.72
21.46
19.96
18.21
16.24
14.09
11.83
9.56
7.30
5.05
2.76
0.38
-2.09
-4.61
-7.08
-9.43
-11.62
-13.69
-15.73
-17.88
-20.25
-22.93
-25.99
-29.33
-32.69
-35.64
-37.69
-38.38
-37.48
-35.00
-31.23
-26.50
-21.21
-15.65
-10.06
-4.59
0.62
5.51
10.06
14.29
18.17
21.57
24.31
26.17
27.05
27.01
26.29
25.29
24.34
23.71
23.43
23.40
23.46
23.50
23.46
23.34
23.06
22.48
21.49
20.00
18.06
15.85
13.60
11.43
9.35
7.21
4.89
2.28
-0.57
-3.52
-6.41
-9.07
-11.45
-13.57
-15.57
-17.69
-20.13
-23.02
-26.34
-29.84
-33.19
-36.01
-37.95
-38.77
-38.34
-36.60
-33.63
-29.59
-24.76
-19.48
-14.07
-8.74
-3.59
1.38
6.19
10.75
14.86
18.30
20.92
22.65
23.58
23.85
23.61
22.99
22.10
21.01
19.86
18.73
17.67
16.70
15.73
14.66
13.36
11.79
9.96
7.97
5.93
3.94
2.02
0.11
-1.85
-3.92
-6.11
-8.33
-10.52
-12.63
-14.71
-16.83
-19.02
-21.30
-23.68
-26.18
-28.88
-31.85
-35.07
-38.26
-40.92
-42.45
-42.38
-40.55
-37.14
-32.62
-27.42
-21.82
-15.92
-9.71
-3.28
3.14
9.17
14.51
18.94
22.48
25.28
27.45
29.04
30.06
30.46
30.31
29.76
29.00
28.24
27.58
26.99
26.36
25.56
24.52
23.22
21.70
19.97
18.09
16.06
13.85
11.44
8.81
5.94
2.91
-0.18
-3.18
-5.96
-8.47
-10.77
-12.95
-15.16
-17.52
-20.07
-22.83
-25.78
-28.88
-32.00
-34.90
-37.20
-38.52
-38.61
-37.31
-34.71
-30.99
-26.38
-21.11
-15.41
-9.45
-3.42
2.58
8.46
14.11
19.38
24.05
27.87
30.62
32.33
33.14
33.36
33.26
32.92
32.24
31.08
29.38
27.27
25.08
23.15
21.63
20.48
19.46
18.31
16.97
15.47
13.98
12.58
11.21
9.67
7.77
5.43
2.73
-0.15
-3.02
-5.74
-8.29
-10.76
-13.27
-15.93
-18.82
-21.96
-25.39
-29.10
-33.06
-37.10
-40.85
-43.82
-45.47
-45.36
-43.36
-39.67
-34.76
-29.17
-23.28
-17.25
-10.98
-4.36
2.59
9.62
16.32
22.25
27.07
30.72
33.32
35.10
36.23
36.78
36.77
36.21
35.19
33.84
32.35
30.84
29.38
27.97
26.56
25.07
23.44
21.63
19.68
17.67
15.70
13.82
12.01
10.17
8.22
6.08
3.80
1.51
-0.72
-2.86
-4.99
-7.23
-9.71
-12.47
-15.52
-18.81
-22.30
-25.96
-29.76
-33.57
-37.15
-40.13
-42.07
-42.61
-41.57
-39.04
-35.28
-30.63
-25.39
-19.75
-13.83
-7.68
-1.46
4.60
10.23
15.19
19.33
22.62
25.07
26.76
27.73
28.04
27.75
26.97
25.86
24.58
23.33
22.19
21.20
20.30
19.38
18.32
17.03
15.44
13.54
11.40
9.14
6.87
4.65
2.44
0.11
-2.47
-5.36
-8.49
-11.66
-14.61
-17.17
-19.31
-21.13
-22.84
-24.70
-26.94
-29.68
-32.89
-36.37
-39.75
-42.61
-44.52
-45.07
-44.04
-41.36
-37.12
-31.60
-25.23
-18.47
-11.69
-5.11
1.22
7.33
13.19
18.67
23.53
27.53
30.53
32.57
33.81
34.43
34.52
34.13
33.26
32.00
30.50
29.00
27.61
26.33
25.03
23.55
21.80
19.82
17.71
15.55
13.34
11.00
8.46
5.71
2.81
-0.15
-3.08
-5.99
-8.86
-11.68
-14.38
-16.89
-19.21
-21.46
-23.85
-26.61
-29.87
-33.53
-37.24
-40.47
-42.67
-43.37
-42.38
-39.75
-35.80
-30.98
-25.69
-20.20
-14.51
-8.60
-2.37
4.12
10.68
17.00
22.71
27.54
31.30
33.96
35.58
36.27
36.18
35.46
34.32
32.98
31.58
30.23
28.91
27.52
25.97
24.21
22.22
20.07
17.82
15.55
13.28
11.06
8.92
6.85
4.81
2.64
0.23
-2.49
-5.43
-8.39
-11.14
-13.51
-15.50
-17.28
-19.10
-21.16
-23.59
-26.40
-29.49
-32.68
-35.73
-38.34
-40.21
-41.10
-40.81
-39.26
-36.44
-32.41
-27.34
-21.43
-14.98
-8.30
-1.69
4.71
10.80
16.49
21.67
26.17
29.80
32.44
34.12
34.94
35.13
34.88
34.35
33.62
32.76
31.82
30.85
29.84
28.71
27.39
25.83
24.01
22.00
19.87
17.71
15.54
13.32
11.05
8.72
6.34
3.97
1.65
-0.65
-3.02
-5.49
-8.15
-11.00
-14.00
-17.11
-20.26
-23.38
-26.48
-29.59
-32.79
-36.08
-39.32
-42.24
-44.38
-45.30
-44.63
-42.24
-38.25
-32.98
-26.81
-20.05
-12.96
-5.73
1.43
8.24
14.47
19.92
24.48
28.11
30.81
32.62
33.59
33.85
33.56
32.89
31.95
30.76
29.29
27.56
25.69
23.88
22.30
20.97
19.70
18.22
16.28
13.86
11.07
8.16
5.30
2.53
-0.22
-3.03
-5.97
-8.99
-12.00
-14.89
-17.58
-20.02
-22.21
-24.22
-26.10
-27.99
-29.98
-32.13
-34.45
-36.89
-39.32
-41.51
-43.13
-43.83
-43.26
-41.23
-37.79
-33.19
-27.76
-21.87
-15.74
-9.48
-3.15
3.21
9.50
15.52
21.04
25.82
29.64
32.38
33.98
34.54
34.23
33.34
32.16
30.90
29.71
28.65
27.71
26.82
25.90
24.81
23.43
21.76
19.83
17.76
15.66
13.59
11.50
9.28
6.82
4.06
1.06
-2.06
-5.22
-8.31
-11.25
-14.01
-16.51
-18.76
-20.81
-22.85
-25.10
-27.79
-30.98
-34.49
-37.89
-40.63
-42.20
-42.26
-40.70
-37.69
-33.51
-28.50
-22.97
-17.11
-11.10
-5.09
0.77
6.35
11.60
16.47
20.95
24.91
28.21
30.59
31.90
32.16
31.63
30.73
29.89
29.34
29.04
28.76
28.24
27.26
25.79
23.90
21.74
19.47
17.23
15.14
13.28
11.64
10.23
8.94
7.61
6.11
4.36
2.35
0.15
-2.15
-4.45
-6.73
-8.99
-11.34
-13.90
-16.76
-19.98
-23.55
-27.38
-31.25
-34.89
-37.86
-39.73
-40.07
-38.68
-35.68
-31.44
-26.52
-21.37
-16.23
-11.09
-5.80
-0.24
5.55
11.30
16.69
21.45
25.41
28.58
30.96
32.59
33.43
33.49
32.83
31.59
29.96
28.14
26.27
24.50
22.92
21.56
20.41
19.31
18.09
16.54
14.58
12.25
9.72
7.19
4.82
2.59
0.43
-1.82
-4.21
-6.68
-9.05
-11.14
-12.87
-14.31
-15.67
-17.20
-19.09
-21.44
-24.25
-27.41
-30.74
-33.98
-36.81
-38.85
-39.79
-39.39
-37.56
-34.38
-30.08
-24.97
-19.33
-13.45
-7.53
-1.73
3.79
8.90
13.44
17.26
20.26
22.42
23.81
24.50
24.63
24.26
23.51
22.52
21.44
20.43
19.53
18.70
17.82
16.73
15.40
13.87
12.28
10.78
9.45
8.27
7.08
5.75
4.12
2.13
-0.21
-2.79
-5.48
-8.17
-10.78
-13.29
-15.75
-18.23
-20.84
-23.70
-26.83
-30.15
-33.39
-36.14
-37.97
-38.55
-37.73
-35.58
-32.34
-28.25
-23.52
-18.31
-12.73
-6.90
-0.98
4.88
10.53
15.83
20.60
24.68
27.88
30.10
31.32
31.63
31.20
30.18
28.76
27.09
25.36
23.78
22.47
21.45
20.58
19.64
18.42
16.85
14.99
12.98
10.93
8.91
6.89
4.84
2.75
0.65
-1.44
-3.50
-5.57
-7.69
-9.85
-12.00
-14.06
-15.98
-17.82
-19.75
-22.01
-24.74
-27.91
-31.24
-34.24
-36.42
-37.33
-36.80
-34.87
-31.80
-27.92
-23.53
-18.80
-13.76
-8.44
-2.89
2.70
8.03
12.90
17.10
20.62
23.48
25.71
27.32
28.29
28.65
28.55
28.19
27.79
27.49
27.28
27.02
26.57
25.81
24.74
23.45
22.05
20.64
19.25
17.81
16.20
14.30
12.05
9.49
6.73
3.94
1.19
-1.45
-3.99
-6.40
-8.62
-10.56
-12.19
-13.63
-15.15
-17.04
-19.54
-22.70
-26.32
-30.04
-33.40
-35.91
-37.22
-37.09
-35.42
-32.34
-28.11
-23.07
-17.53
-11.73
-5.78
0.22
6.12
11.64
16.49
20.38
23.21
25.07
26.10
26.54
26.47
25.92
24.90
23.46
21.81
20.16
18.74
17.61
16.70
15.81
14.75
13.46
12.01
10.58
9.32
8.27
7.33
6.32
5.10
3.61
1.82
-0.25
-2.64
-5.30
-8.16
-11.05
-13.78
-16.23
-18.35
-20.22
-22.05
-24.02
-26.30
-28.92
-31.79
-34.68
-37.24
-39.08
-39.78
-39.07
-36.85
-33.20
-28.43
-22.94
-17.13
-11.34
-5.79
-0.60
4.13
8.32
11.89
14.71
16.77
18.17
19.09
19.76
20.31
20.75
20.96
20.81
20.24
19.32
18.19
17.02
15.89
14.76
13.52
12.09
10.49
8.85
7.34
6.02
4.84
3.67
2.28
0.58
-1.43
-3.62
-5.82
-7.82
-9.59
-11.18
-12.77
-14.61
-16.88
-19.63
-22.78
-26.04
-29.02
-31.29
-32.49
-32.39
-30.96
-28.34
-24.74
-20.44
-15.64
-10.52
-5.22
0.09
5.23
10.00
14.20
17.72
20.51
22.59
24.04
24.94
25.43
25.63
25.54
25.16
24.42
23.31
21.92
20.46
19.12
18.00
17.09
16.22
15.20
13.93
12.36
10.57
8.66
6.70
4.69
2.60
0.38
-1.93
-4.25
-6.46
-8.48
-10.27
-11.91
-13.52
-15.22
-17.12
-19.27
-21.70
-24.37
-27.18
-29.92
-32.25
-33.78
-34.18
-33.27
-31.12
-27.92
-23.94
-19.37
-14.33
-8.88
-3.12
2.75
8.46
13.69
18.21
21.91
24.78
26.88
28.25
28.90
28.87
28.22
27.06
25.56
23.90
22.25
20.78
19.63
18.88
18.50
18.35
18.16
17.69
16.78
15.37
13.64
11.80
10.10
8.70
7.61
6.67
5.68
4.41
2.72
0.61
-1.81
-4.32
-6.77
-9.07
-11.27
-13.51
-15.97
-18.79
-22.00
-25.45
-28.84
-31.72
-33.63
-34.22
-33.35
-31.13
-27.86
-23.87
-19.43
-14.68
-9.69
-4.56
0.49
5.23
9.42
12.99
15.97
18.46
20.52
22.13
23.20
23.66
23.52
22.87
21.84
20.56
19.09
17.50
15.85
14.22
12.66
11.14
9.62
8.05
6.39
4.66
2.89
1.05
-0.89
-2.94
-5.11
-7.31
-9.45
-11.45
-13.30
-15.02
-16.69
-18.36
-20.04
-21.71
-23.42
-25.27
-27.36
-29.76
-32.31
-34.72
-36.52
-37.25
-36.62
-34.56
-31.29
-27.12
-22.37
-17.23
-11.78
-6.12
-0.39
5.10
9.99
14.01
17.03
19.13
20.52
21.40
21.97
22.30
22.39
22.25
21.87
21.27
20.48
19.53
18.41
17.09
15.54
13.73
11.80
9.93
8.40
7.33
6.67
6.15
5.36
4.01
1.98
-0.54
-3.26
-5.93
-8.43
-10.77
-12.98
-15.05
-16.91
-18.56
-20.14
-21.89
-24.10
-26.85
-29.90
-32.75
-34.75
-35.41
-34.51
-32.20
-28.87
-24.97
-20.81
-16.51
-12.00
-7.19
-2.08
3.18
8.35
13.15
17.37
20.90
23.70
25.75
27.04
27.66
27.70
27.33
26.71
25.96
25.17
24.35
23.45
22.42
21.20
19.75
18.05
16.13
14.06
12.00
10.11
8.50
7.18
6.03
4.87
3.45
1.62
-0.67
-3.32
-6.10
-8.79
-11.17
-13.14
-14.76
-16.25
-17.87
-19.87
-22.35
-25.25
-28.32
-31.20
-33.57
-35.13
-35.71
-35.19
-33.56
-30.84
-27.15
-22.69
-17.71
-12.40
-6.93
-1.37
4.22
9.74
14.98
19.72
23.72
26.83
29.04
30.43
31.11
31.23
30.86
30.11
29.09
27.89
26.62
25.33
24.10
22.96
21.94
21.04
20.24
19.43
18.47
17.21
15.54
13.44
10.99
8.37
5.80
3.41
1.32
-0.56
-2.33
-4.19
-6.32
-8.83
-11.67
-14.71
-17.74
-20.58
-23.13
-25.43
-27.61
-29.80
-32.00
-34.05
-35.66
-36.45
-36.14
-34.56
-31.66
-27.56
-22.49
-16.76
-10.71
-4.68
1.03
6.30
11.02
15.17
18.71
21.60
23.80
25.31
26.19
26.57
26.57
26.26
25.66
24.73
23.53
22.13
20.67
19.25
17.92
16.60
15.10
13.28
11.06
8.57
6.03
3.72
1.81
0.25
-1.17
-2.77
-4.77
-7.20
-9.93
-12.74
-15.47
-18.03
-20.47
-22.86
-25.29
-27.84
-30.64
-33.78
-37.31
-41.08
-44.73
-47.71
-49.45
-49.57
-47.90
-44.54
-39.78
-34.03
-27.67
-21.00
-14.33
-7.80
-1.48
4.64
10.55
16.19
21.36
25.78
29.23
31.63
33.10
33.86
34.13
34.01
33.53
32.70
31.63
30.52
29.55
28.80
28.15
27.30
25.99
24.10
21.72
19.15
16.65
14.37
12.29
10.17
7.80
5.02
1.86
-1.50
-4.81
-7.84
-10.53
-12.95
-15.26
-17.62
-20.16
-22.96
-26.05
-29.47
-33.10
-36.70
-39.84
-41.96
-42.62
-41.55
-38.79
-34.58
-29.26
-23.16
-16.49
-9.48
-2.34
4.65
11.19
17.01
21.97
25.99
29.10
31.38
32.91
33.77
34.03
33.79
33.10
32.09
30.91
29.75
28.73
27.91
27.22
26.51
25.62
24.45
22.98
21.29
19.46
17.57
15.66
13.74
11.80
9.76
7.49
4.82
1.69
-1.88
-5.63
-9.27
-12.51
-15.31
-17.78
-20.15
-22.59
-25.15
-27.75
-30.31
-32.75
-35.05
-37.13
-38.79
-39.66
-39.32
-37.48
-34.12
-29.51
-24.13
-18.40
-12.56
-6.61
-0.46
5.90
12.28
18.25
23.40
27.45
30.37
32.38
33.80
34.88
35.70
36.25
36.42
36.20
35.60
34.65
33.41
31.91
30.16
28.17
25.98
23.66
21.29
18.96
16.77
14.71
12.77
10.85
8.91
6.93
4.92
2.92
0.90
-1.14
-3.24
-5.46
-7.76
-10.12
-12.50
-14.96
-17.60
-20.53
-23.80
-27.37
-31.11
-34.83
-38.26
-41.10
-43.04
-43.81
-43.23
-41.26
-37.99
-33.64
-28.44
-22.67
-16.53
-10.25
-4.01
1.99
7.58
12.60
16.90
20.37
22.90
24.51
25.32
25.55
25.42
25.11
24.67
24.11
23.39
22.52
21.57
20.61
19.65
18.66
17.51
16.12
14.47
12.59
10.58
8.54
6.48
4.45
2.43
0.42
-1.62
-3.72
-5.91
-8.29
-10.88
-13.66
-16.49
-19.25
-21.83
-24.25
-26.71
-29.43
-32.52
-35.80
-38.82
-40.96
-41.69
-40.78
-38.34
-34.74
-30.39
-25.53
-20.24
-14.50
-8.37
-2.01
4.33
10.40
16.05
21.14
25.60
29.33
32.25
34.31
35.50
35.89
35.54
34.57
33.17
31.60
30.15
28.99
28.09
27.20
25.98
24.21
21.87
19.22
16.56
14.10
11.89
9.80
7.72
5.59
3.42
1.24
-0.96
-3.22
-5.60
-8.05
-10.49
-12.84
-15.04
-17.17
-19.27
-21.43
-23.71
-26.17
-28.84
-31.67
-34.44
-36.76
-38.19
-38.35
-37.10
-34.56
-31.04
-26.89
-22.32
-17.42
-12.16
-6.55
-0.68
5.24
10.93
16.16
20.71
24.46
27.35
29.37
30.56
30.97
30.76
30.09
29.20
28.25
27.40
26.67
26.07
25.49
24.84
24.01
22.93
21.57
19.89
17.91
15.63
13.13
10.49
7.88
5.41
3.15
1.06
-0.94
-2.99
-5.15
-7.38
-9.60
-11.72
-13.75
-15.79
-18.01
-20.57
-23.54
-26.87
-30.35
-33.72
-36.64
-38.75
-39.76
-39.44
-37.74
-34.73
-30.64
-25.74
-20.35
-14.78
-9.26
-3.97
1.01
5.74
10.32
14.86
19.30
23.46
26.97
29.51
30.90
31.22
30.78
30.01
29.24
28.61
28.07
27.51
26.76
25.75
24.47
22.94
21.21
19.38
17.48
15.62
13.82
12.11
10.54
9.11
7.79
6.49
5.07
3.37
1.30
-1.09
-3.65
-6.12
-8.35
-10.32
-12.21
-14.23
-16.60
-19.41
-22.57
-25.91
-29.20
-32.27
-34.96
-37.14
-38.64
-39.24
-38.73
-36.94
-33.89
-29.75
-24.77
-19.27
-13.48
-7.60
-1.77
3.86
9.15
13.92
18.01
21.29
23.71
25.32
26.23
26.59
26.57
26.29
25.78
25.02
23.91
22.40
20.50
18.27
15.88
13.48
11.22
9.18
7.34
5.66
4.07
2.60
1.28
0.10
-1.03
-2.28
-3.83
-5.79
-8.12
-10.69
-13.27
-15.69
-17.84
-19.68
-21.28
-22.79
-24.41
-26.31
-28.63
-31.33
-34.23
-36.97
-39.14
-40.34
-40.26
-38.77
-35.90
-31.84
-26.87
-21.36
-15.60
-9.79
-4.08
1.51
6.94
12.18
17.15
21.68
25.52
28.47
30.37
31.19
31.05
30.18
28.84
27.26
25.63
24.07
22.71
21.64
20.90
20.38
19.88
19.14
17.92
16.18
14.03
11.74
9.53
7.53
5.66
3.72
1.47
-1.18
-4.15
-7.19
-10.01
-12.43
-14.42
-16.08
-17.60
-19.18
-20.98
-23.08
-25.55
-28.36
-31.38
-34.30
-36.72
-38.17
-38.26
-36.78
-33.77
-29.51
-24.39
-18.79
-13.01
-7.23
-1.61
3.76
8.74
13.26
17.26
20.76
23.78
26.29
28.28
29.67
30.52
30.85
30.73
30.18
29.19
27.73
25.92
23.95
22.11
20.60
19.47
18.56
17.63
16.52
15.18
13.73
12.28
10.90
9.54
8.04
6.25
4.10
1.66
-0.95
-3.58
-6.15
-8.68
-11.23
-13.86
-16.58
-19.30
-21.95
-24.49
-26.96
-29.47
-32.13
-34.92
-37.59
-39.71
-40.77
-40.31
-38.16
-34.40
-29.45
-23.82
-17.99
-12.26
-6.69
-1.22
4.21
9.55
14.60
19.08
22.77
25.56
27.48
28.71
29.42
29.71
29.71
29.47
29.09
28.69
28.31
27.91
27.29
26.22
24.54
22.27
19.60
16.88
14.42
12.43
10.91
9.67
8.46
7.08
5.42
3.55
1.55
-0.48
-2.54
-4.71
-7.02
-9.49
-12.03
-14.51
-16.88
-19.12
-21.33
-23.64
-26.12
-28.79
-31.54
-34.18
-36.42
-37.94
-38.45
-37.68
-35.52
-32.03
-27.41
-21.94
-15.89
-9.50
-2.95
3.54
9.72
15.32
20.03
23.63
26.04
27.36
27.83
27.73
27.27
26.59
25.70
24.56
23.14
21.51
19.77
18.10
16.61
15.32
14.16
12.98
11.65
10.14
8.56
7.07
5.83
4.86
4.05
3.13
1.87
0.11
-2.11
-4.72
-7.53
-10.44
-13.36
-16.26
-19.12
-21.98
-24.89
-27.87
-30.96
-34.11
-37.11
-39.69
-41.51
-42.31
-41.98
-40.50
-37.91
-34.28
-29.74
-24.39
-18.43
-12.10
-5.64
0.67
6.68
12.25
17.26
21.61
25.21
27.96
29.87
31.03
31.59
31.70
31.50
31.04
30.32
29.37
28.21
26.95
25.67
24.41
23.11
21.65
19.95
18.02
16.02
14.09
12.27
10.54
8.67
6.51
3.96
1.04
-2.06
-5.21
-8.26
-11.14
-13.80
-16.23
-18.50
-20.70
-23.03
-25.64
-28.59
-31.82
-35.13
-38.23
-40.77
-42.43
-42.89
-41.91
-39.41
-35.46
-30.39
-24.62
-18.58
-12.61
-6.85
-1.26
4.21
9.63
14.93
19.95
24.44
28.19
31.03
32.89
33.86
34.11
33.87
33.35
32.71
32.00
31.21
30.32
29.31
28.14
26.75
25.10
23.16
20.93
18.50
16.02
13.59
11.29
9.09
6.96
4.83
2.68
0.50
-1.73
-4.03
-6.42
-8.86
-11.23
-13.43
-15.41
-17.28
-19.26
-21.63
-24.58
-28.10
-31.98
-35.76
-38.91
-40.96
-41.58
-40.66
-38.21
-34.46
-29.68
-24.19
-18.30
-12.26
-6.26
-0.45
5.06
10.16
14.81
19.01
22.78
26.18
29.16
31.61
33.38
34.36
34.54
34.07
33.25
32.28
31.31
30.29
29.07
27.53
25.64
23.51
21.36
19.35
17.60
16.07
14.70
13.40
12.12
10.83
9.46
7.91
6.05
3.81
1.20
-1.68
-4.67
-7.64
-10.53
-13.35
-16.14
-18.92
-21.68
-24.47
-27.40
-30.60
-34.12
-37.81
-41.29
-44.04
-45.51
-45.37
-43.58
-40.29
-35.80
-30.39
-24.29
