1531513627.00
64.000000
-0.00
-0.00
-0.00
-0.00
-0.00
-0.00
-0.00
-0.00
-0.00
-0.00
0.00
0.01
0.01
-0.00
-0.03
-0.05
-0.05
0.00
0.13
0.36
0.66
1.01
1.37
1.72
2.06
2.40
2.79
3.24
3.80
4.43
5.08
5.70
6.27
6.81
7.37
8.02
8.83
9.89
11.13
12.45
13.72
14.87
15.93
17.04
18.40
20.16
22.57
25.44
28.54
31.57
34.37
37.00
39.76
43.09
47.32
52.86
59.38
66.38
73.29
79.74
85.78
91.89
98.76
106.96
117.09
128.72
141.09
153.34
164.84
175.55
186.01
197.51
208.80
222.30
238.77
258.42
280.07
300.69
315.75
320.38
311.12
287.14
251.05
206.98
159.44
111.71
65.15
19.73
-25.06
-69.18
-111.90
-151.75
-187.90
-220.22
-249.10
-275.03
-298.25
-318.90
-337.17
-353.83
-369.76
-385.83
-401.70
-415.51
-424.26
-424.64
-414.79
-394.99
-367.47
-335.27
-301.30
-267.53
-235.08
-204.78
-177.53
-154.11
-134.65
-118.16
-102.83
-86.94
-69.82
-52.20
-35.79
-22.19
-12.01
-4.49
2.01
8.94
16.72
24.50
30.79
34.36
35.16
34.36
33.79
34.87
37.87
41.73
44.78
45.68
44.24
41.53
39.18
38.44
39.44
41.18
42.15
41.34
38.84
35.72
33.46
33.00
34.20
35.87
36.48
34.96
31.40
27.03
23.64
22.56
23.94
26.57
28.48
28.05
24.91
20.27
16.27
14.74
16.16
19.25
21.70
21.51
18.18
13.08
8.68
7.09
8.90
12.81
16.46
17.83
16.35
13.19
10.39
9.62
11.20
13.94
15.91
15.65
13.00
9.23
6.25
5.54
7.26
10.23
12.56
12.76
10.56
7.01
3.88
2.61
3.49
5.55
7.17
7.06
4.98
1.85
-0.78
-1.70
-0.66
1.44
3.16
3.31
1.61
-1.17
-3.66
-4.75
-4.16
-2.64
-1.52
-1.88
-3.97
-6.98
-9.52
-10.43
-9.47
-7.46
-5.81
-5.70
-7.34
-9.86
-11.83
-12.04
-10.28
-7.38
-4.77
-3.63
-4.24
-5.84
-7.12
-7.04
-5.47
-3.24
-1.66
-1.75
-3.62
-6.35
-8.54
-9.10
-7.87
-5.69
-3.88
-3.47
-4.54
-6.22
-7.17
-6.40
-3.84
-0.35
2.68
4.22
4.10
3.12
2.55
3.41
5.81
8.95
11.55
12.60
12.01
10.60
9.69
10.33
12.70
15.96
18.77
20.06
19.62
18.22
17.20
17.64
19.77
22.80
25.41
26.51
25.84
24.13
22.69
22.57
24.01
26.29
28.12
28.45
27.04
24.62
22.45
21.60
22.31
23.86
25.01
24.69
22.68
19.66
16.91
15.53
15.78
16.97
17.82
17.24
14.93
11.59
8.54
6.94
7.15
8.51
9.72
9.59
7.74
4.83
2.17
0.96
1.58
3.40
5.09
5.44
4.04
1.52
-0.84
-1.81
-0.98
1.10
3.18
4.04
3.23
1.23
-0.81
-1.76
-1.15
0.58
2.32
2.99
2.13
0.17
-1.81
-2.75
-2.16
-0.47
1.26
1.96
1.15
-0.76
-2.66
-3.43
-2.52
-0.32
2.04
3.33
2.91
1.09
-1.08
-2.34
-2.02
-0.38
1.51
2.42
1.66
-0.44
-2.72
-3.82
-3.00
-0.58
2.16
3.70
3.16
0.84
-1.93
-3.48
-2.85
-0.31
2.65
4.25
3.39
0.45
-2.94
-4.78
-3.91
-0.71
2.98
4.98
4.03
0.57
-3.45
-5.73
-4.92
-1.47
2.64
5.05
4.40
1.12
-2.83
-5.15
-4.46
-1.18
2.81
5.28
4.89
1.95
-1.77
-4.16
-3.91
-1.25
2.24
4.60
4.58
2.33
-0.78
-3.00
-3.25
-1.63
0.67
2.14
1.82
-0.11
-2.56
-4.09
-3.82
-1.87
0.66
2.35
2.24
0.45
-1.92
-3.35
-2.83
-0.44
2.57
4.45
4.01
1.28
-2.35
-4.92
-4.97
-2.45
1.23
3.98
4.26
1.99
-1.41
-3.84
-3.76
-1.16
2.44
4.89
4.65
1.81
-2.02
-4.63
-4.50
-1.75
1.98
4.45
4.18
1.29
-2.52
-5.02
-4.70
-1.70
2.24
4.86
4.62
1.64
-2.33
-4.95
-4.61
-1.39
2.93
5.90
5.81
2.68
-1.71
-4.85
-4.93
-1.93
2.43
5.62
5.81
2.90
-1.42
-4.73
-5.27
-2.95
0.66
3.35
3.57
1.33
-1.93
-4.25
-4.34
-2.30
0.54
2.47
2.44
0.62
-1.76
-3.16
-2.65
-0.45
2.22
3.78
3.23
0.75
-2.33
-4.25
-3.75
-0.91
2.87
5.53
5.54
2.77
-1.36
-4.72
-5.64
-3.84
-0.58
2.19
2.97
1.58
-0.85
-2.67
-2.72
-1.04
1.20
2.45
1.77
-0.57
-3.19
-4.38
-3.07
0.45
4.59
7.28
7.02
3.80
-0.83
-4.55
-5.49
-3.30
0.67
4.17
5.29
3.59
0.24
-2.69
-3.53
-1.97
0.84
3.03
3.21
1.26
-1.60
-3.69
-3.85
-2.12
0.29
1.84
1.56
-0.36
-2.73
-4.06
-3.45
-1.08
1.84
3.77
3.73
1.78
-1.00
-3.09
-3.38
-1.79
0.73
2.71
3.04
1.59
-0.72
-2.44
-2.42
-0.57
2.07
3.91
3.72
1.45
-1.76
-4.15
-4.36
-2.24
1.06
3.74
4.35
2.66
-0.28
-2.75
-3.39
-1.94
0.61
2.67
3.03
1.53
-0.87
-2.70
-2.83
-1.16
1.32
3.15
3.21
1.38
-1.37
-3.56
-4.04
-2.60
-0.08
2.09
2.77
1.65
-0.53
-2.49
-3.13
-2.17
-0.25
1.41
1.83
0.79
-1.01
-2.38
-2.37
-0.84
1.41
3.08
3.14
1.45
-1.14
-3.21
-3.59
-2.06
0.52
2.72
3.29
1.94
-0.49
-2.52
-2.92
-1.38
1.22
3.33
3.64
1.82
-1.18
-3.67
-4.19
-2.36
0.84
3.61
4.33
2.56
-0.73
-3.63
-4.43
-2.59
0.90
4.15
5.39
4.04
0.97
-1.97
-3.10
-1.88
0.83
3.25
3.80
1.99
-1.25
-4.09
-4.89
-3.15
0.19
3.24
4.26
2.61
-0.80
-4.09
-5.38
-3.97
-0.63
2.76
4.31
3.25
0.31
-2.66
-3.86
-2.54
0.53
3.49
4.59
3.12
-0.06
-3.10
-4.19
-2.70
0.52
3.60
4.77
3.35
0.19
-2.85
-3.99
-2.57
0.57
3.60
4.76
3.37
0.26
-2.75
-3.91
-2.56
0.48
3.42
4.52
3.12
0.03
-2.95
-4.12
-2.85
0.01
2.70
3.57
2.05
-1.01
-3.85
-4.87
-3.53
-0.67
2.02
3.02
1.82
-0.82
-3.34
-4.32
-3.28
-0.90
1.44
2.43
1.60
-0.46
-2.45
-3.13
-2.02
0.31
2.61
3.62
2.76
0.52
-1.87
-3.11
-2.52
-0.46
1.92
3.34
3.10
1.51
-0.40
-1.46
-1.06
0.45
2.02
2.47
1.28
-1.13
-3.54
-4.64
-3.76
-1.30
1.45
3.01
2.55
0.40
-2.14
-3.50
-2.78
-0.29
2.57
4.13
3.37
0.66
-2.48
-4.20
-3.38
-0.33
3.31
5.53
5.06
2.18
-1.46
-3.73
-3.29
-0.41
3.15
5.16
4.24
0.76
-3.37
-5.72
-4.80
-1.04
3.51
6.21
5.47
1.61
-3.24
-6.39
-6.11
-2.64
2.02
5.26
5.33
2.35
-1.86
-4.90
-5.15
-2.68
0.90
3.52
3.79
1.83
-0.97
-2.86
-2.75
-0.86
1.53
2.90
2.40
0.33
-2.09
-3.43
-2.90
-0.80
1.63
2.92
2.23
-0.16
-2.88
-4.27
-3.25
-0.08
3.77
6.27
6.03
3.10
-1.02
-4.14
-4.65
-2.40
1.21
4.03
4.48
2.37
-0.97
-3.59
-4.08
-2.34
0.38
2.32
2.34
0.51
-1.94
-3.42
-2.97
-0.79
1.83
3.32
2.73
0.28
-2.69
-4.47
-3.88
-1.02
2.73
5.38
5.43
2.74
-1.30
-4.48
-5.00
-2.53
1.59
5.04
5.88
3.65
-0.36
-3.91
-5.13
-3.57
-0.40
2.38
3.15
1.64
-1.04
-3.19
-3.52
-1.96
0.43
2.10
2.02
0.24
-2.15
-3.69
-3.34
-1.17
1.75
3.84
3.91
1.80
-1.43
-4.08
-4.66
-2.78
0.62
3.72
4.83
3.38
0.27
-2.64
-3.60
-2.01
1.14
3.90
4.48
2.38
-1.24
-4.26
-4.81
-2.44
1.57
4.92
5.65
3.29
-0.82
-4.31
-5.15
-2.82
1.36
4.96
5.92
3.67
-0.49
-4.18
-5.30
-3.20
0.89
4.62
5.88
3.96
-0.01
-3.79
-5.31
-3.80
-0.24
3.27
4.74
3.41
0.16
-3.06
-4.37
-3.04
0.13
3.27
4.59
3.39
0.41
-2.60
-3.98
-3.06
-0.51
2.08
3.17
2.16
-0.34
-2.91
-4.17
-3.55
-1.57
0.54
1.54
0.91
-0.86
-2.61
-3.16
-2.06
0.19
2.30
2.99
1.70
-0.99
-3.66
-4.78
-3.61
-0.70
2.40
3.96
3.15
0.51
-2.27
-3.35
-1.85
1.51
4.84
6.13
4.48
0.69
-3.11
-4.70
-3.08
0.96
5.18
7.23
5.97
2.10
-2.19
-4.55
-3.75
-0.44
3.33
5.30
4.30
0.92
-2.93
-5.14
-4.67
-2.02
1.07
2.77
2.20
-0.10
-2.60
-3.73
-2.83
-0.45
1.98
3.04
2.13
-0.19
-2.61
-3.81
-3.22
-1.30
0.70
1.51
0.59
-1.55
-3.59
-4.18
-2.75
0.10
2.86
3.96
2.68
-0.39
-3.54
-4.92
-3.58
-0.06
3.85
6.09
5.49
2.48
-1.12
-3.18
-2.52
0.42
3.83
5.63
4.74
1.67
-1.80
-3.70
-3.11
-0.59
2.19
3.50
2.57
0.05
-2.49
-3.52
-2.42
0.10
2.55
3.46
2.28
-0.34
-2.94
-4.08
-3.16
-0.71
1.94
3.41
3.06
1.25
-0.84
-1.97
-1.56
0.03
1.70
2.32
1.36
-0.78
-2.97
-3.98
-3.26
-1.18
1.09
2.28
1.76
-0.15
-2.32
-3.47
-2.96
-1.11
0.97
2.08
1.60
-0.09
-1.89
-2.59
-1.67
0.47
2.67
3.71
2.99
0.90
-1.42
-2.68
-2.23
-0.34
1.89
3.17
2.77
0.90
-1.42
-2.91
-2.83
-1.31
0.69
1.94
1.67
0.02
-2.05
-3.30
-2.93
-1.06
1.34
2.96
2.94
1.31
-0.96
-2.53
-2.48
-0.79
1.58
3.29
3.39
1.89
-0.25
-1.62
-1.31
0.60
3.02
4.43
3.82
1.27
-2.02
-4.35
-4.50
-2.43
0.69
3.09
3.39
1.41
-1.70
-4.13
-4.41
-2.32
0.98
3.58
3.92
1.78
-1.63
-4.24
-4.43
-1.95
1.83
4.70
4.92
2.23
-1.93
-5.22
-5.74
-3.21
0.93
4.28
4.92
2.53
-1.42
-4.53
-4.88
-2.17
2.06
5.37
5.78
3.00
-1.40
-4.87
-5.38
-2.59
1.96
5.69
6.52
4.02
-0.32
-4.03
-5.07
-3.02
0.77
4.02
4.88
3.02
-0.33
-3.16
-3.89
-2.33
0.36
2.42
2.54
0.69
-1.99
-3.83
-3.65
-1.44
1.62
3.82
3.84
1.53
-1.95
-4.75
-5.30
-3.23
0.41
3.69
4.90
3.46
0.24
-2.93
-4.39
-3.53
-1.12
1.25
2.18
1.27
-0.65
-2.09
-1.82
0.33
3.34
5.53
5.54
3.11
-0.68
-4.01
-5.27
-3.99
-1.06
1.77
2.96
1.99
-0.32
-2.36
-2.75
-1.14
1.54
3.63
3.73
1.50
-2.04
-5.07
-5.99
-4.30
-0.90
2.41
3.93
3.04
0.47
-2.12
-3.13
-2.00
0.53
2.81
3.33
1.63
-1.36
-3.87
-4.30
-2.16
1.57
5.00
6.35
4.95
1.62
-1.84
-3.69
-3.21
-1.05
1.26
2.26
1.44
-0.53
-2.23
-2.43
-0.80
1.83
3.93
4.16
2.15
-1.17
-4.02
-4.75
-2.79
0.94
4.43
5.74
4.03
0.16
-3.79
-5.74
-4.74
-1.53
2.00
3.95
3.49
1.32
-0.94
-1.77
-0.68
1.53
3.32
3.34
1.32
-1.82
-4.40
-4.95
-3.05
0.42
3.69
5.00
3.59
0.16
-3.43
-5.22
-4.23
-1.04
2.53
4.48
3.77
0.98
-2.15
-3.75
-2.98
-0.44
2.16
3.15
1.89
-0.84
-3.37
-4.12
-2.59
0.38
3.06
3.87
2.26
-0.93
-3.94
-5.07
-3.67
-0.49
2.69
4.11
3.02
0.08
-2.99
-4.44
-3.49
-0.73
2.27
3.87
3.31
1.13
-1.25
-2.40
-1.67
0.41
2.50
3.29
2.24
-0.12
-2.49
-3.59
-2.86
-0.79
1.38
2.37
1.58
-0.53
-2.71
-3.62
-2.58
0.01
2.82
4.30
3.60
1.06
-1.91
-3.58
-2.92
-0.20
3.09
5.04
4.48
1.67
-1.78
-3.86
-3.31
-0.42
3.10
5.12
4.39
1.28
-2.42
-4.52
-3.77
-0.60
3.13
5.19
4.29
0.87
-3.20
-5.69
-5.25
-2.24
1.59
4.02
3.70
0.92
-2.64
-4.82
-4.32
-1.39
2.27
4.53
4.07
1.17
-2.40
-4.47
-3.70
-0.42
3.53
5.87
5.17
1.75
-2.49
-5.15
-4.70
-1.41
2.85
5.59
5.22
1.91
-2.48
-5.46
-5.38
-2.37
1.81
4.77
4.90
2.31
-1.33
-3.83
-3.78
-1.33
1.91
3.95
3.57
0.98
-2.32
-4.54
-4.59
-2.71
-0.21
1.38
1.18
-0.50
-2.47
-3.33
-2.38
0.01
2.58
3.88
3.14
0.73
-2.02
-3.51
-2.76
-0.06
3.19
5.19
4.74
2.00
-1.57
-4.02
-4.03
-1.64
1.72
4.08
4.11
1.87
-1.28
-3.55
-3.76
-2.00
0.43
1.92
1.53
-0.50
-2.84
-3.93
-2.86
0.06
3.38
5.32
4.74
1.82
-1.99
-4.68
-4.87
-2.52
1.01
3.75
4.24
2.39
-0.56
-2.71
-2.73
-0.62
2.31
4.19
3.73
1.05
-2.41
-4.65
-4.30
-1.46
2.36
5.04
5.08
2.47
-1.36
-4.35
-5.03
-3.36
-0.61
1.40
1.49
-0.22
-2.44
-3.54
-2.56
0.16
3.18
4.75
3.83
0.80
-2.76
-4.82
-4.10
-0.81
3.37
6.24
6.25
3.48
-0.46
-3.30
-3.50
-1.08
2.35
4.61
4.29
1.52
-2.07
-4.41
-4.17
-1.57
1.81
3.98
3.67
1.08
-2.34
-4.70
-4.81
-2.77
0.11
2.13
2.19
0.36
-2.17
-3.84
-3.63
-1.62
1.06
2.95
3.05
1.40
-0.97
-2.71
-2.86
-1.41
0.73
2.30
2.41
1.05
-0.94
-2.35
-2.31
-0.80
1.31
2.78
2.72
1.13
-1.06
-2.50
-2.20
-0.14
2.60
4.47
4.28
2.01
-1.16
-3.46
-3.56
-1.35
1.86
4.14
4.01
1.42
-2.19
-4.73
-4.63
-1.87
2.01
4.74
4.71
1.89
-2.11
-4.96
-5.00
-2.21
1.84
4.86
5.20
2.77
-0.96
-3.87
-4.42
-2.51
0.53
2.84
3.08
1.23
-1.54
-3.56
-3.70
-2.00
0.45
2.12
2.03
0.23
-2.15
-3.60
-3.07
-0.65
2.48
4.60
4.43
1.87
-1.81
-4.65
-5.06
-2.75
1.03
4.17
4.93
2.92
-0.61
-3.49
-3.99
-1.78
1.85
4.75
5.28
3.22
-0.15
-2.84
-3.41
-1.74
0.96
2.92
2.95
1.06
-1.57
-3.37
-3.30
-1.43
1.11
2.84
2.75
0.87
-1.78
-3.75
-3.94
-2.27
0.33
2.38
2.72
1.14
-1.47
-3.54
-3.76
-1.82
1.32
3.95
4.56
2.74
-0.50
-3.30
-4.00
-2.10
1.31
4.24
4.90
2.83
-0.84
-3.98
-4.74
-2.65
1.08
4.24
4.93
2.70
-1.18
-4.46
-5.22
-2.99
0.96
4.38
5.31
3.27
-0.53
-3.85
-4.74
-2.70
1.10
4.42
5.31
3.22
-0.69
-4.21
-5.39
-3.63
-0.06
3.18
4.16
2.32
-1.21
-4.32
-5.13
-3.12
0.54
3.69
4.44
2.34
-1.40
-4.50
-5.03
-2.50
1.77
5.42
6.38
4.11
-0.07
-3.74
-4.73
-2.47
1.72
5.35
6.22
3.70
-0.85
-4.90
-6.17
-4.02
0.24
4.13
5.45
3.56
-0.25
-3.65
-4.62
-2.66
0.95
3.99
4.65
2.58
-0.90
-3.70
-4.13
-1.96
1.53
4.32
4.79
2.70
-0.75
-3.68
-4.54
-2.99
-0.08
2.49
3.27
1.93
-0.63
-2.87
-3.53
-2.31
-0.04
1.84
2.19
0.83
-1.39
-3.08
-3.15
-1.45
1.10
3.09
3.38
1.81
-0.72
-2.79
-3.22
-1.80
0.65
2.72
3.28
2.12
0.00
-1.79
-2.21
-1.08
0.83
2.31
2.42
1.04
-1.10
-2.81
-3.18
-2.04
-0.06
1.68
2.23
1.39
-0.28
-1.70
-1.95
-0.76
1.25
2.91
3.13
1.58
-1.03
-3.31
-3.91
-2.40
0.48
3.10
3.88
2.27
-0.91
-3.83
-4.73
-2.95
0.63
4.03
5.36
3.91
0.58
-2.70
-4.11
-3.04
-0.36
2.13
2.84
1.35
-1.39
-3.67
-4.04
-2.22
0.74
3.12
3.46
1.46
-1.86
-4.66
-5.36
-3.45
0.16
3.63
5.17
4.09
1.13
-1.97
-3.49
-2.74
-0.38
1.97
2.77
1.46
-1.17
-3.45
-3.82
-1.77
1.77
4.93
5.93
4.10
0.33
-3.46
-5.32
-4.36
-1.25
2.25
4.27
3.89
1.62
-0.98
-2.31
-1.67
0.36
2.26
2.59
0.83
-2.22
-4.85
-5.40
-3.27
0.70
4.62
6.56
5.66
2.60
-0.81
-2.69
-2.16
0.18
2.68
3.63
2.32
-0.60
-3.44
-4.52
-3.14
0.01
3.24
4.78
3.80
0.88
-2.34
-4.13
-3.61
-1.29
1.28
2.40
1.32
-1.36
-3.98
-4.82
-3.13
0.35
3.82
5.39
4.18
0.85
-2.78
-4.80
-4.24
-1.62
1.37
2.89
2.06
-0.58
-3.34
-4.41
-2.93
0.45
3.96
5.71
4.74
1.62
-1.92
-3.96
-3.50
-1.00
1.93
3.43
2.54
-0.29
-3.40
-4.93
-3.86
-0.63
3.09
5.37
5.09
2.58
-0.61
-2.63
-2.41
-0.25
2.31
3.48
2.30
-0.77
-4.05
-5.65
-4.59
-1.35
2.35
4.58
4.25
1.75
-1.33
-3.12
-2.60
-0.13
2.68
4.03
2.91
-0.23
-3.69
-5.57
-4.79
-1.77
1.87
4.18
4.00
1.62
-1.46
-3.33
-2.83
-0.17
3.12
5.11
4.56
1.68
-2.00
-4.50
-4.50
-2.10
1.27
3.70
3.87
1.85
-1.04
-2.96
-2.69
-0.35
2.67
4.56
4.12
1.50
-1.92
-4.31
-4.48
-2.48
0.40
2.40
2.36
0.36
-2.30
-3.88
-3.24
-0.54
2.80
4.88
4.43
1.56
-2.22
-4.85
-4.81
-2.04
2.01
5.15
5.74
3.56
-0.07
-3.14
-4.10
-2.75
-0.23
1.74
1.95
0.38
-1.85
-3.23
-2.79
-0.70
1.82
3.24
2.63
0.22
-2.66
-4.36
-3.79
-1.13
2.25
4.43
4.08
1.24
-2.63
-5.36
-5.33
-2.37
2.02
5.49
6.16
3.73
-0.38
-3.80
-4.64
-2.56
1.07
4.00
4.50
2.34
-1.13
-3.77
-4.03
-1.83
1.44
3.82
3.89
1.65
-1.58
-3.92
-4.08
-2.03
1.02
3.34
3.69
1.96
-0.79
-2.99
-3.47
-2.06
0.33
2.24
2.53
1.01
-1.41
-3.28
-3.38
-1.49
1.43
3.73
4.03
1.99
-1.34
-4.08
-4.59
-2.40
1.36
4.63
5.56
3.64
-0.02
-3.26
-4.21
-2.37
1.08
4.02
4.66
2.58
-1.04
-4.17
-5.15
-3.61
-0.67
1.88
2.59
1.22
-1.17
-2.97
-2.97
-1.07
1.69
3.77
4.05
2.43
-0.09
-2.08
-2.47
-1.15
1.00
2.61
2.62
0.90
-1.65
-3.56
-3.60
-1.51
1.75
4.45
5.03
3.03
-0.61
-3.96
-5.16
-3.51
0.07
3.53
4.89
3.38
-0.12
-3.55
-4.93
-3.53
-0.25
2.91
4.11
2.70
-0.37
-3.19
-4.06
-2.47
0.60
3.30
4.01
2.32
-0.82
-3.59
-4.46
-2.98
-0.05
2.68
3.72
2.61
0.06
-2.48
-3.63
-2.88
-0.77
1.46
2.55
1.98
0.18
-1.71
-2.55
-1.83
-0.01
1.80
2.43
1.40
-0.75
-2.73
-3.25
-1.80
0.97
3.53
4.36
2.83
-0.32
-3.32
-4.36
-2.65
1.03
4.71
6.34
4.95
1.29
-2.58
-4.44
-3.22
0.39
4.29
6.18
4.94
1.19
-3.02
-5.44
-4.92
-1.99
1.51
3.57
3.16
0.77
-2.02
-3.56
-3.13
-1.25
0.68
1.32
0.21
-1.95
-3.76
-3.95
-2.16
0.80
3.40
4.17
2.60
-0.56
-3.64
-4.90
-3.54
-0.16
3.44
5.25
4.22
0.85
-2.99
-5.06
-4.11
-0.56
3.66
6.23
5.79
2.67
-1.27
-3.83
-3.71
-1.23
1.99
4.02
3.82
1.76
-0.70
-1.95
-1.28
0.78
2.75
3.15
1.40
-1.78
-4.73
-5.72
-3.95
-0.08
3.99
6.15
5.18
1.48
-3.11
-6.24
-6.37
-3.57
0.53
3.69
4.37
2.49
-0.57
-2.91
-3.29
-1.80
0.29
1.43
0.74
-1.38
-3.54
-4.18
-2.56
0.72
4.03
5.52
4.21
0.64
-3.39
-5.68
-4.88
-1.26
3.35
6.56
6.75
3.95
-0.15
-3.22
-3.65
-1.40
2.01
4.48
4.64
2.52
-0.51
-2.68
-2.91
-1.36
0.71
1.82
1.13
-1.00
-3.33
-4.39
-3.42
-0.80
2.08
3.58
2.76
-0.05
-3.37
-5.28
-4.50
-1.24
2.89
5.68
5.58
2.59
-1.64
-4.80
-5.19
-2.73
1.03
3.86
4.20
2.01
-1.25
-3.57
-3.65
-1.62
1.13
2.84
2.47
0.31
-2.27
-3.65
-2.91
-0.41
2.45
3.97
3.16
0.30
-3.15
-5.28
-4.78
-1.73
2.41
5.54
6.05
3.78
0.02
-3.18
-4.24
-2.87
-0.21
1.99
2.38
0.84
-1.51
-3.08
-2.78
-0.67
2.02
3.69
3.24
0.80
-2.33
-4.34
-3.94
-1.11
2.82
5.86
6.49
4.42
0.83
-2.38
-3.68
-2.70
-0.41
1.57
1.95
0.54
-1.68
-3.21
-2.94
-0.86
1.88
3.65
3.26
0.67
-2.85
-5.47
-5.72
-3.40
0.37
3.68
4.93
3.72
1.00
-1.46
-2.15
-0.71
1.90
4.01
4.24
2.40
-0.43
-2.57
-2.71
-0.77
2.05
3.96
3.62
0.94
-2.76
-5.57
-6.01
-3.87
-0.30
2.82
4.00
2.83
0.24
-2.10
-2.74
-1.29
1.38
3.62
4.02
2.21
-0.86
-3.47
-4.17
-2.63
0.14
2.35
2.48
0.25
-3.17
-5.80
-5.94
-3.26
0.99
4.58
5.59
3.45
-0.70
-4.65
-6.36
-5.08
-1.77
1.51
2.82
1.43
-1.82
-5.04
-6.49
-5.60
-3.24
-1.14
-0.91
-3.02
-6.56
-9.75
-10.95
-9.62
-6.66
-3.94
-3.27
-5.38
-9.52
-13.93
-16.80
-17.32
-16.05
-14.54
-14.35
-16.18
-19.50
-22.96
-25.25
-25.91
-25.58
-25.58
-27.06
-30.26
-34.35
-37.92
-39.90
-40.20
-39.75
-39.79
-40.80
-41.69
-39.92
-32.60
-18.20
2.24
25.06
45.32
58.89
64.21
62.70
57.95
53.99
53.55
57.23
63.83
71.43
78.46
84.22
88.62
91.67
92.94
91.65
87.02
78.89
67.93
55.51
43.24
32.38
23.48
16.32
10.17
4.28
-1.80
-8.00
-13.80
-18.59
-21.93
-23.78
-24.49
-24.64
-24.75
-25.14
-25.79
-26.46
-26.83
-26.68
-26.00
-24.92
-23.70
-22.56
-21.61
-20.86
-20.19
-19.48
-18.65
-17.68
-16.61
-15.51
-14.44
-13.46
-12.56
-11.73
-10.96
-10.22
-9.50
-8.82
-8.16
-7.53
-6.94
-6.37
-5.84
-5.35
-4.90
-4.46
-4.05
-3.67
-3.34
-3.03
-2.76
-2.52
-2.30
-2.11
-1.94
-1.77
-1.60
-1.44
-1.31
-1.25
-1.27
-1.37
-1.51
-1.63
-1.70
-1.67
-1.59
-1.48
-1.44
-1.48
-1.62
-1.80
-1.96
-2.03
-1.97
-1.84
-1.73
-1.74
-1.97
-2.41
-2.94
-3.40
-3.62
-3.53
-3.25
-3.03
-3.16
-3.84
-5.08
-6.59
-7.94
-8.70
-8.68
-8.11
-7.54
-7.65
-8.95
-11.49
-14.75
-17.84
-19.91
-20.56
-20.08
-19.43
-19.74
-21.82
-25.72
-30.61
-35.10
-38.05
-38.83
-37.80
-36.05
-34.86
-35.35
-38.39
-44.42
-53.17
-63.01
-70.57
-71.35
-61.45
-39.68
-8.89
24.58
53.36
72.11
79.71
79.09
75.09
71.65
69.98
68.78
65.83
60.03
52.31
45.15
41.08
41.26
44.83
49.42
52.04
50.65
45.14
37.20
29.64
24.97
24.43
27.52
32.66
38.23
43.05
45.83
44.51
36.39
19.68
-4.35
-30.43
-50.73
-58.30
-50.78
-31.88
-9.53
8.25
17.07
17.68
14.16
10.64
8.66
6.78
2.57
-4.92
-14.11
-21.59
-24.03
-19.99
-10.77
0.39
9.69
14.90
16.05
15.15
15.21
18.77
26.85
38.89
53.42
68.58
81.51
90.07
91.24
82.44
63.02
35.35
4.55
-23.24
-43.30
-53.95
-56.53
-54.25
-50.00
-45.25
-40.19
-34.77
-29.47
-25.40
-23.58
-23.86
-25.08
-25.57
-24.24
-21.13
-17.63
-15.75
-16.91
-21.53
-28.36
-35.70
-41.83
-46.00
-48.65
-51.07
-54.80
-60.74
-69.75
-81.12
-92.57
-100.26
-99.83
-88.10
-64.91
-34.02
-1.42
26.31
45.17
54.86
58.29
59.31
60.44
61.79
61.96
59.62
54.92
49.87
46.96
47.84
52.65
60.32
69.18
77.09
81.75
80.63
72.05
55.70
33.71
10.17
-10.20
-23.89
-29.90
-29.25
-24.83
-18.91
-12.65
-6.45
-1.20
1.62
0.10
-6.87
-18.44
-32.08
-44.24
-52.27
-55.24
-54.03
-51.93
-52.25
-57.62
-68.53
-82.68
-94.97
-98.82
-88.41
-61.24
-20.10
26.77
68.34
94.08
98.09
81.23
50.64
16.76
-11.11
-27.91
-33.89
-33.16
-30.72
-30.34
-33.64
-40.80
-51.22
-63.64
-75.90
-83.70
-83.16
-71.46
-49.16
-20.71
7.19
28.31
39.62
42.07
39.30
35.27
32.44
31.19
30.80
30.53
30.57
31.98
35.82
42.55
52.22
64.86
79.99
96.15
110.20
117.56
113.32
95.96
67.77
34.67
3.94
-18.88
-32.20
-38.43
-42.17
-47.04
-54.89
-65.91
-79.30
-93.68
-106.93
-115.95
-116.64
-106.86
-87.06
-61.03
-34.61
-13.47
-0.73
3.83
2.88
-0.44
-3.92
-6.47
-7.74
-7.47
-5.12
-0.43
6.19
13.50
20.00
24.58
27.00
28.08
29.07
31.06
34.29
38.18
41.61
43.54
43.47
41.69
39.07
36.53
34.69
33.27
31.62
29.09
25.66
21.98
19.28
18.79
21.17
26.23
32.54
38.57
43.11
45.91
47.62
49.32
52.16
57.14
65.23
76.32
89.04
100.31
105.66
100.46
82.15
51.95
14.02
-22.06
-48.48
-61.79
-63.50
-58.09
-50.38
-43.17
-36.76
-30.18
-22.51
-14.54
-7.84
-3.76
-2.23
-2.06
-1.56
0.68
4.91
10.39
15.32
17.97
17.05
12.95
6.79
0.01
-6.23
-11.43
-15.70
-19.80
-23.60
-27.90
-32.46
-36.61
-39.57
-40.83
-40.34
-38.45
-35.87
-33.27
-31.23
-29.71
-28.52
-27.35
-25.98
-24.39
-22.64
-20.95
-19.46
-18.38
-17.63
-17.08
-16.62
-16.26
-16.00
-15.90
-15.97
-16.18
-16.56
-17.00
-17.73
-18.50
-19.33
-20.30
-21.47
-22.86
-24.42
-26.11
-27.82
-29.40
-30.78
-31.97
-32.94
-33.56
-33.55
-32.53
-30.02
-25.98
-19.85
-11.60
-1.65
9.36
20.73
31.79
42.19
51.77
60.28
67.57
73.11
76.05
75.53
71.00
62.59
51.24
38.45
25.70
14.35
4.85
-3.20
-10.63
-18.16
-25.90
-33.17
-38.79
-42.20
-43.18
-42.68
-42.54
-44.80
-51.15
-62.52
-79.12
-98.54
-119.37
-137.89
-149.00
-147.85
-132.28
-104.46
-70.57
-38.53
-14.81
-2.25
0.89
-1.34
-5.05
-8.62
-12.57
-17.92
-24.45
-30.00
-31.54
-26.34
-13.78
4.37
25.12
45.31
63.13
78.72
93.74
110.10
129.16
150.19
172.54
194.53
213.31
224.99
225.38
211.38
182.84
143.78
101.58
64.49
38.19
23.71
17.71
14.81
10.65
3.80
-4.45
-12.06
-18.00
-23.66
-31.80
-44.86
-63.69
-87.50
-114.52
-142.33
-167.67
-187.39
-197.92
-196.28
-181.74
-156.82
-127.09
-99.10
-77.68
-64.09
-56.17
-49.83
-41.80
-31.14
-18.80
-6.19
6.14
19.30
35.15
54.78
77.78
102.37
125.77
146.38
162.77
173.01
174.49
164.65
142.63
110.68
74.14
40.03
13.63
-2.73
-10.17
-11.84
-10.91
-9.12
-6.59
-3.03
1.30
5.22
7.30
6.85
4.49
1.86
0.74
2.32
6.50
12.09
17.43
21.21
23.00
23.30
23.30
24.27
27.01
31.51
37.13
42.76
47.52
50.97
53.14
54.38
55.11
55.51
55.33
54.09
51.05
45.71
37.96
28.12
16.76
4.64
-7.52
-19.16
-29.31
-38.05
-45.24
-50.77
-54.57
-56.67
-57.18
-56.30
-54.71
-52.40
-49.72
-46.87
-44.00
-41.20
-38.53
-36.00
-33.61
-31.36
-29.13
-27.03
-25.09
-23.34
-21.80
-20.48
-19.35
-18.35
-17.43
-16.51
-15.64
-14.88
-14.31
-14.00
-13.95
-14.15
-14.51
-14.95
-15.40
-15.88
-16.52
-17.45
-18.80
-20.60
-22.75
-25.07
-27.37
-29.55
-31.60
-33.82
-36.61
-40.25
-44.77
-49.96
-55.31
-60.28
-64.54
-68.01
-71.08
-74.28
-77.98
-82.05
-85.81
-88.11
-87.85
-84.96
-79.31
-71.84
-64.14
-57.65
-53.08
-50.14
-47.74
-44.73
-40.36
-34.73
-28.76
-23.71
-20.81
-20.97
-24.77
-32.08
-41.49
-49.74
-52.10
-43.78
-22.49
9.97
47.57
82.19
106.68
117.73
116.42
106.93
94.08
80.64
66.83
51.56
34.17
15.47
-2.42
-17.41
-28.45
-35.54
-40.35
-45.11
-51.18
-58.23
-64.31
-66.46
-62.21
-50.36
-30.78
-5.65
21.74
48.49
73.40
97.07
121.17
147.38
170.70
189.63
203.26
211.42
214.43
212.04
202.64
183.76
153.94
115.46
75.93
44.77
29.25
30.82
44.09
59.30
69.84
69.90
58.73
39.70
16.01
-11.05
-42.09
-77.88
-117.76
-160.41
-200.54
-233.26
-255.55
-267.19
-270.07
-266.88
-259.10
-247.03
-230.31
-208.79
-182.79
-153.92
-125.17
-100.00
-81.30
-70.54
-67.71
-71.50
-79.56
-88.99
-97.71
-104.58
-108.97
-110.25
-107.26
-98.35
-81.17
-57.38
-27.60
6.30
41.15
73.13
98.68
114.98
120.05
112.81
95.53
71.51
43.38
13.17
-16.98
-44.20
-65.02
-76.13
-75.16
-57.34
-20.04
35.15
102.93
176.60
250.60
321.39
387.37
447.94
507.55
569.19
631.45
688.81
734.01
761.31
767.30
751.39
683.72
553.28
370.48
162.83
-39.10
-214.81
-355.31
-460.31
-532.89
-575.85
-591.20
-581.13
-550.65
-507.52
-461.08
-416.94
-377.46
-340.66
-306.95
-272.65
-235.04
-195.21
-156.99
-126.28
-104.05
-88.58
-74.43
-56.37
-28.13
14.53
71.25
138.29
208.23
278.62
332.56
356.59
342.93
294.59
223.73
143.70
80.58
35.32
7.10
-5.49
-1.18
21.67
56.33
99.46
147.32
196.10
239.97
279.59
315.53
348.59
377.65
400.35
415.14
420.24
414.58
378.56
307.66
209.07
99.00
-6.11
-95.52
-164.57
-214.07
-247.43
-269.88
-282.02
-284.76
-279.65
-269.43
-257.17
-244.79
-233.55
-224.04
-216.93
-209.74
-200.80
-189.76
-177.63
-165.96
-155.72
-147.39
-141.00
-136.52
-132.20
-126.89
-120.49
-113.73
-107.61
-102.78
-99.47
-97.56
-96.72
-95.85
-94.18
-91.35
-87.35
-82.34
-76.43
-69.59
-61.74
-52.87
-42.68
-31.16
-18.59
-5.49
7.48
19.67
30.47
39.43
46.21
50.66
52.86
53.09
51.75
49.21
45.76
41.51
36.46
30.62
24.08
17.12
10.37
4.49
-0.02
-3.00
-4.67
-5.53
-6.12
-6.78
-7.54
-7.85
-7.11
-4.90
-1.25
3.32
8.09
12.48
16.16
19.38
23.00
27.89
34.95
44.93
58.59
76.36
97.99
122.32
144.94
161.70
169.41
166.67
154.55
135.85
114.01
91.78
70.36
49.59
29.11
9.04
-9.59
-25.21
-36.70
-44.17
-48.89
-52.51
-55.86
-58.19
-57.99
-54.04
-46.74
-38.10
-31.08
-28.23
-30.29
-36.27
-43.75
-50.34
-54.45
-55.63
-54.36
-51.62
-48.29
-44.95
-41.46
-37.11
-31.10
-23.24
-14.38
-6.33
-1.17
-0.17
-3.16
-8.63
-14.31
-18.32
-19.75
-18.85
-16.50
-13.58
-10.58
-7.57
-4.44
-0.95
2.94
7.05
11.18
15.22
19.09
22.58
25.30
26.66
26.32
24.28
21.03
17.44
14.50
12.91
12.86
14.11
16.25
19.55
24.96
33.95
47.84
66.77
88.90
110.45
126.65
131.02
119.49
91.70
51.33
4.78
-41.00
-80.40
-109.38
-125.34
-127.38
-116.67
-97.33
-75.73
-58.28
-47.71
-42.87
-39.63
-33.60
-22.70
-8.13
6.33
16.14
19.20
17.40
15.44
18.07
27.22
41.20
56.19
68.16
74.61
74.93
69.52
58.42
41.16
17.97
-10.63
-42.19
-73.06
-99.67
-119.95
-133.57
-141.23
-141.81
-134.40
-118.64
-95.63
-68.42
-41.00
-16.59
3.47
19.36
31.68
40.87
47.78
55.02
66.58
85.63
111.33
137.31
153.41
150.51
125.58
83.62
35.08
-9.99
-46.28
-73.50
-93.01
-103.98
-103.71
-88.40
-58.23
-19.65
15.98
37.18
37.85
19.61
-8.58
-35.45
-52.44
-56.85
-51.32
-41.17
-31.12
-23.49
-18.63
-15.35
-12.53
-9.03
-3.86
4.36
16.56
32.12
48.08
59.17
59.64
45.66
17.86
-18.11
-52.82
-76.36
-82.26
-68.65
-38.75
0.39
39.91
71.74
90.29
93.44
82.63
62.13
37.67
14.87
-2.10
-11.31
-12.98
-9.02
-2.23
4.39
8.19
7.36
1.05
-10.15
-24.08
-37.60
-47.64
-52.72
-53.56
-52.62
-52.61
-55.43
-61.15
-68.21
-73.80
-74.43
-66.94
-49.69
-24.24
4.31
28.86
43.64
47.49
45.04
44.80
54.24
75.43
103.15
127.02
136.32
125.34
96.14
57.49
20.53
-6.29
-20.03
-22.99
-19.94
-14.35
-7.18
2.26
13.99
25.73
32.76
30.63
17.69
-2.83
-24.58
-41.26
-49.50
-49.96
-46.25
-42.38
-40.57
-40.93
-42.20
-42.94
-42.55
-41.41
-40.03
-38.72
-37.16
-34.45
-29.85
-23.02
-14.56
-5.65
2.67
10.05
16.53
21.92
25.25
24.84
20.07
12.13
3.77
-2.01
-3.70
-2.57
-1.50
-3.10
-7.90
-13.81
-17.52
-15.98
-8.21
4.18
18.01
30.48
40.37
47.94
54.01
58.88
61.79
61.80
58.88
54.29
50.94
52.02
59.47
72.48
86.89
96.28
93.84
75.62
41.78
-2.50
-47.92
-83.65
-100.65
-95.85
-74.07
-45.63
-22.58
-13.22
-18.91
-34.29
-51.14
-62.84
-67.28
-66.58
-64.29
-62.47
-60.49
-55.80
-46.44
-33.79
-21.68
-14.59
-15.02
-22.19
-32.40
-41.11
-45.06
-43.74
-39.50
-35.97
-36.53
-42.62
-53.58
-66.98
-79.11
-85.62
-82.52
-67.39
-40.44
-5.10
32.78
67.01
92.92
109.03
116.84
119.18
118.52
115.93
111.45
105.27
98.74
93.99
93.50
98.93
109.95
123.73
135.31
138.62
127.70
101.98
65.23
24.92
-10.42
-34.63
-46.19
-48.08
-45.33
-42.20
-40.06
-38.08
-34.66
-29.09
-22.42
-16.88
-14.33
-15.29
-18.71
-22.59
-25.21
-26.00
-25.74
-25.48
-26.53
-29.33
-33.37
-37.31
-39.42
-38.54
-34.48
-27.76
-19.50
-11.07
-3.25
3.56
9.44
14.65
19.68
23.88
26.77
27.92
26.56
23.11
18.03
11.98
5.63
-0.48
-6.08
-11.05
-14.52
-17.24
-19.34
-20.94
-22.05
-22.66
-22.81
-22.62
-22.21
-21.66
-21.24
-20.92
-20.69
-20.52
-20.38
-20.22
-20.11
-20.09
-20.16
-20.51
-21.05
-21.76
-22.54
-23.35
-24.09
-24.83
-25.98
-27.38
-29.21
-31.40
-33.83
-36.30
-38.60
-40.50
-41.98
-43.12
-43.95
-44.44
-44.25
-42.82
-39.49
-34.08
-26.06
-15.74
-4.02
8.05
19.43
29.49
38.18
46.19
53.62
60.63
66.74
70.92
72.20
69.92
64.22
56.09
46.95
38.04
30.10
22.79
14.94
5.47
-6.47
-21.38
-39.33
-59.81
-81.11
-99.89
-110.84
-110.23
-96.40
-71.55
-41.47
-13.48
6.53
16.32
17.63
14.35
9.93
6.10
2.50
-1.93
-7.54
-13.40
-17.67
-18.83
-16.58
-11.95
-6.48
-1.68
1.91
4.92
8.73
14.77
23.67
34.75
46.17
55.54
60.83
60.97
56.42
48.96
40.98
34.63
31.01
29.90
30.07
30.08
28.85
26.41
23.80
22.55
24.04
29.14
38.22
51.15
67.01
83.31
96.13
100.77
93.53
73.60
44.15
11.58
-17.12
-35.67
-42.45
-40.01
-32.88
-24.96
-18.12
-12.29
-6.86
-1.83
1.87
2.85
0.49
-4.50
-10.45
-15.52
-18.44
-19.06
-18.30
-17.34
-17.25
-18.35
-20.11
-21.51
-21.76
-20.55
-18.33
-16.08
-14.80
-15.13
-16.98
-19.64
-22.09
-23.52
-23.49
-22.07
-19.75
-17.08
-14.35
-11.54
-8.42
-4.36
0.14
4.37
7.61
9.35
9.44
8.73
8.40
9.58
13.11
18.51
24.50
29.63
32.61
32.88
30.79
27.29
23.22
18.98
14.11
7.27
-2.48
-15.74
-32.76
-53.33
-76.74
-101.19
-123.25
-136.78
-137.81
-124.41
-98.56
-66.10
-34.62
-10.34
4.19
10.54
12.74
14.57
18.13
23.37
29.13
34.67
40.28
46.81
54.68
63.30
70.79
75.28
75.32
70.77
62.67
52.81
42.90
33.76
25.95
18.94
12.00
4.58
-3.27
-10.95
-17.60
-22.54
-25.53
-26.82
-27.25
-27.68
-28.70
-30.48
-32.79
-35.20
-37.32
-38.94
-40.14
-41.25
-42.54
-44.22
-46.28
-48.55
-50.77
-52.60
-53.79
-54.09
-53.36
-51.45
-48.24
-43.47
-36.94
-28.56
-18.37
-6.51
6.67
20.62
34.68
48.10
60.06
69.78
76.59
80.02
79.86
76.09
68.93
58.82
46.44
32.64
18.28
4.24
-8.77
-19.91
-28.79
-35.24
-39.33
-41.24
-41.35
-40.08
-37.89
-35.21
-32.09
-28.86
-25.74
-22.81
-20.07
-17.36
-14.50
-11.26
-7.44
-2.49
3.66
10.91
19.05
27.89
37.17
46.66
56.15
63.00
67.49
70.01
70.85
70.26
68.45
65.68
62.16
58.21
54.04
50.21
46.68
43.35
40.06
36.79
33.61
30.57
27.92
25.73
24.31
23.38
22.62
21.75
20.69
19.59
18.62
18.13
18.19
18.80
19.32
18.99
17.22
13.90
10.25
6.50
3.46
1.65
1.17
1.27
1.00
-0.36
-2.80
-5.61
-7.75
-8.11
-6.79
-3.63
0.55
4.69
7.69
8.69
7.02
2.16
-5.70
-15.75
-26.19
-34.94
-40.19
-41.24
-38.95
-35.55
-33.75
-35.03
-39.18
-43.92
-46.06
-43.05
-34.48
-22.58
-11.47
-5.21
-5.48
-10.79
-17.31
-21.11
-20.21
-15.48
-9.20
-2.82
4.76
16.53
34.35
56.20
75.32
82.82
72.40
44.12
5.24
-33.22
-61.29
-74.32
-73.99
-66.04
-56.66
-49.19
-43.29
-37.56
-30.48
-22.10
-14.04
-8.22
-5.60
-5.67
-6.90
-7.18
-5.41
-1.71
2.84
6.70
8.68
8.49
6.88
5.17
4.56
5.54
7.80
10.39
12.19
12.38
10.83
8.04
4.84
2.10
0.24
-0.78
-1.33
-1.65
-1.90
-1.96
-1.52
-0.25
2.05
5.61
9.86
14.31
18.55
22.28
25.31
27.50
28.79
29.18
28.64
27.03
24.39
20.99
16.99
12.81
8.70
5.00
1.92
-0.57
-2.65
-4.50
-6.17
-7.83
-9.59
-11.65
-14.07
-17.01
-20.69
-25.38
-31.11
-37.40
-43.80
-48.77
-52.15
-53.59
-53.04
-50.71
-47.02
-43.18
-38.48
-32.37
-24.41
-14.49
-2.93
9.20
20.14
28.57
32.77
32.47
27.99
20.75
11.96
2.45
-7.71
-18.97
-31.72
-46.05
-61.69
-77.64
-94.38
-111.43
-126.47
-135.39
-133.67
-118.45
-90.62
-55.08
-19.44
8.83
25.30
29.75
25.35
16.63
7.62
0.86
-2.30
-1.52
2.81
9.75
18.04
26.29
33.60
40.15
47.00
55.68
67.81
84.06
103.77
123.68
139.37
144.64
133.68
104.13
59.59
9.86
-32.05
-55.06
-54.82
-35.50
-7.35
18.26
33.68
37.20
31.96
22.78
12.87
2.45
-8.76
-20.84
-32.02
-38.93
-38.18
-28.47
-11.79
7.41
24.60
36.74
43.68
47.78
52.37
60.23
71.72
86.64
103.08
117.78
126.68
125.59
111.64
84.86
49.02
10.79
-22.43
-45.52
-57.34
-60.40
-59.06
-56.76
-54.77
-52.42
-48.59
-43.01
-36.96
-32.34
-30.44
-31.13
-32.95
-34.06
-32.95
-29.41
-24.33
-19.25
-15.59
-13.97
-14.06
-14.79
-14.96
-13.72
-11.01
-7.37
-3.76
-0.98
0.58
1.16
1.35
1.84
3.09
5.17
7.78
10.45
12.76
14.56
15.94
17.16
18.47
20.09
22.05
24.20
26.33
28.25
29.86
31.14
32.14
32.85
33.27
33.32
32.85
31.72
29.81
27.11
23.59
19.35
14.43
9.01
3.18
-2.92
-9.19
-15.45
-21.49
-27.10
-31.51
-35.06
-37.71
-39.62
-40.91
-41.77
-42.33
-42.64
-42.68
-42.36
-42.05
-41.54
-41.02
-40.86
-41.34
-42.55
-44.27
-46.11
-47.53
-48.27
-48.14
-47.43
-46.63
-46.19
-46.35
-46.86
-47.40
-47.09
-45.62
-43.17
-40.59
-39.07
-39.54
-42.19
-46.24
-50.19
-52.42
-51.85
-48.01
-41.43
-33.11
-24.18
-15.69
-8.49
-3.13
0.83
4.46
10.74
23.23
44.15
72.67
104.38
132.74
152.11
159.03
153.94
140.40
122.80
104.40
86.56
69.26
52.04
35.89
22.06
11.67
5.07
1.44
-0.77
-3.08
-6.33
-10.30
-14.05
-16.59
-17.29
-16.18
-14.01
-11.89
-10.76
-10.98
-12.28
-13.90
-15.06
-15.25
-14.43
-13.03
-11.66
-10.83
-10.74
-11.22
-11.83
-12.22
-12.17
-11.72
-11.10
-10.63
-10.57
-10.91
-11.54
-12.25
-12.88
-13.37
-13.75
-14.15
-14.62
-15.17
-15.70
-16.12
-16.34
-16.38
-16.42
-16.71
-17.52
-19.02
-21.16
-23.67
-26.23
-28.61
-30.80
-32.98
-35.58
-38.96
-43.22
-47.98
-52.37
-55.43
-56.33
-54.70
-50.80
-45.29
-38.81
-31.66
-23.43
-13.10
0.29
17.15
36.87
57.86
77.95
95.28
108.75
117.65
123.28
127.17
130.63
134.60
139.73
146.13
152.75
156.83
154.69
142.11
117.09
81.59
41.36
3.92
-24.43
-40.99
-47.12
-46.52
-42.99
-38.72
-34.05
-28.68
-22.86
-17.78
-14.87
-14.69
-16.30
-17.65
-16.87
-13.03
-7.03
-1.09
2.23
1.28
-3.98
-12.03
-20.77
-28.52
-34.66
-39.91
-45.78
-53.94
-65.59
-81.19
-100.07
-119.39
-135.53
-143.56
-139.20
-120.93
-91.35
-56.70
-24.68
-1.42
10.97
14.12
12.01
8.43
5.28
2.38
-1.26
-6.13
-11.49
-15.90
-18.40
-19.09
-19.06
-19.86
-22.78
-27.95
-34.55
-40.95
-45.76
-48.25
-48.43
-47.00
-44.79
-42.33
-39.53
-35.79
-30.06
-21.67
-10.59
2.59
16.79
30.79
43.55
54.50
62.76
68.85
73.19
76.04
77.47
77.43
75.89
72.95
69.31
65.07
60.69
56.47
52.55
48.95
45.59
42.39
39.27
36.20
33.19
30.41
27.93
25.73
23.78
21.97
20.21
18.46
16.71
15.04
13.67
12.71
12.19
11.98
11.86
11.62
11.14
10.46
9.83
9.63
10.11
11.31
12.97
14.62
15.84
16.39
16.32
16.12
16.30
17.27
19.04
21.18
23.01
23.92
24.01
23.32
22.51
22.25
22.99
24.75
27.36
30.63
34.35
37.96
40.23
39.60
34.79
26.11
15.74
6.95
2.33
2.22
4.42
5.36
2.22
-5.74
-16.81
-28.32
-38.24
-46.07
-52.50
-58.19
-62.90
-64.81
-63.04
-57.49
-49.18
-40.08
-32.01
-26.04
-22.30
-20.14
-18.53
-16.63
-13.75
-9.89
-5.72
-2.29
-0.66
-1.39
-4.22
-8.58
-13.08
-16.53
-18.47
-19.36
-20.35
-22.74
-27.36
-34.03
-41.12
-47.61
-52.10
-53.76
-52.73
-49.99
-47.16
-46.24
-48.75
-55.41
-64.81
-72.94
-74.18
-63.14
-36.96
3.02
50.57
97.29
133.62
151.96
149.09
127.07
92.33
53.53
18.94
-5.96
-19.56
-23.99
-23.37
-21.64
-21.04
-21.68
-22.58
-22.74
-22.02
-20.96
-20.46
-21.37
-24.29
-29.63
-37.34
-46.45
-54.26
-56.37
-47.94
-25.83
9.45
53.59
99.36
138.38
162.92
168.28
153.89
123.44
83.72
41.85
4.55
-23.04
-38.36
-42.26
-37.77
-28.91
-19.50
-12.58
-11.67
-18.06
-30.12
-44.14
-56.40
-64.53
-68.26
-69.49
-71.97
-82.04
-104.98
-143.44
-193.04
-248.05
-300.66
-341.67
-362.99
-349.40
-299.86
-228.82
-158.07
-104.21
-72.88
-60.29
-58.46
-60.82
-64.53
-71.48
-83.45
-98.59
-113.38
-124.54
-130.66
-131.93
-130.33
-128.51
-129.59
-134.47
-141.06
-145.41
-143.37
-136.57
-126.13
-113.98
-102.08
-92.57
-86.08
-81.44
-76.61
-70.01
-61.29
-50.29
-37.70
-24.42
-11.44
0.93
13.14
25.70
38.56
50.84
62.41
72.92
82.24
90.48
98.26
106.51
115.75
125.75
135.56
146.15
158.26
172.36
188.79
207.90
229.94
254.41
279.79
303.87
328.44
355.00
383.96
414.57
445.70
476.48
506.23
534.27
559.76
586.92
616.48
643.66
660.35
660.52
644.93
621.28
600.46
590.90
601.33
629.81
664.32
689.36
694.35
678.03
645.95
605.35
516.17
362.84
158.91
-58.95
-253.12
-402.35
-502.59
-561.12
-589.76
-600.35
-594.96
-574.69
-543.86
-508.68
-474.57
-445.74
-423.24
-407.06
-396.91
-386.36
-370.36
-349.85
-328.51
-309.83
-289.50
-267.03
-243.07
-218.40
-193.65
-165.05
-134.12
-104.29
-78.47
-57.54
-41.75
-31.75
-28.32
-29.94
-32.72
-39.40
-53.38
-76.46
-107.77
-145.30
-188.06
-234.64
-281.25
-308.99
-307.20
-275.78
-224.70
-166.32
-109.44
-59.93
-28.15
-8.71
3.73
9.51
7.96
-1.39
-18.54
-37.54
-57.95
-79.67
-100.45
-118.80
-135.33
-150.44
-163.80
-174.11
-167.63
-139.14
-91.78
-34.42
22.04
69.67
105.56
130.42
147.04
158.62
165.10
166.67
164.98
161.38
157.16
153.08
149.50
146.51
143.95
139.47
131.40
119.76
104.56
87.50
70.25
53.99
39.38
26.40
13.35
-1.25
-14.83
-27.59
-38.48
-46.16
-49.66
-48.93
-45.04
-40.41
-37.39
-37.30
-40.33
-44.65
-47.89
-48.32
-45.38
-40.06
-34.41
-30.65
-29.92
-32.89
-39.08
-47.39
-55.89
-61.25
-59.19
-45.82
-20.00
14.88
50.68
77.45
87.06
76.65
49.77
14.54
-20.12
-47.86
-66.46
-77.35
-83.12
-85.98
-87.08
-86.96
-86.54
-87.72
-93.05
-104.29
-120.66
-137.88
-149.17
-148.18
-132.30
-103.49
-68.74
-37.14
-15.87
-7.20
-8.23
-13.01
-15.79
-13.44
-6.04
4.51
16.19
28.21
40.95
55.10
70.61
86.36
100.63
110.76
116.22
117.37
115.36
111.73
107.69
103.78
99.80
95.61
90.35
83.96
76.86
69.78
63.52
58.46
54.54
51.26
48.01
44.26
40.05
35.64
31.39
27.73
24.79
22.52
20.65
18.90
16.99
14.99
12.98
11.12
9.54
8.28
7.32
6.58
6.00
5.46
4.98
4.61
4.31
4.13
4.00
3.95
3.98
4.11
4.32
4.60
4.95
5.32
5.68
5.91
5.92
5.66
5.03
4.01
2.61
0.89
-1.11
-3.07
-5.12
-7.21
-9.21
-10.96
-12.32
-13.12
-13.25
-12.68
-11.42
-9.68
-7.64
-5.51
-3.49
-1.70
-0.20
1.01
1.91
2.45
2.46
1.85
0.56
-1.35
-3.60
-5.69
-7.16
-7.66
-7.16
-5.93
-4.37
-2.93
-1.81
-0.79
0.73
3.39
7.61
13.28
19.79
26.28
31.77
35.77
38.67
41.60
45.94
52.74
62.18
73.49
85.30
95.74
103.39
107.98
110.55
113.29
118.98
130.14
147.66
169.63
190.52
202.65
198.99
176.05
135.48
83.10
26.20
-30.04
-81.14
-126.32
-167.84
-209.14
-252.79
-299.45
-347.91
-395.10
-436.22
-465.41
-477.11
-467.11
-433.98
-379.56
-308.91
-228.89
-146.09
-65.97
7.02
68.28
112.87
136.15
135.38
110.56
65.57
8.33
-50.28
-98.99
-128.84
-135.18
-117.88
-79.84
-26.11
38.47
110.47
187.30
265.32
338.13
396.54
431.48
438.36
417.90
376.30
322.92
266.43
211.92
160.35
109.92
55.08
-1.02
-50.23
-83.85
-97.63
-92.53
-73.66
-48.77
-26.21
-12.31
-8.37
-12.41
-19.39
-24.48
-25.16
-22.23
-18.77
-17.76
-20.04
-23.50
-27.11
-29.00
-29.47
-30.21
-33.04
-38.91
-47.57
-57.43
-63.14
-64.50
-62.09
-57.45
-52.26
-47.85
-44.89
-43.14
-41.86
-39.99
-37.42
-33.92
-30.00
-26.16
-22.84
-20.32
-18.49
-17.33
-16.53
-16.24
-16.09
-15.91
-15.34
-14.15
-12.45
-10.51
-8.97
-8.34
-8.97
-10.31
-11.60
-11.76
-10.22
-8.19
-6.16
-5.64
-7.98
-13.71
-20.86
-28.24
-33.99
-36.77
-36.62
-34.77
-33.36
-34.35
-38.97
-47.32
-58.50
-70.04
-78.30
-79.14
-69.21
-47.83
-17.58
15.89
46.08
67.90
80.00
84.66
86.34
89.39
95.95
104.89
112.46
114.14
106.58
89.81
67.14
44.08
26.19
16.96
16.19
20.88
27.40
32.57
35.84
38.37
41.22
43.44
42.62
35.73
21.34
0.74
-22.28
-43.07
-58.17
-66.01
-68.86
-70.21
-73.42
-80.25
-90.50
-102.75
-114.85
-124.53
-129.38
-127.48
-116.50
-95.96
-67.89
-36.53
-7.16
15.96
30.90
38.24
39.80
37.50
32.46
25.08
15.97
6.59
-0.99
-4.88
-4.21
0.44
6.96
11.76
10.11
-1.62
-24.09
-53.42
-81.62
-99.45
-100.66
-85.00
-58.52
-30.87
-10.09
0.43
2.71
1.95
3.15
8.63
17.76
28.51
39.21
49.46
59.84
70.98
83.11
95.99
109.48
123.22
138.18
154.11
168.12
174.76
168.13
144.66
105.29
55.76
4.92
-37.77
-64.75
-71.35
-56.51
-23.41
20.09
62.72
92.34
100.22
84.82
52.35
14.08
-18.86
-39.96
-49.00
-49.82
-47.10
-43.56
-39.42
-34.06
-27.67
-21.76
-18.26
-18.35
-21.33
-25.07
-27.13
-25.75
-20.91
-14.10
-7.57
-3.23
-1.92
-3.07
-5.16
-6.45
-5.72
-2.76
1.72
6.49
10.40
12.79
13.70
13.63
13.31
13.35
14.10
15.62
17.53
19.33
20.21
19.35
16.03
9.89
1.13
-9.40
-20.29
-30.05
-37.56
-42.66
-45.97
-48.58
-51.36
-54.44
-56.82
-56.73
-52.80
-44.49
-33.13
-21.42
-12.63
-9.66
-14.38
-26.94
-45.59
-66.76
-85.28
-95.92
-94.80
-81.14
-56.93
-28.84
-3.61
14.89
26.69
35.68
46.52
62.46
83.56
106.06
124.86
134.22
130.81
113.84
87.74
58.79
32.88
13.30
-0.27
-11.02
-23.05
-38.99
-58.53
-78.71
-95.36
-104.40
-103.48
-92.66
-73.80
-51.90
-31.42
-14.95
-2.40
7.81
17.61
27.19
35.16
39.58
39.49
36.34
33.36
33.85
39.26
48.27
57.51
63.43
64.02
59.73
53.42
49.15
49.88
56.74
68.75
83.71
98.82
110.76
116.04
112.01
98.15
77.12
54.36
35.96
25.60
22.83
22.85
19.45
8.69
-8.85
-28.63
-44.97
-53.74
-53.46
-44.83
-29.64
-9.62
13.45
37.45
59.57
76.25
84.39
82.06
69.99
50.47
26.76
1.86
-21.53
-40.68
-54.98
-65.78
-75.49
-88.12
-108.64
-141.34
-188.00
-246.05
-307.06
-360.98
-397.67
-409.09
-393.53
-356.27
-307.05
-255.73
-207.91
-162.56
-116.71
-66.45
-7.28
63.11
143.60
230.22
312.08
368.91
398.63
406.50
390.50
353.48
300.77
237.57
168.15
94.91
19.19
-57.18
-135.24
-211.33
-276.73
-323.24
-346.91
-346.85
-323.66
-279.83
-220.57
-156.12
-98.03
-55.67
-28.17
-11.02
2.22
17.32
37.67
64.81
97.79
135.96
172.54
201.81
220.81
229.75
230.72
226.09
218.74
210.31
200.14
191.81
177.98
151.67
110.17
57.15
1.49
-45.47
-75.27
-87.60
-84.87
-76.80
-73.63
-80.30
-93.84
-107.78
-116.43
-118.95
-119.73
-121.91
-126.86
-132.66
-135.82
-131.91
-119.24
-98.52
-73.73
-51.73
-34.45
-21.03
-8.19
8.46
35.07
71.46
116.56
166.85
215.98
263.80
312.17
361.97
394.23
390.57
341.47
253.98
162.61
74.89
-6.56
-80.59
-150.30
-213.59
-264.15
-294.45
-295.47
-265.90
-218.93
-171.33
-137.13
-123.89
-130.64
-147.59
-164.78
-173.04
-167.12
-147.66
-114.72
-68.40
-14.69
37.28
77.84
102.29
112.26
114.44
117.36
132.08
168.80
229.10
304.08
376.16
428.60
449.87
437.00
396.80
346.19
308.47
300.41
325.37
371.59
422.98
464.11
485.04
483.61
447.66
382.34
306.72
251.27
213.91
187.00
164.97
148.12
137.28
131.47
129.59
126.71
115.84
90.12
50.99
4.75
-40.87
-80.09
-110.30
-129.92
-140.76
-147.05
-154.08
-162.12
-168.94
-171.89
-169.61
-162.36
-150.46
-135.72
-121.18
-110.54
-104.55
-102.50
-103.23
-105.89
-109.86
-114.06
-118.03
-121.97
-127.03
-133.27
-140.61
-149.20
-159.72
-173.38
-191.04
-212.49
-235.51
-255.93
-268.25
-267.92
-252.98
-224.53
-185.91
-141.28
-94.73
-50.29
-12.34
14.39
25.83
20.24
-0.44
-30.85
-63.76
-92.59
-113.63
-126.82
-135.24
-143.83
-158.18
-182.55
-218.55
-263.18
-309.44
-347.26
-366.13
-358.47
-322.22
-260.91
-182.00
-95.07
-10.32
61.98
113.91
142.40
150.20
144.75
134.56
125.01
116.09
104.12
84.96
60.58
40.40
36.27
54.49
90.79
131.59
161.08
169.34
152.50
116.73
74.39
36.88
8.85
-12.04
-30.61
-49.52
-67.53
-89.60
-118.14
-150.85
-182.50
-209.95
-233.67
-255.42
-275.66
-293.22
-319.81
-362.89
-419.80
-480.01
-534.40
-580.04
-618.15
-650.71
-678.98
-721.00
-788.03
-876.24
-969.79
-1053.63
-1120.85
-1170.85
-1205.32
-1116.49
-857.66
-472.21
-64.64
280.90
535.78
708.40
819.45
889.13
932.92
943.96
918.16
864.13
800.76
745.05
704.63
679.44
665.98
660.27
645.54
611.07
558.84
500.70
448.00
405.67
373.29
348.18
327.58
300.99
261.98
214.40
166.01
124.36
92.85
71.42
58.36
51.69
45.55
36.01
23.09
9.62
-1.27
-8.31
-11.79
-12.60
-11.61
-10.95
-12.02
-14.67
-17.95
-20.78
-22.65
-23.65
-23.97
-23.70
-22.88
-21.54
-19.81
-18.15
-16.92
-16.37
-16.57
-17.31
-18.13
-18.60
-18.49
-17.87
-17.28
-17.28
-18.35
-20.56
-23.52
-26.49
-28.82
-30.26
-30.99
-31.70
-33.09
-35.59
-39.25
-44.33
-50.36
-57.13
-64.21
-70.49
-74.20
-73.68
-68.28
-59.25
-49.13
-40.56
-34.89
-31.39
-27.97
-22.80
-15.68
-8.35
-3.63
-3.57
-8.40
-16.57
-25.77
-34.31
-41.82
-49.04
-56.77
-65.39
-74.25
-82.00
-87.33
-89.43
-88.04
-83.38
-76.03
-65.82
-52.63
-36.15
-16.30
6.50
31.25
56.47
80.45
100.89
116.94
128.33
135.31
138.46
138.48
136.00
131.52
125.49
118.86
111.72
104.34
97.09
90.24
83.94
78.17
72.88
67.88
63.07
58.43
54.06
50.01
46.31
42.99
39.98
37.28
34.83
32.62
30.67
28.97
27.56
26.43
25.56
24.88
24.43
24.17
24.11
24.22
24.54
25.07
25.79
26.70
27.68
28.75
29.81
30.75
31.42
31.56
30.96
29.42
27.09
23.41
18.19
11.39
3.02
-6.67
-17.35
-28.55
-39.77
-50.43
-60.03
-68.01
-74.03
-77.94
-79.81
-79.87
-78.52
-76.21
-73.41
-70.60
-67.99
-65.67
-63.63
-61.76
-59.91
-57.93
-55.73
-53.27
-50.60
-47.68
-44.61
-41.54
-38.61
-36.00
-33.82
-32.21
-31.34
-31.49
-32.58
-34.64
-37.78
-42.07
-47.55
-54.21
-61.92
-70.56
-80.12
-90.07
-100.09
-109.59
-118.21
-125.91
-133.03
-140.10
-147.58
-155.82
-164.46
-173.20
-181.40
-188.43
-193.91
-197.50
-198.59
-195.82
-191.65
-186.36
-179.84
-170.90
-158.64
-142.91
-124.35
-103.97
-82.62
-60.87
-38.46
-15.31
10.72
40.65
73.17
104.78
131.47
150.36
160.36
162.48
158.82
156.82
162.32
176.82
197.30
219.08
238.63
254.53
267.28
278.31
297.30
331.28
380.54
438.35
495.62
545.44
584.45
612.24
630.25
651.47
686.16
736.94
798.74
864.37
928.40
986.94
1034.90
1006.20
865.24
623.57
336.35
64.76
-152.99
-306.09
-401.82
-453.44
-483.38
-496.09
-492.04
-474.69
-453.13
-436.93
-433.90
-443.59
-462.31
-485.53
-501.16
-501.24
-484.99
-458.37
-427.35
-396.83
-369.28
-346.62
-330.39
-315.95
-299.33
-279.62
-263.87
-252.65
-245.13
-237.09
-222.50
-195.62
-151.12
-90.19
-17.61
48.68
94.36
113.98
113.59
104.88
98.23
99.00
105.82
113.72
117.52
117.80
116.46
115.52
114.67
111.32
102.48
86.03
62.21
32.69
4.58
-18.26
-34.35
-44.62
-51.45
-57.01
-62.85
-69.02
-74.62
-77.56
-77.00
-73.08
-67.06
-60.88
-55.77
-52.73
-51.67
-51.80
-51.56
-50.12
-47.06
-42.60
-39.46
-36.64
-33.56
-29.72
-24.56
-17.70
-9.51
-0.77
6.96
12.14
14.13
12.61
7.70
0.18
-8.81
-18.08
-26.29
-32.93
-37.45
-38.91
-36.62
-30.61
-21.41
-10.15
1.41
11.51
17.25
16.13
6.86
-7.90
-26.12
-45.53
-63.83
-78.74
-82.16
-69.57
-40.79
0.15
46.84
92.76
133.21
165.40
188.17
201.74
206.65
203.10
191.79
173.65
149.46
119.25
82.62
39.04
-8.71
-57.84
-105.61
-149.00
-184.58
-208.58
-218.06
-212.32
-201.22
-189.17
-180.97
-179.86
-185.40
-193.85
-199.85
-199.11
-190.26
-163.37
-118.84
-63.56
-6.20
46.85
92.09
128.40
155.42
173.07
181.57
180.56
170.94
154.94
137.25
120.25
105.81
94.75
86.91
81.28
75.69
69.96
65.06
62.58
63.74
68.95
77.21
86.22
93.22
94.22
86.57
68.94
41.30
4.86
-37.30
-80.34
-115.31
-134.83
-136.22
-121.84
-98.57
-75.25
-58.72
-51.31
-50.90
-53.14
-54.82
-55.56
-56.46
-59.15
-64.26
-70.37
-74.69
-74.62
-68.90
-58.57
-46.20
-34.49
-23.53
-12.27
1.69
20.84
46.72
79.42
117.26
156.50
194.74
229.49
257.04
273.07
273.18
255.20
221.05
178.34
132.58
89.85
53.53
23.20
-3.52
-29.74
-57.15
-84.13
-108.86
-130.34
-147.89
-161.77
-174.75
-185.26
-191.30
-191.13
-183.49
-168.75
-149.16
-127.60
-107.34
-91.05
-79.55
-72.58
-69.07
-67.09
-64.92
-61.81
-57.68
-52.99
-48.12
-42.40
-32.90
-19.35
-2.22
17.46
37.73
56.08
69.81
76.47
74.65
63.45
43.97
16.90
-15.18
-48.10
-77.08
-98.24
-110.20
-114.30
-113.96
-115.37
-123.02
-137.44
-155.42
-172.78
-186.44
-195.27
-199.07
-198.41
-194.04
-186.10
-174.46
-159.27
-141.49
-122.36
-106.74
-97.63
-96.38
-102.82
-115.42
-131.95
-149.75
-166.99
-182.85
-197.14
-208.90
-216.60
-218.42
-212.61
-198.22
-173.51
-138.50
-95.36
-47.59
2.07
52.36
103.16
154.87
207.33
263.28
323.20
384.14
440.77
488.44
525.05
550.80
567.06
574.83
580.63
588.43
597.32
602.74
600.37
589.14
571.12
550.77
532.88
530.46
552.50
598.66
658.50
716.47
758.48
775.58
766.67
685.56
519.07
292.05
54.60
-149.84
-303.75
-410.18
-480.57
-525.06
-553.73
-566.78
-564.85
-552.13
-533.21
-512.60
-489.52
-460.70
-422.97
-380.23
-333.48
-284.79
-237.52
-194.08
-153.78
-112.82
-79.39
-46.32
-16.10
3.49
9.30
1.19
-18.37
-45.33
-74.68
-102.16
-122.48
-134.43
-136.13
-126.48
-108.08
-87.05
-71.06
-65.67
-76.67
-99.58
-125.42
-145.58
-156.95
-161.33
-160.27
-152.13
-133.00
-100.43
-55.28
-5.16
39.20
69.69
83.76
84.95
80.01
74.88
72.24
71.92
71.32
67.94
61.69
54.42
48.74
46.23
46.55
48.01
48.68
47.33
43.67
38.85
34.14
30.87
29.53
29.49
30.82
31.17
29.70
26.53
22.77
19.44
17.51
17.43
19.02
21.67
24.47
27.18
29.77
32.77
36.09
39.52
42.54
44.44
44.49
41.94
36.71
26.59
14.05
0.64
-12.54
-24.75
-35.50
-44.45
-51.58
-56.81
-60.18
-61.42
-60.89
-58.97
-56.06
-52.60
-49.03
-45.86
-43.33
-41.45
-39.76
-37.97
-35.87
-33.36
-30.58
-27.90
-25.76
-24.40
-23.81
-23.43
-22.89
-21.85
-20.28
-18.48
-16.99
-16.39
-16.76
-18.00
-19.62
-21.17
-22.26
-22.40
-20.49
-14.90
-4.31
11.02
28.49
43.29
50.29
46.51
32.66
12.74
-8.00
-25.54
-38.13
-45.68
-48.11
-44.47
-33.65
-15.86
5.23
23.79
34.08
33.27
22.72
7.05
-8.35
-20.04
-27.22
-31.28
-34.08
-36.81
-39.60
-42.07
-44.07
-45.76
-47.71
-50.55
-54.25
-58.20
-61.36
-62.30
-59.95
-53.82
-44.16
-31.77
-17.67
-2.75
12.13
26.66
40.83
54.31
66.58
76.68
83.61
86.72
85.93
82.72
77.79
72.47
67.79
64.22
61.33
58.30
54.41
49.43
43.80
38.48
34.72
33.19
33.86
35.59
36.92
36.85
35.10
32.46
30.35
30.29
32.50
38.10
47.25
59.38
72.70
83.73
87.85
80.81
61.04
31.00
-3.04
-33.61
-54.82
-64.63
-65.01
-60.14
-53.92
-48.24
-42.98
-37.12
-30.37
-23.56
-18.00
-14.61
-13.03
-11.83
-9.37
-4.42
3.15
12.24
21.23
28.59
33.33
35.41
35.36
33.92
31.50
28.08
23.15
16.18
7.31
-3.12
-14.10
-24.31
-32.63
-38.39
-41.59
-42.73
-42.77
-42.11
-41.12
-39.84
-38.21
-36.20
-34.02
-31.99
-30.50
-29.71
-29.35
-29.06
-28.37
-27.00
-25.14
-23.34
-22.32
-22.57
-24.10
-26.31
-28.31
-29.24
-28.74
-27.20
-25.67
-25.34
-27.07
-30.81
-35.60
-40.01
-42.82
-43.47
-42.42
-40.89
-40.24
-41.52
-45.27
-51.62
-60.04
-68.96
-75.36
-75.38
-65.55
-44.72
-15.24
17.49
46.98
68.30
79.86
83.47
82.52
79.95
76.87
72.84
67.31
60.83
55.31
52.87
54.53
59.28
64.56
67.63
66.62
61.66
54.64
48.22
44.64
45.19
49.98
57.90
66.48
71.89
69.63
55.97
29.78
-6.43
-46.79
-84.06
-112.42
-129.64
-137.16
-138.55
-137.60
-135.24
-130.70
-122.59
-110.26
-94.56
-77.34
-60.43
-44.65
-29.88
-15.39
-0.78
13.42
25.92
35.13
39.92
40.17
36.87
31.70
26.67
23.12
21.43
21.14
21.24
20.77
19.19
16.44
12.71
8.46
3.85
-1.37
-7.54
-14.94
-23.37
-32.21
-40.54
-47.57
-52.76
-55.97
-57.67
-58.20
-57.70
-55.73
-51.52
-43.54
-32.05
-18.00
-2.85
11.40
23.25
32.01
38.01
42.43
46.35
50.36
54.37
57.83
59.66
59.06
55.57
48.85
38.99
27.24
16.45
10.85
15.12
30.20
53.46
78.66
97.94
104.88
96.87
75.68
44.70
10.63
-22.47
-53.00
-80.72
-105.36
-125.81
-140.38
-147.80
-148.34
-142.54
-132.12
-118.67
-102.89
-84.66
-63.44
-38.97
-11.83
15.60
41.39
63.27
79.69
90.21
95.45
96.79
95.75
93.51
90.73
87.71
84.23
80.08
75.30
70.21
65.31
61.02
57.45
54.55
52.11
49.88
47.63
45.18
42.55
39.84
37.11
34.24
32.01
29.60
26.83
23.49
19.49
14.88
9.62
3.77
-2.70
-9.70
-17.24
-25.09
-32.98
-40.67
-47.83
-54.09
-59.17
-62.77
-64.78
-65.44
-64.85
-63.20
-61.01
-58.69
-56.72
-55.40
-54.92
-55.27
-56.62
-58.86
-61.71
-65.02
-68.65
-72.56
-76.29
-79.54
-82.21
-84.33
-85.99
-87.31
-88.66
-90.41
-93.01
-96.23
-99.94
-104.07
-108.65
-113.53
-118.68
-124.12
-129.80
-135.92
-141.89
-147.34
-152.12
-156.12
-159.01
-160.23
-158.86
-153.04
-146.62
-140.48
-134.88
-129.75
-124.87
-119.96
-114.82
-109.36
-103.66
-98.01
-91.87
-84.99
-77.30
-68.85
-59.75
-50.24
-40.66
-31.41
-23.04
-15.39
-8.45
-2.37
2.71
6.59
9.05
9.90
9.02
6.39
2.66
-1.44
-5.19
-7.98
-9.46
-9.61
-8.75
-7.32
-5.65
-3.54
-0.53
4.07
10.83
19.98
31.23
43.95
57.44
71.33
85.91
102.03
120.75
142.83
168.23
195.93
224.19
251.02
274.87
295.12
312.11
327.09
341.85
358.51
378.94
404.05
432.72
461.16
483.49
493.53
487.35
465.12
431.32
392.98
356.94
327.06
303.26
282.71
262.30
240.83
219.48
200.54
185.42
173.78
163.17
150.39
133.35
112.05
88.25
64.07
41.07
20.34
4.47
-3.58
-1.35
11.99
35.11
64.41
94.68
120.45
137.21
144.30
141.70
129.23
107.49
79.43
50.19
25.28
8.41
0.62
4.19
18.30
38.21
56.18
64.58
58.72
38.94
11.48
-12.59
-16.42
10.00
63.83
130.32
190.22
227.93
236.15
216.38
146.75
28.23
-115.47
-250.65
-354.60
-422.44
-459.63
-473.64
-470.90
-456.41
-430.11
-394.53
-355.88
-321.57
-295.72
-277.69
-263.63
-249.84
-233.87
-211.66
-182.69
-150.39
-119.99
-95.15
-76.72
-62.96
-52.78
-45.44
-38.64
-31.79
-26.25
-24.17
-26.51
-32.40
-39.73
-47.40
-54.38
-59.10
-61.30
-62.11
-63.40
-66.69
-72.73
-75.69
-75.65
-73.54
-69.89
-65.19
-59.95
-54.67
-49.64
-44.96
-40.66
-37.68
-36.12
-35.68
-35.91
-36.24
-36.03
-34.83
-32.61
-29.69
-27.42
-26.54
-27.22
-29.19
-31.66
-33.72
-34.64
-34.22
-32.93
-32.16
-32.97
-35.94
-40.86
-46.70
-52.32
-56.61
-58.93
-59.42
-59.04
-59.00
-60.76
-65.81
-74.99
-87.91
-101.83
-111.82
-112.37
-100.00
-75.13
-42.60
-10.44
15.38
31.53
38.88
41.67
45.27
53.91
69.41
91.15
116.49
141.20
159.77
166.65
158.09
133.83
98.02
58.41
24.62
4.37
2.03
16.75
42.87
71.70
94.83
106.55
105.43
94.00
77.56
61.84
51.22
48.14
52.97
64.32
78.65
90.78
94.09
85.22
64.83
38.25
13.34
-2.72
-6.53
0.16
12.39
23.98
30.58
30.12
22.56
8.98
-9.54
-31.80
-56.46
-81.70
-105.69
-126.16
-141.22
-149.45
-149.82
-141.90
-125.65
-101.94
-70.64
-36.06
-2.04
28.25
52.38
70.42
82.51
89.26
90.91
87.19
77.12
60.26
36.95
8.33
-23.75
-56.18
-84.06
-101.18
-101.85
-83.38
-47.62
-2.25
41.26
70.61
77.01
58.63
20.96
-25.82
-71.14
-107.30
-132.96
-148.09
-154.41
-153.54
-145.94
-131.52
-110.73
-85.23
-56.10
-27.50
-1.45
21.78
43.20
64.13
85.16
105.34
122.71
135.22
141.33
141.42
136.96
129.20
119.23
107.23
92.65
74.47
52.11
25.81
-2.36
-29.68
-53.16
-70.21
-79.45
-80.88
-75.57
-65.29
-52.17
-37.83
-24.01
-12.11
-3.06
2.57
5.14
5.93
7.14
11.21
21.46
37.89
58.77
80.97
100.37
114.23
120.85
120.04
112.76
100.16
82.78
60.63
34.26
4.67
-26.60
-57.54
-86.15
-110.80
-129.94
-141.76
-143.60
-132.58
-107.77
-71.39
-29.10
11.72
44.60
66.71
79.51
87.15
93.10
97.08
95.02
81.57
54.01
14.69
-29.13
-68.42
-96.23
-110.61
-114.63
-113.98
-113.55
-115.18
-117.89
-119.56
-119.03
-117.02
-115.67
-116.98
-121.26
-128.18
-133.55
-133.30
-124.90
-107.77
-83.16
-53.41
-20.99
12.19
45.79
78.31
108.48
134.88
155.89
170.17
176.70
175.29
166.85
153.19
136.50
118.80
101.40
84.90
69.45
55.01
41.68
29.79
19.55
11.10
4.32
-1.32
-6.52
-11.77
-17.21
-22.44
-26.78
-29.73
-31.00
-30.77
-29.56
-27.89
-25.94
-23.56
-20.15
-15.21
-9.11
-2.77
2.38
4.89
3.91
-0.46
-7.74
-16.99
-27.16
-37.57
-47.26
-54.74
-58.15
-55.69
-46.38
-31.02
-11.25
12.59
38.14
62.73
83.78
98.43
103.38
95.50
72.46
35.74
-8.48
-51.02
-82.45
-96.97
-95.05
-82.87
-66.06
-52.85
-49.36
-56.83
-72.45
-92.07
-113.31
-136.49
-162.23
-189.66
-217.02
-241.00
-258.51
-268.27
-270.89
-268.25
-263.01
-258.94
-254.25
-245.89
-229.72
-202.54
-163.26
-113.18
-55.57
4.35
62.62
113.56
152.70
179.46
195.34
202.71
203.66
205.50
207.31
206.99
202.95
194.60
184.41
175.54
171.52
175.83
191.03
216.83
251.29
290.51
320.09
330.33
314.77
272.49
208.58
133.10
57.43
-7.58
-54.85
-81.99
-88.07
-75.84
-50.09
-16.34
20.24
55.18
85.92
110.89
129.80
145.93
161.93
179.25
197.84
216.44
232.75
244.14
246.97
227.87
181.40
109.32
21.09
-69.94
-151.64
-216.50
-262.34
-292.35
-311.88
-321.81
-320.81
-306.34
-276.16
-229.13
-164.96
-84.17
9.63
110.86
211.67
299.73
360.85
384.28
367.44
317.83
258.30
200.62
151.61
114.49
88.14
68.90
52.72
35.03
14.10
-10.62
-40.51
-75.09
-112.63
-151.35
-189.93
-228.08
-266.92
-308.36
-353.95
-403.64
-452.10
-489.83
-506.21
-492.95
-447.36
-373.90
-283.42
-190.45
-109.70
-50.56
-15.76
-1.63
0.16
-0.95
2.99
15.27
33.63
52.55
68.01
78.92
86.55
92.39
96.98
99.47
98.54
93.71
85.54
75.91
66.24
56.98
48.22
41.15
38.70
44.68
61.85
89.70
123.96
157.58
183.73
198.58
202.34
198.12
189.61
181.67
173.19
162.86
150.08
135.16
118.89
101.90
83.60
62.72
36.18
5.17
-28.06
-60.65
-89.69
-112.94
-129.18
-139.06
-144.37
-147.07
-148.73
-150.00
-150.46
-148.91
-144.52
-135.41
-120.99
-101.41
-77.26
-49.21
-18.20
14.79
48.56
81.65
112.66
139.32
159.50
171.61
174.93
169.48
156.11
136.12
108.89
78.12
46.72
16.93
-9.69
-32.10
-49.78
-62.78
-71.71
-77.38
-80.35
-81.64
-81.88
-81.34
-79.82
-76.87
-72.21
-65.84
-58.05
-49.09
-40.19
-31.62
-23.33
-15.26
-7.28
0.38
6.72
10.60
11.13
7.89
1.53
-6.37
-13.80
-19.13
-22.05
-23.65
-25.79
-30.27
-37.77
-46.89
-54.70
-58.12
-54.37
-42.73
-24.37
-1.09
25.51
54.19
83.01
108.37
125.47
130.51
123.08
106.72
87.33
69.30
52.62
33.02
5.13
-33.05
-77.19
-118.17
-146.09
-155.53
-148.37
-132.32
-115.97
-103.59
-93.57
-80.24
-59.08
-30.57
-1.70
17.03
17.13
-3.21
-37.50
-74.82
-103.94
-117.02
-111.76
-89.91
-53.99
-6.09
51.18
114.40
176.66
228.82
262.97
275.42
267.39
243.79
210.67
168.86
123.25
77.30
33.27
-7.24
-43.03
-73.28
-97.68
-116.69
-131.48
-142.57
-151.16
-157.96
-162.71
-164.25
-161.68
-153.23
-138.14
-116.85
-90.12
-59.53
-26.54
8.20
43.60
78.67
112.47
143.82
171.75
195.87
215.07
227.06
228.28
215.04
185.75
142.79
92.45
43.26
3.06
-24.06
-38.40
-43.47
-43.36
-40.71
-36.34
-30.50
-24.07
-18.77
-16.43
-17.61
-21.29
-25.10
-26.79
-25.13
-21.04
-16.77
-15.44
-19.52
-30.61
-49.33
-74.98
-105.10
-134.80
-157.15
-165.96
-158.54
-138.40
-112.52
-90.02
-77.48
-75.57
-78.62
-77.78
-65.87
-40.53
-5.32
33.17
69.07
99.31
122.56
137.53
141.28
130.33
103.77
65.67
25.68
-4.24
-14.57
-2.96
24.75
56.26
78.55
83.86
73.02
54.63
39.96
37.67
47.82
64.57
79.33
85.33
80.70
68.38
53.20
37.73
22.94
7.04
-11.76
-33.24
-54.73
-72.52
-84.01
-88.70
-88.25
-85.56
-83.30
-82.20
-81.04
-77.38
-68.78
-53.92
-33.30
-9.03
15.92
38.40
56.26
68.44
74.85
75.92
72.16
63.23
50.48
35.17
18.52
1.87
-13.60
-27.07
-38.11
-46.50
-51.86
-53.50
-50.79
-43.40
-31.56
-16.46
-0.05
15.48
28.30
37.54
43.52
47.32
50.19
53.45
58.38
65.88
75.74
85.91
92.56
89.98
75.18
48.62
14.99
-18.18
-43.49
-56.83
-58.80
-53.40
-45.72
-39.27
-35.08
-32.22
-29.42
-26.17
-23.29
-22.11
-23.38
-26.85
-31.13
-34.40
-35.06
-32.22
-26.10
-17.89
-9.59
-2.71
1.80
4.10
5.03
5.48
5.68
4.81
1.65
-4.59
-13.47
-23.71
-34.01
-44.06
-54.54
-66.36
-79.34
-91.87
-101.21
-104.65
-101.10
-91.49
-79.98
-70.37
-64.19
-58.92
-50.07
-33.47
-7.83
24.11
55.99
80.57
92.73
91.63
80.25
63.63
46.38
31.03
18.36
7.84
-0.63
-6.14
-7.30
-3.62
3.71
12.09
18.57
21.40
20.18
16.29
12.00
9.22
8.67
9.92
12.12
14.70
18.44
23.99
31.79
41.89
54.29
68.49
83.59
97.57
103.20
96.54
74.74
38.02
-9.04
-58.33
-101.81
-133.70
-151.42
-154.69
-143.52
-118.51
-81.26
-35.71
12.47
55.66
87.01
103.22
105.45
98.23
86.11
72.09
54.38
34.63
13.27
-9.03
-30.99
-51.11
-68.04
-81.23
-90.89
-96.81
-99.16
-98.67
-95.94
-91.49
-85.87
-79.71
-73.99
-69.92
-68.04
-68.33
-70.98
-75.71
-81.70
-87.72
-92.51
-95.20
-95.64
-93.55
-89.44
-84.65
-80.23
-76.25
-71.57
-64.01
-50.73
-33.79
-13.64
8.27
29.64
48.74
65.33
80.73
96.93
115.58
137.20
162.82
191.40
220.40
247.20
270.02
287.57
298.72
302.37
298.14
289.07
277.55
264.49
249.67
232.47
212.52
190.67
170.11
156.73
159.27
180.86
215.54
249.68
267.28
255.78
210.58
136.58
33.03
-82.47
-184.08
-253.53
-289.43
-301.50
-300.39
-292.06
-278.30
-259.09
-232.96
-201.85
-170.43
-143.36
-122.44
-107.21
-94.92
-83.83
-74.14
-66.11
-61.25
-61.04
-64.28
-65.30
-57.34
-37.11
-7.35
24.23
50.18
66.34
73.01
74.17
74.38
74.30
70.19
56.97
30.03
-9.28
-53.77
-94.61
-125.18
-142.97
-149.44
-147.31
-138.25
-119.95
-96.30
-73.80
-60.64
-64.22
-85.54
-121.36
-165.08
-209.73
-251.93
-290.64
-324.54
-350.52
-363.16
-356.65
-328.53
-281.15
-216.94
-146.62
-82.94
-36.02
-10.88
-6.65
-17.70
-36.07
-53.44
-63.14
-62.01
-49.13
-24.83
9.35
50.81
95.52
137.61
170.88
190.68
195.50
188.98
178.87
173.77
180.12
200.26
232.91
275.28
324.50
377.36
430.15
477.62
513.43
532.09
531.29
513.33
484.31
451.54
420.34
392.72
367.51
342.14
314.71
285.37
256.32
230.65
210.81
197.59
189.82
184.84
179.37
170.18
154.51
130.23
95.68
49.98
-6.87
-73.61
-147.75
-225.91
-304.65
-381.15
-453.41
-519.41
-575.70
-616.56
-634.94
-625.12
-586.21
-523.98
-449.84
-376.94
-315.48
-269.41
-236.65
-211.64
-188.72
-164.10
-136.27
-105.28
-72.49
-40.85
-14.74
1.02
3.60
-5.71
-21.35
-35.58
-42.04
-38.39
-26.55
-10.74
5.27
19.86
33.51
47.20
61.02
73.75
83.57
89.16
90.76
90.28
90.41
93.27
99.30
107.16
114.57
119.55
121.04
119.54
116.79
115.00
115.91
120.20
127.58
137.10
147.62
157.29
164.51
168.31
168.54
165.70
160.53
153.89
146.78
140.18
133.34
125.87
118.71
113.99
113.66
118.24
126.68
137.07
147.50
152.85
149.48
136.94
117.89
95.68
72.23
47.99
23.08
-1.95
-31.91
-70.34
-116.88
-167.15
-216.14
-261.27
-302.63
-341.60
-379.78
-426.06
-487.27
-563.77
-648.75
-732.90
-809.18
-874.21
-927.39
-921.81
-830.15
-660.19
-453.93
-257.09
-94.86
28.63
120.08
188.68
242.00
277.30
291.20
284.91
266.02
244.37
227.65
219.49
220.46
229.06
236.85
236.44
225.18
205.88
183.32
160.92
140.37
123.36
112.72
108.09
108.73
113.75
121.78
128.94
130.88
125.02
112.17
96.03
78.91
62.08
46.01
31.87
20.23
12.12
7.94
7.15
8.38
8.97
6.77
1.11
-6.68
-14.12
-18.23
-16.86
-9.55
2.34
15.16
24.27
25.84
18.74
5.33
-8.91
-17.30
-16.86
-5.57
15.03
40.47
65.13
84.23
94.79
95.68
86.73
68.22
41.60
9.41
-24.01
-53.05
-72.13
-77.59
-68.83
-48.30
-20.46
10.30
40.65
69.20
96.29
123.18
150.81
178.90
205.61
227.71
241.63
244.34
234.41
212.54
181.37
144.66
106.19
69.05
35.10
5.38
-19.53
-39.20
-53.22
-61.46
-64.36
-62.97
-58.73
-53.37
-48.19
-43.81
-40.11
-36.47
-32.02
-25.97
-17.85
-7.71
3.06
12.60
19.19
21.60
19.21
12.09
1.11
-11.97
-24.86
-36.40
-45.54
-51.15
-52.19
-48.44
-40.68
-30.37
-18.96
-7.58
0.98
4.71
3.16
-2.48
-10.81
-21.03
-33.18
-47.64
-64.75
-87.03
-115.63
-149.04
-183.10
-213.43
-237.04
-253.50
-264.43
-256.46
-223.53
-170.33
-110.20
-54.76
-8.09
31.72
67.62
101.24
132.57
158.27
176.06
185.69
191.13
195.60
199.99
202.30
199.45
188.56
166.04
130.44
82.88
26.33
-37.35
-104.01
-171.19
-237.08
-300.32
-361.32
-420.61
-477.67
-529.71
-571.51
-595.82
-595.65
-566.33
-508.04
-427.22
-334.59
-241.87
-158.34
-89.34
-35.93
3.33
31.34
51.38
66.72
80.69
96.44
116.16
140.33
167.63
195.45
221.46
244.99
267.61
292.25
321.34
354.78
388.57
415.43
426.64
415.13
378.18
318.90
246.14
172.53
111.56
73.74
63.66
78.36
108.10
139.57
160.41
163.38
148.40
121.67
92.40
68.99
56.49
56.08
66.04
83.21
103.83
123.61
137.79
141.78
132.49
109.63
76.37
38.61
3.02
-25.16
-43.61
-53.16
-56.75
-58.00
-59.72
-63.27
-68.21
-73.12
-76.38
-76.88
-74.52
-70.24
-65.54
-61.98
-60.41
-60.61
-61.66
-62.68
-63.25
-63.70
-64.97
-68.25
-74.52
-84.15
-96.45
-110.08
-123.37
-134.72
-142.76
-146.69
-146.57
-143.33
-138.63
-133.52
-129.12
-126.55
-126.47
-128.37
-130.30
-129.39
-122.78
-108.43
-83.99
-49.16
-6.16
40.70
86.39
125.99
155.23
171.14
173.07
166.08
156.83
151.15
151.96
160.03
174.02
191.15
208.28
223.28
239.22
259.30
284.20
310.81
335.19
353.96
365.87
372.18
353.73
303.14
226.51
138.35
49.38
-34.24
-107.49
-164.16
-199.27
-213.01
-208.79
-195.43
-183.58
-183.82
-197.75
-221.80
-250.46
-279.24
-305.69
-325.32
-334.15
-320.77
-284.28
-228.15
-159.65
-88.81
-26.55
18.42
44.00
53.19
51.84
44.23
34.13
23.20
11.81
0.38
-9.79
-15.81
-15.72
-9.97
-2.52
3.28
5.73
5.56
4.98
6.09
9.83
15.27
20.35
22.44
20.98
17.74
15.70
17.59
24.64
35.97
48.83
59.88
65.59
64.18
55.29
39.96
20.58
1.06
-13.22
-17.39
-9.72
5.98
21.86
28.55
20.04
-3.24
-34.06
-61.37
-75.83
-72.16
-54.41
-30.38
-8.66
8.27
20.23
27.93
31.75
30.57
23.13
9.01
-9.22
-27.20
-39.72
-41.11
-31.17
-12.26
10.83
33.27
50.42
61.90
68.35
71.55
73.02
73.22
72.07
68.19
60.74
49.61
36.06
21.62
7.88
-4.51
-16.51
-25.06
-32.15
-39.90
-49.35
-59.65
-69.02
-75.40
-77.47
-75.52
-70.93
-66.60
-64.42
-65.00
-67.33
-69.45
-69.46
-66.19
-60.06
-52.53
-46.26
-43.16
-44.20
-49.24
-56.99
-64.79
-68.61
-64.07
-47.94
-20.38
15.03
51.74
82.80
103.54
113.34
115.41
114.72
115.52
119.08
123.43
124.30
117.12
99.16
71.03
36.69
2.06
-27.17
-47.85
-60.29
-67.32
-72.19
-76.61
-79.89
-80.38
-76.94
-70.56
-64.15
-61.04
-63.24
-70.67
-82.00
-94.32
-104.65
-110.03
-107.69
-95.76
-74.29
-46.06
-16.11
9.85
27.71
36.22
37.18
33.81
28.79
23.17
16.55
8.29
-1.33
-10.81
-18.39
-23.04
-25.26
-26.92
-30.20
-36.67
-46.46
-58.29
-69.87
-78.87
-83.56
-82.96
-77.21
-67.16
-53.83
-37.99
-20.01
0.09
21.95
45.03
68.28
90.01
108.20
121.07
127.64
128.19
124.67
119.03
113.60
110.03
108.61
108.35
107.49
104.47
98.76
91.39
84.17
79.10
77.36
78.48
80.96
83.35
84.99
85.89
85.56
82.24
73.86
59.90
42.96
28.40
21.47
23.72
31.15
35.92
30.70
13.25
-12.07
-36.93
-53.66
-59.32
-56.39
-50.10
-44.70
-41.16
-37.52
-31.29
-21.79
-10.44
0.19
7.94
12.44
14.86
16.94
19.66
22.52
23.58
20.40
11.23
-4.08
-23.82
-44.96
-64.51
-80.49
-92.31
-100.68
-107.16
-113.57
-121.38
-131.16
-140.96
-147.20
-145.41
-131.99
-106.37
-72.05
-35.74
-4.91
15.20
23.76
23.45
18.85
13.99
10.65
8.34
5.57
1.24
-4.68
-11.03
-16.81
-21.63
-25.45
-28.47
-30.81
-31.93
-30.72
-26.17
-17.41
-4.38
11.99
30.67
50.80
72.24
94.90
117.80
137.19
148.56
148.04
132.54
103.18
64.93
25.07
-9.16
-32.44
-42.23
-38.40
-23.25
-1.11
22.45
41.04
49.86
46.98
33.99
15.11
-4.61
-21.45
-34.01
-42.18
-46.80
-48.65
-48.45
-47.07
-45.72
-45.64
-47.62
-51.94
-57.72
-63.56
-67.99
-69.97
-69.11
-65.50
-59.58
-51.81
-42.49
-31.66
-19.35
-5.88
7.99
20.97
31.53
38.28
40.49
38.27
32.72
25.47
18.30
12.58
8.98
7.36
7.06
7.36
7.96
9.06
11.20
14.86
20.11
26.40
32.58
37.44
40.19
40.93
40.67
40.90
42.81
46.66
51.50
55.44
56.69
54.14
48.10
40.24
32.95
28.55
28.80
34.58
45.60
59.93
73.52
80.82
76.40
57.49
25.83
-11.95
-46.48
-69.17
-75.61
-67.19
-49.89
-31.18
-16.83
-9.09
-7.10
-8.49
-11.94
-16.63
-22.36
-28.77
-34.83
-38.93
-39.45
-35.75
-28.59
-19.75
-11.06
-3.71
2.18
7.25
12.33
17.70
22.77
26.28
26.79
23.34
15.50
3.78
-10.56
-25.73
-39.91
-51.83
-61.20
-68.58
-74.91
-80.98
-87.03
-92.82
-97.99
-102.43
-106.40
-110.33
-114.49
-118.69
-122.32
-124.57
-124.85
-123.11
-120.10
-117.33
-116.65
-119.60
-126.69
-136.79
-147.02
-153.34
-151.68
-139.27
-115.54
-82.32
-43.29
-2.61
36.42
72.59
106.72
140.37
174.13
206.26
232.84
248.92
250.83
238.15
214.07
184.20
154.83
131.20
116.54
111.72
114.85
120.90
121.73
107.75
71.37
10.99
-66.70
-148.06
-217.05
-260.97
-274.49
-260.07
-225.03
-177.39
-123.00
-65.11
-6.15
50.76
101.67
142.95
172.92
192.55
205.06
214.10
222.20
230.24
237.65
242.71
243.22
236.88
221.88
197.47
164.52
125.79
85.40
47.75
16.23
-7.54
-23.47
-32.20
-34.28
-30.03
-20.07
-6.09
9.07
22.39
32.19
39.27
46.85
59.01
78.63
105.89
137.91
169.46
194.70
208.70
208.79
195.49
172.65
146.49
123.58
108.23
100.78
97.52
92.50
80.37
58.58
28.10
-7.58
-43.97
-77.13
-104.24
-123.68
-135.04
-139.09
-137.71
-133.42
-128.41
-123.84
-119.34
-113.02
-101.97
-83.58
-57.17
-24.77
9.01
38.87
60.92
74.15
80.14
81.14
78.05
69.66
53.65
28.58
-4.50
-42.38
-81.35
-119.06
-154.97
-188.95
-219.17
-241.37
-249.82
-240.01
-211.47
-168.68
-119.84
-74.08
-38.32
-15.43
-4.51
-2.68
-7.11
-16.46
-30.91
-50.87
-75.97
-104.09
-131.67
-154.56
-168.81
-171.63
-161.88
-140.14
-108.65
-71.47
-33.98
-2.04
19.31
27.31
22.21
7.28
-12.35
-31.55
-46.90
-57.45
-64.76
-71.91
-82.16
-97.97
-120.18
-147.96
-178.97
-210.12
-237.80
-258.78
-270.70
-272.60
-265.15
-250.38
-231.03
-209.67
-187.90
-165.71
-141.70
-113.94
-81.31
-44.52
-5.89
31.75
66.70
99.24
131.04
163.56
196.42
226.95
251.04
264.94
266.81
257.17
238.29
213.04
183.78
152.08
119.11
85.99
54.05
24.67
-0.94
-21.82
-37.05
-45.58
-46.32
-38.60
-22.92
-1.42
22.24
43.72
59.26
66.74
66.16
59.13
47.90
34.29
19.19
2.80
-14.47
-31.34
-45.57
-54.55
-56.37
-50.50
-38.02
-21.07
-2.06
17.12
35.38
52.35
68.01
82.25
94.77
104.95
112.11
115.68
115.38
111.29
103.89
93.92
82.22
69.74
57.35
45.89
36.09
28.50
23.38
20.57
19.55
19.45
19.49
19.24
18.97
19.59
22.09
26.93
33.48
40.17
45.21
47.67
47.95
47.67
48.69
51.86
56.30
59.60
58.93
52.36
39.92
23.59
6.54
-7.92
-17.44
-21.03
-18.99
-12.57
-3.27
7.60
19.20
31.23
43.79
57.13
71.39
86.37
101.28
114.83
125.46
131.56
132.09
127.20
118.66
109.40
102.41
99.05
97.90
95.06
85.17
63.51
27.99
-20.53
-78.97
-143.16
-208.28
-268.66
-316.75
-344.85
-347.01
-321.28
-270.72
-202.46
-125.25
-46.97
26.45
91.16
142.34
174.22
182.15
165.23
128.13
79.62
28.94
-18.07
-59.58
-98.68
-139.98
-185.78
-232.25
-271.20
-294.40
-298.14
-291.42
-279.58
-263.22
-239.36
-202.01
-151.01
-92.74
-38.43
0.35
16.75
12.97
-2.76
-19.88
-29.66
-28.27
-16.39
2.09
22.06
38.62
48.68
50.61
44.39
31.95
16.28
0.75
-12.26
-21.42
-25.59
-22.46
-8.41
19.01
59.19
106.90
154.10
192.63
217.77
229.69
232.46
232.31
234.06
239.97
250.10
263.94
280.88
300.43
321.28
332.31
323.55
288.89
230.28
157.62
83.61
17.53
-37.35
-82.31
-119.64
-148.20
-164.63
-165.80
-152.25
-129.55
-106.26
-89.76
-82.99
-83.96
-86.55
-85.17
-77.13
-63.11
-45.54
-26.55
-7.14
11.69
27.41
36.14
33.69
18.44
-6.80
-35.10
-58.11
-69.90
-69.52
-60.64
-48.87
-38.81
-31.87
-26.47
-19.97
-11.03
-0.80
7.82
12.15
11.61
8.04
5.28
6.01
10.96
18.53
25.39
28.31
25.91
18.91
9.46
-0.41
-9.72
-18.42
-26.61
-34.08
-39.94
-43.15
-43.51
-41.75
-38.92
-35.05
-28.70
-17.43
0.08
22.70
46.87
67.95
82.44
89.07
88.94
84.00
75.58
63.00
44.97
21.65
-4.08
-26.42
-38.51
-34.85
-13.48
22.83
65.34
102.52
123.65
122.64
100.27
63.72
24.06
-7.92
-23.45
-21.69
-9.13
3.44
5.71
-7.58
-35.75
-73.60
-114.10
-151.23
-183.89
-213.51
-241.54
-268.04
-291.59
-311.88
-331.04
-352.46
-364.54
-357.05
-323.18
-263.99
-188.07
-106.56
-31.28
27.78
65.31
81.99
81.27
68.61
49.49
27.92
9.89
1.78
9.48
36.70
82.77
140.03
196.91
241.98
261.63
253.42
224.56
186.64
150.41
121.57
99.71
81.43
63.03
42.93
23.08
6.09
-6.11
-11.52
-10.65
-5.41
1.75
8.56
13.85
18.70
24.90
33.95
47.39
65.31
86.72
109.95
132.90
153.02
167.82
174.73
167.08
142.57
103.26
55.79
8.85
-30.29
-58.49
-77.00
-89.84
-100.70
-109.89
-115.20
-113.25
-101.83
-81.52
-55.19
-26.45
1.49
26.75
49.00
68.22
84.30
96.63
103.58
102.67
91.07
66.81
30.74
-12.12
-53.72
-85.56
-101.98
-102.46
-91.73
-77.49
-67.07
-64.58
-69.93
-79.93
-90.24
-97.49
-100.42
-100.36
-101.32
-109.12
-129.52
-165.72
-215.99
-272.70
-324.10
-357.55
-363.33
-337.87
-284.98
-215.09
-142.72
-82.36
-43.94
-29.83
-34.19
-45.42
-50.68
-40.75
-13.20
27.47
72.01
110.11
133.40
137.28
121.20
88.15
43.57
-5.72
-52.64
-90.85
-115.32
-122.79
-111.99
-84.14
-43.23
4.71
53.11
96.60
132.31
160.08
181.52
198.53
212.39
223.08
229.83
231.56
227.32
216.54
199.38
177.28
152.93
130.06
112.50
103.07
102.80
110.81
124.77
141.69
158.79
173.92
185.82
193.73
197.17
195.73
189.19
177.78
162.22
143.55
122.57
99.66
74.75
48.04
20.64
-5.35
-27.50
-44.09
-55.01
-61.59
-65.59
-68.10
-69.11
-67.83
-63.60
-56.86
-49.03
-41.88
-36.39
-32.46
-29.50
-27.26
-26.24
-27.53
-31.81
-38.86
-47.40
-55.67
-62.20
-66.30
-67.95
-67.46
-65.14
-61.25
-56.20
-50.75
-45.87
-42.33
-40.36
-39.45
-38.67
-37.26
-34.92
-31.78
-28.34
-25.18
-22.67
-20.91
-19.66
-18.55
-17.31
-15.90
-14.51
-13.50
-13.13
-13.50
-14.45
-15.64
-16.73
-17.47
-17.80
-17.82
-17.71
-17.57
-17.32
-16.68
-15.28
-12.84
-9.24
-4.64
0.62
6.11
11.47
16.52
21.19
25.53
29.53
33.29
36.91
40.56
44.40
48.44
52.45
56.02
58.70
60.12
60.21
59.16
57.40
55.39
53.52
51.94
50.51
48.81
46.28
42.35
36.71
29.40
20.82
11.59
2.35
-6.36
-14.13
-20.59
-25.36
-28.20
-29.09
-28.43
-27.01
-25.73
-25.36
-26.21
-28.02
-30.17
-31.91
-32.67
-32.27
-30.91
-29.08
-27.33
-26.07
-25.50
-25.59
-26.17
-27.07
-28.22
-29.61
-31.18
-32.75
-34.03
-34.77
-34.86
-34.49
-34.07
-34.09
-34.92
-36.70
-39.33
-42.60
-46.23
-49.92
-53.40
-56.43
-58.91
-60.99
-63.04
-65.52
-68.80
-72.83
-77.14
-80.97
-83.64
-84.94
-85.35
-85.97
-88.07
-92.62
-99.79
-108.80
-117.94
-124.81
-126.70
-121.27
-107.14
-84.50
-55.17
-22.16
11.29
42.76
71.10
96.30
118.70
138.29
154.45
166.29
173.29
175.68
174.42
170.57
164.75
156.86
146.49
133.35
117.89
101.25
84.96
70.40
58.42
49.14
42.12
36.68
32.09
27.78
23.29
18.34
12.81
6.83
0.92
-4.15
-7.50
-8.48
-6.91
-3.23
1.73
7.03
11.91
15.95
18.99
20.92
21.54
20.56
17.75
13.09
6.85
-0.65
-9.11
-18.27
-27.80
-37.02
-44.92
-50.29
-52.24
-50.53
-45.86
-39.61
-33.35
-28.17
-24.39
-21.51
-18.59
-14.84
-10.06
-4.68
0.37
4.15
6.11
6.24
4.91
2.68
-0.07
-3.17
-6.55
-10.10
-13.53
-16.45
-18.53
-19.63
-19.86
-19.45
-18.67
-17.66
-16.42
-14.88
-13.00
-10.88
-8.71
-6.77
-5.32
-4.49
-4.26
-4.42
-4.63
-4.57
-4.04
-3.01
-1.64
-0.19
1.07
1.95
2.39
2.42
2.18
1.81
1.46
1.26
1.24
1.40
1.60
1.67
1.46
0.96
0.23
-0.66
-1.59
-2.54
-3.58
-4.85
-6.47
-8.55
-11.06
-13.94
-17.11
-20.48
-23.96
-27.34
-30.36
-32.62
-33.62
-32.93
-30.29
-25.69
-19.42
-12.05
-4.23
3.34
10.11
15.67
19.80
22.45
23.74
23.89
23.16
21.82
20.11
18.20
16.20
14.19
12.31
10.68
9.48
8.76
8.51
8.64
8.98
9.31
9.43
9.23
8.66
7.73
6.50
5.06
3.49
1.94
0.57
-0.46
-1.04
-1.17
-0.96
-0.63
-0.33
-0.19
-0.21
-0.31
-0.39
-0.38
-0.27
-0.10
0.02
-0.02
-0.32
-0.94
-1.86
-3.01
-4.24
-5.42
-6.44
-7.29
-7.98
-8.57
-9.04
-9.32
-9.27
-8.71
-7.51
-5.65
-3.24
-0.51
2.17
4.46
6.05
6.76
6.54
5.48
3.75
1.56
-0.90
-3.44
-5.83
-7.88
-9.41
-10.28
-10.45
-9.91
-8.76
-7.09
-5.01
-2.61
-0.01
2.69
5.37
7.88
10.12
12.03
13.61
14.89
15.86
16.43
16.49
15.89
14.61
12.75
10.55
8.34
6.40
4.87
3.73
2.83
1.96
0.99
-0.15
-1.32
-2.30
-2.83
-2.75
-2.07
-0.96
0.28
1.32
1.86
1.76
1.01
-0.30
-2.01
-3.99
-6.15
-8.47
-10.91
-13.48
-16.09
-18.56
-20.61
-22.00
-22.57
-22.35
-21.55
-20.44
-19.28
-18.36
-17.83
-17.80
-18.28
-19.22
-20.42
-21.53
-22.11
-21.73
-20.15
-17.38
-13.71
-9.58
-5.42
-1.54
1.94
5.02
7.70
9.97
11.86
13.42
14.77
16.08
17.47
18.85
20.05
20.78
20.87
20.33
19.28
17.98
16.66
15.46
14.36
13.33
12.34
11.46
10.80
10.43
10.37
10.47
10.52
10.34
9.79
8.87
7.65
6.26
4.82
3.43
2.19
1.16
0.35
-0.23
-0.62
-0.87
-1.01
-1.08
-1.09
-1.06
-1.01
-0.93
-0.77
-0.46
0.07
0.85
1.85
2.96
4.01
4.79
5.20
5.20
4.86
4.31
3.72
3.23
2.88
2.64
2.40
2.05
1.53
0.87
0.16
-0.43
-0.80
-0.94
-0.95
-0.98
-1.18
-1.60
-2.23
-2.97
-3.80
-4.68
-5.60
-6.50
-7.24
-7.62
-7.52
-6.94
-6.06
-5.16
-4.47
-4.12
-4.04
-4.08
-4.04
-3.82
-3.39
-2.80
-2.14
-1.48
-0.86
-0.26
0.34
0.96
1.59
2.18
2.68
3.07
3.39
3.70
4.11
4.69
5.47
6.43
7.51
8.61
9.65
10.58
11.33
11.83
12.02
11.83
11.26
10.31
9.03
7.46
5.65
3.66
1.59
-0.44
-2.26
-3.73
-4.75
-5.31
-5.51
-5.48
-5.33
-5.13
-4.89
-4.58
-4.16
-3.63
-2.97
-2.21
-1.40
-0.61
0.07
0.60
0.97
1.16
1.15
0.95
0.58
0.12
-0.25
-0.36
-0.09
0.51
1.23
1.78
1.95
1.67
1.08
0.46
0.04
-0.01
0.29
0.85
1.43
1.86
1.96
1.68
1.06
0.27
-0.49
-1.02
-1.28
-1.32
-1.25
-1.22
-1.27
-1.44
-1.70
-2.10
-2.66
-3.44
-4.41
-5.45
-6.36
-6.90
-6.90
-6.31
-5.23
-3.86
-2.45
-1.19
-0.20
0.49
0.94
1.24
1.48
1.72
1.98
2.20
2.33
2.31
2.12
1.77
1.34
0.96
0.71
0.67
0.87
1.25
1.70
2.10
2.33
2.33
2.11
1.76
1.38
1.04
0.80
0.65
0.60
0.59
0.60
0.54
0.35
-0.03
-0.65
-1.46
-2.37
-3.22
-3.89
-4.29
-4.39
-4.23
-3.84
-3.31
-2.65
-1.93
-1.16
-0.35
0.50
1.37
2.26
3.11
3.83
4.32
4.51
4.37
3.97
3.45
2.93
2.54
2.33
2.29
2.36
2.47
2.54
2.55
2.51
2.49
2.56
2.75
3.02
3.23
3.26
2.97
2.34
1.42
0.33
-0.76
-1.72
-2.40
-2.78
-2.88
-2.85
-2.88
-3.14
-3.71
-4.55
-5.49
-6.32
-6.85
-6.98
-6.69
-6.03
-5.11
-4.04
-2.96
-2.01
-1.28
-0.82
-0.59
-0.54
-0.69
-1.14
-2.09
-3.72
-6.18
-9.49
-13.53
-18.03
-22.62
-26.87
-30.27
-32.35
-32.70
-31.09
-27.55
-22.34
-15.94
-8.93
-1.88
4.68
10.32
14.71
17.68
19.26
19.67
19.26
18.41
17.41
16.40
15.36
14.25
13.07
11.88
10.78
9.77
8.83
7.94
7.11
6.45
6.07
6.07
6.41
6.95
7.47
7.82
7.94
7.88
7.73
7.57
7.42
7.28
7.07
6.77
6.36
5.87
5.36
4.89
4.52
4.27
4.16
4.17
4.31
4.59
5.00
5.46
5.86
6.08
5.99
5.56
4.78
3.70
2.39
0.91
-0.66
-2.25
-3.74
-5.05
-6.11
-6.96
-7.69
-8.40
-9.19
-10.08
-11.05
-12.03
-12.89
-13.50
-13.73
-13.48
-12.66
-11.29
-9.41
-7.16
-4.70
-2.21
0.13
2.18
3.86
5.13
5.97
6.42
6.50
6.22
5.66
4.90
4.10
3.47
3.16
3.23
3.62
4.14
4.58
4.82
4.88
4.85
4.86
4.95
5.05
5.01
4.69
4.08
3.27
2.50
2.09
2.29
3.31
5.20
7.86
11.03
14.33
17.34
19.68
21.16
21.81
21.81
21.46
21.03
20.66
20.37
20.04
19.46
18.47
16.97
14.98
12.60
10.04
7.51
5.17
3.16
1.50
0.17
-0.92
-1.96
-3.16
-4.77
-6.87
-9.37
-11.98
-14.28
-15.88
-16.54
-16.23
-15.16
-13.68
-12.12
-10.79
-9.93
-9.70
-10.19
-11.34
-12.98
-14.76
-16.32
-17.37
-17.85
-17.89
-17.81
-17.91
-18.36
-19.13
-19.99
-20.66
-20.86
-20.49
-19.54
-18.07
-16.16
-13.88
-11.33
-8.61
-5.87
-3.22
-0.73
1.57
3.68
5.60
7.25
8.57
9.47
9.91
9.87
9.40
8.56
7.46
6.22
4.96
3.78
2.68
1.61
0.45
-0.93
-2.56
-4.42
-6.43
-8.44
-10.33
-11.98
-13.26
-14.03
-14.21
-13.80
-12.90
-11.67
-10.31
-9.00
-7.83
-6.87
-6.17
-5.74
-5.56
-5.50
-5.35
-4.83
-3.74
-2.02
0.22
2.76
5.31
7.70
9.80
11.57
12.98
14.02
14.71
15.12
15.34
15.43
15.44
15.37
15.19
14.88
14.45
13.94
13.41
12.88
12.39
11.89
11.38
10.82
10.19
9.46
8.63
7.69
6.67
5.57
4.40
3.17
1.89
0.57
-0.84
-2.33
-3.94
-5.65
-7.40
-9.12
-10.68
-11.91
-12.66
-12.79
-12.24
-11.06
-9.45
-7.65
-5.88
-4.34
-3.09
-2.13
-1.41
-0.91
-0.56
-0.29
-0.05
0.22
0.53
0.87
1.22
1.57
1.92
2.33
2.79
3.30
3.79
4.17
4.39
4.40
4.22
3.94
3.68
3.50
3.41
3.31
3.05
2.56
1.79
0.82
-0.28
-1.42
-2.57
-3.76
-4.97
-6.19
-7.34
-8.38
-9.25
-9.97
-10.52
-10.87
-10.99
-10.80
-10.24
-9.28
-7.93
-6.26
-4.38
-2.43
-0.56
1.13
2.55
3.69
4.58
5.33
6.00
6.68
7.34
7.94
8.34
8.45
8.19
7.55
6.63
5.57
4.56
3.70
3.09
2.69
2.45
2.29
2.16
2.05
1.94
1.83
1.66
1.41
1.08
0.75
0.49
0.37
0.38
0.45
0.49
0.41
0.15
-0.33
-1.02
-1.95
-3.07
-4.29
-5.44
-6.34
-6.81
-6.78
-6.24
-5.30
-4.08
-2.72
-1.29
0.15
1.60
3.06
4.47
5.75
6.75
7.34
7.50
7.30
6.90
6.48
6.12
5.83
5.54
5.20
4.81
4.44
4.18
4.07
4.03
3.97
3.77
3.41
2.95
2.51
2.13
1.81
1.48
1.04
0.47
-0.19
-0.88
-1.58
-2.32
-3.14
-4.13
-5.33
-6.80
-8.63
-10.94
-13.88
-17.59
-22.01
-26.87
-31.66
-35.72
-38.39
-39.18
-37.84
-34.45
-29.34
-23.02
-16.06
-8.96
-2.11
4.22
9.89
14.76
18.70
21.59
23.38
24.13
24.04
23.43
22.56
21.64
20.73
19.84
18.97
18.20
17.57
17.09
16.73
16.37
15.82
14.97
13.76
12.22
10.48
8.65
6.85
5.14
3.52
1.96
0.44
-1.05
-2.43
-3.60
-4.41
-4.81
-4.84
-4.68
-4.61
-4.83
-5.45
-6.42
-7.57
-8.65
-9.42
-9.72
-9.48
-8.75
-7.61
-6.23
-4.74
-3.30
-1.98
-0.89
-0.07
0.44
0.63
0.53
0.21
-0.24
-0.68
-0.99
-1.09
-0.93
-0.54
0.02
0.69
1.39
2.06
2.70
3.30
3.85
4.30
4.66
4.90
5.06
5.16
5.23
5.23
5.11
4.86
4.52
4.16
3.87
3.75
3.77
3.83
3.79
3.51
2.91
1.99
0.83
-0.47
-1.78
-3.00
-4.08
-4.98
-5.71
-6.31
-6.85
-7.38
-7.91
-8.41
-8.76
-8.82
-8.52
-7.83
-6.83
-5.66
-4.42
-3.20
-2.04
-0.93
0.10
1.04
1.86
2.52
3.03
3.39
3.62
3.72
3.73
3.66
3.58
3.56
3.61
3.69
3.74
3.67
3.48
3.19
2.86
2.54
2.21
1.86
1.48
1.11
0.82
0.67
0.65
0.68
0.70
0.66
0.61
0.63
0.76
0.92
0.91
0.50
-0.44
-1.82
-3.34
-4.62
-5.30
-5.25
-4.58
-3.56
-2.51
-1.58
-0.75
0.23
1.62
3.57
6.02
8.67
11.09
12.90
13.88
14.14
14.07
14.20
15.06
16.90
19.57
22.57
25.20
26.77
26.89
25.66
23.75
22.25
22.40
25.29
31.43
40.52
51.23
61.43
68.69
71.02
67.54
58.78
46.42
32.58
19.10
6.97
-3.62
-13.00
-21.51
-29.19
-35.85
-41.29
-45.60
-49.16
-52.38
-55.39
-57.87
-59.12
-58.27
-54.68
-48.24
-39.45
-29.22
-18.74
-9.11
-1.12
4.75
8.46
10.21
10.36
9.45
7.94
6.07
3.77
0.68
-3.59
-9.08
-15.37
-21.57
-26.65
-29.85
-30.98
-30.35
-28.55
-26.13
-23.31
-20.13
-16.53
-12.58
-8.61
-5.00
-2.06
0.11
1.52
2.36
2.72
2.61
2.09
1.08
-0.32
-1.90
-3.42
-4.67
-5.51
-5.94
-6.10
-6.11
-6.10
-6.10
-6.02
-5.70
-4.98
-3.82
-2.35
-0.90
0.16
0.57
0.31
-0.42
-1.26
-1.86
-2.04
-1.78
-1.20
-0.43
0.36
1.07
1.56
1.71
1.47
0.90
0.21
-0.31
-0.48
-0.30
0.03
0.20
-0.06
-0.80
-1.82
-2.76
-3.13
-2.45
-0.27
3.68
9.41
16.53
24.30
31.70
37.82
42.07
44.29
44.69
43.61
41.33
38.00
33.77
28.78
23.30
17.54
11.65
5.72
-0.15
-5.67
-10.41
-13.93
-15.97
-16.57
-16.10
-15.06
-13.88
-12.81
-11.89
-11.04
-10.22
-9.42
-8.69
-8.06
-7.51
-7.01
-6.58
-6.27
-6.19
-6.44
-7.08
-8.09
-9.36
-10.75
-12.12
-13.40
-14.52
-15.51
-16.36
-17.07
-17.65
-18.09
-18.42
-18.69
-18.96
-19.28
-19.63
-19.94
-20.03
-19.75
-18.94
-17.49
-15.40
-12.78
-9.77
-6.57
-3.40
-0.42
2.22
4.42
6.15
7.41
8.22
8.65
8.70
8.44
7.92
7.22
6.47
5.75
5.09
4.48
3.88
3.31
2.82
2.50
2.35
2.35
2.37
2.30
2.10
1.79
1.37
0.86
0.19
-0.71
-1.84
-3.14
-4.49
-5.75
-6.85
-7.79
-8.61
-9.34
-10.02
-10.64
-11.22
-11.82
-12.43
-13.03
-13.48
-13.58
-13.15
-12.12
-10.51
-8.49
-6.28
-4.13
-2.20
-0.59
0.69
1.67
2.42
3.00
3.43
3.76
4.02
4.24
4.46
4.72
5.02
5.35
5.67
5.96
6.18
6.34
6.40
6.32
6.08
5.75
5.38
5.05
4.74
4.43
4.06
3.59
3.02
2.45
1.96
1.55
1.17
0.74
0.18
-0.52
-1.29
-2.07
-2.79
-3.48
-4.20
-5.01
-5.95
-7.03
-8.21
-9.41
-10.54
-11.50
-12.20
-12.49
-12.22
-11.30
-9.71
-7.55
-5.02
-2.38
0.09
2.19
3.79
4.87
5.54
5.92
6.20
6.45
6.71
6.93
7.08
7.12
7.10
7.08
7.15
7.31
7.50
7.64
7.60
7.34
6.91
6.43
6.06
5.90
5.94
6.05
6.04
5.74
5.10
4.19
3.18
2.25
1.49
0.84
0.18
-0.64
-1.69
-2.94
-4.23
-5.39
-6.31
-7.01
-7.58
-8.16
-8.86
-9.71
-10.66
-11.58
-12.39
-13.02
-13.47
-13.70
-13.61
-13.09
-12.06
-10.51
-8.54
-6.28
-3.89
-1.45
1.01
3.45
5.74
7.73
9.18
9.95
10.01
9.51
8.73
7.99
7.54
7.46
7.71
8.16
8.66
9.10
9.40
9.44
9.09
8.23
6.81
4.91
2.66
0.29
-2.08
-4.39
-6.71
-9.09
-11.61
-14.27
-17.02
-19.81
-22.57
-25.32
-28.10
-31.00
-34.10
-37.46
-41.13
-45.08
-49.27
-53.66
-58.18
-62.66
-66.85
-70.43
-73.22
-75.31
-77.23
-79.65
-82.80
-85.92
-87.08
-83.92
-74.65
-59.21
-39.70
-19.54
-2.16
10.52
18.41
22.79
25.48
28.40
33.73
44.18
62.61
90.72
127.49
168.40
206.38
234.15
246.90
243.77
227.52
202.85
174.29
144.98
116.62
90.24
66.68
46.79
31.02
19.17
10.30
3.02
-3.95
-11.28
-18.88
-26.00
-31.66
-35.10
-36.13
-35.26
-33.49
-31.97
-31.45
-32.15
-33.63
-35.12
-35.87
-35.49
-34.07
-32.16
-30.43
-29.31
-28.79
-28.43
-27.57
-25.66
-22.57
-18.63
-14.52
-10.94
-8.39
-6.95
-6.38
-6.22
-6.04
-5.58
-4.85
-4.08
-3.62
-3.78
-4.78
-6.68
-9.43
-12.97
-17.26
-22.35
-28.24
-34.88
-42.12
-49.60
-56.85
-63.20
-67.82
-69.90
-68.82
-64.41
-57.11
-47.95
-38.25
-29.24
-21.72
-15.87
-11.39
-7.73
-4.41
-1.19
1.94
4.88
7.49
9.72
11.57
13.01
13.99
14.46
14.39
13.90
13.22
12.61
12.30
12.37
12.74
13.20
13.45
13.28
12.56
11.34
9.78
8.14
6.62
5.34
4.31
3.44
2.60
1.71
0.72
-0.33
-1.35
-2.26
-3.05
-3.77
-4.51
-5.40
-6.46
-7.65
-8.86
-10.02
-11.12
-12.28
-13.61
-15.21
-17.06
-19.04
-20.93
-22.51
-23.55
-23.85
-23.27
-21.76
-19.42
-16.51
-13.38
-10.38
-7.74
-5.52
-3.60
-1.83
-0.07
1.71
3.43
4.94
6.11
6.90
7.44
7.90
8.48
9.20
10.00
10.70
11.18
11.36
11.30
11.09
10.78
10.37
9.76
8.86
7.63
6.16
4.60
3.14
1.91
0.94
0.16
-0.57
-1.36
-2.30
-3.43
-4.75
-6.28
-7.97
-9.71
-11.30
-12.45
-12.87
-12.34
-10.78
-8.26
-5.04
-1.44
2.14
5.32
7.83
9.54
10.52
10.98
11.15
11.23
11.26
11.24
11.15
11.00
10.87
10.82
10.88
11.05
11.24
11.37
11.37
11.25
11.05
10.90
10.96
11.28
11.78
12.23
12.35
11.93
10.99
9.76
8.59
7.74
7.28
7.09
6.92
6.52
5.75
4.58
3.06
1.34
-0.37
-1.81
-2.67
-2.67
-1.70
0.18
2.71
5.49
8.08
10.11
11.39
11.98
12.06
11.93
11.84
11.91
12.09
12.30
12.45
12.59
12.81
13.23
13.85
14.59
15.29
15.85
16.25
16.50
16.65
16.68
16.49
16.03
15.27
14.26
13.07
11.79
10.48
9.19
8.00
6.98
6.17
5.53
4.94
4.24
3.34
2.21
0.90
-0.48
-1.85
-3.13
-4.31
-5.39
-6.43
-7.57
-8.91
-10.50
-12.22
-13.79
-14.80
-14.83
-13.67
-11.38
-8.24
-4.68
-1.13
2.14
4.94
7.21
8.94
10.15
10.92
11.36
11.63
11.84
12.06
12.29
12.51
12.70
12.91
13.16
13.49
13.83
14.08
14.12
13.92
13.53
13.06
12.63
12.29
12.03
11.77
11.45
11.04
10.55
10.00
9.41
8.82
8.20
7.56
6.89
6.19
5.45
4.66
3.79
2.80
1.67
0.41
-0.91
-2.23
-3.43
-4.51
-5.47
-6.42
-7.48
-8.68
-10.01
-11.33
-12.55
-13.68
-14.88
-16.38
-18.31
-20.55
-22.70
-24.17
-24.43
-23.29
-20.97
-18.05
-15.20
-12.93
-11.38
-10.39
-9.57
-8.65
-7.60
-6.70
-6.44
-7.22
-9.14
-11.89
-14.83
-17.20
-18.50
-18.72
-18.25
-17.77
-17.82
-18.67
-20.20
-21.86
-22.81
-21.99
-18.21
-10.40
1.94
18.29
36.85
54.82
69.15
77.52
79.10
74.73
66.41
56.33
46.19
36.76
28.20
20.46
13.76
8.68
5.84
5.47
7.00
9.16
10.39
9.54
6.51
2.41
-0.81
-1.23
2.11
8.64
16.57
23.66
28.20
29.58
28.24
25.12
21.05
16.44
11.49
6.53
2.24
-0.44
-0.73
1.59
6.01
11.39
16.45
20.12
21.81
21.47
19.44
16.39
13.09
10.36
8.78
8.56
9.39
10.56
11.23
10.79
9.12
6.55
3.66
0.91
-1.62
-4.18
-7.13
-10.65
-14.49
-18.11
-20.85
-22.23
-22.16
-20.91
-18.91
-16.49
-13.81
-10.98
-8.16
-5.59
-3.39
-1.48
0.30
2.14
4.10
6.09
7.83
9.07
9.75
10.13
10.67
11.50
12.48
13.36
14.01
14.36
14.49
14.53
14.66
14.97
14.63
12.82
9.43
5.39
2.15
0.89
2.16
5.86
11.49
16.68
19.39
19.14
17.35
16.09
16.67
19.28
23.39
28.26
30.57
27.47
18.30
5.25
-8.41
-20.28
-29.48
-36.45
-42.70
-53.98
-76.10
-111.86
-159.59
-215.06
-274.09
-333.73
-392.21
-426.25
-417.87
-365.28
-285.62
-200.59
-123.83
-59.95
-8.78
31.41
62.88
84.50
95.60
97.89
95.91
94.43
96.04
100.90
107.88
115.89
121.20
121.62
116.60
107.86
97.47
86.24
73.80
59.42
43.30
23.60
-0.98
-29.44
-57.03
-76.52
-81.07
-67.09
-36.16
5.10
46.13
77.37
93.73
96.01
89.14
78.85
69.03
60.95
54.69
49.58
45.93
44.47
44.99
45.88
43.82
35.54
19.59
-1.81
-23.34
-38.67
-43.58
-38.01
-25.82
-12.72
-3.24
1.13
1.85
1.59
2.26
3.99
5.67
6.27
5.68
4.98
5.52
7.78
10.91
13.45
14.09
12.25
8.58
4.12
0.13
-2.62
-4.06
-4.76
-5.70
-7.77
-11.32
-15.97
-20.80
-24.78
-27.21
-27.98
-27.51
-26.53
-25.71
-25.47
-25.86
-26.65
-27.49
-28.08
-28.20
-27.65
-26.24
-23.76
-20.09
-15.31
-9.75
-3.95
1.50
6.17
9.85
12.56
14.49
15.84
16.78
17.45
17.94
18.34
18.72
19.12
19.49
19.75
19.82
19.67
19.31
18.82
18.29
17.80
17.34
16.85
16.25
15.45
14.46
13.31
12.11
10.93
9.79
8.64
7.41
6.05
4.54
2.89
1.18
-0.55
-2.26
-3.92
-5.55
-7.25
-9.13
-11.35
-13.96
-16.84
-19.67
-21.93
-23.08
-22.73
-20.73
-17.21
-12.58
-7.33
-1.96
3.11
7.53
11.08
13.66
15.30
16.21
16.61
16.78
16.88
16.98
17.04
17.03
17.01
17.04
17.18
17.42
17.64
17.70
17.50
17.05
16.46
15.86
15.29
14.73
14.06
13.17
11.97
10.42
8.54
6.40
4.07
1.64
-0.77
-3.02
-4.98
-6.59
-7.88
-8.99
-10.11
-11.44
-13.10
-15.09
-17.19
-19.03
-20.07
-19.87
-18.19
-15.11
-11.06
-6.63
-2.41
1.19
4.05
6.26
8.00
9.40
10.53
11.40
12.02
12.48
12.88
13.33
13.84
14.39
14.90
15.27
15.47
15.50
15.37
15.10
14.71
14.22
13.66
13.10
12.53
11.96
11.30
10.52
9.59
8.55
7.49
6.45
5.40
4.26
2.88
1.21
-0.69
-2.73
-4.77
-6.72
-8.52
-10.14
-11.54
-12.68
-13.59
-14.40
-15.32
-16.60
-18.36
-20.56
-22.88
-24.84
-25.89
-25.63
-23.89
-20.80
-16.77
-12.28
-7.82
-3.70
-0.07
3.02
5.58
7.62
9.15
10.23
10.98
11.55
12.07
12.61
13.13
13.54
13.72
13.63
13.29
12.85
12.47
12.33
12.51
12.96
13.52
14.00
14.21
14.07
13.54
12.67
11.48
9.99
8.22
6.25
4.22
2.26
0.52
-0.98
-2.32
-3.59
-4.87
-6.19
-7.51
-8.77
-9.95
-11.04
-12.06
-13.09
-14.20
-15.48
-17.03
-18.87
-20.90
-22.88
-24.42
-25.08
-24.49
-22.51
-19.24
-15.06
-10.49
-6.10
-2.34
0.54
2.48
3.64
4.27
4.62
4.86
5.09
5.35
5.64
5.94
6.24
6.47
6.57
6.48
6.21
5.84
5.49
5.28
5.24
5.34
5.52
5.76
6.06
6.37
6.59
6.53
6.05
5.15
3.98
2.79
1.80
1.06
0.46
-0.21
-1.13
-2.41
-4.00
-5.86
-7.95
-10.27
-12.83
-15.55
-18.20
-20.44
-21.86
-22.10
-21.00
-18.64
-15.28
-11.37
-7.37
-3.68
-0.57
1.84
3.58
4.71
5.38
5.71
5.83
5.85
5.90
6.09
6.53
7.29
8.31
9.42
10.39
10.98
11.09
10.74
10.10
9.38
8.77
8.34
8.01
7.65
7.07
6.21
5.11
3.89
2.70
1.64
0.68
-0.29
-1.41
-2.77
-4.33
-5.99
-7.64
-9.18
-10.59
-11.89
-13.09
-14.17
-15.13
-16.02
-16.93
-18.03
-19.43
-21.11
-22.80
-24.08
-24.45
-23.54
-21.25
-17.84
-13.79
-9.64
-5.81
-2.51
0.25
2.53
4.44
5.99
7.20
8.10
8.74
9.19
9.46
9.53
9.35
8.97
8.50
8.12
7.96
8.08
8.39
8.76
9.06
9.21
9.25
9.22
9.10
8.81
8.21
7.21
5.85
4.27
2.70
1.29
0.08
-0.99
-2.10
-3.38
-4.85
-6.43
-7.99
-9.38
-10.59
-11.69
-12.82
-14.10
-15.60
-17.29
-19.08
-20.80
-22.23
-23.07
-23.02
-21.82
-19.41
-15.92
-11.73
-7.31
-3.12
0.56
3.63
6.10
8.06
9.56
10.66
11.41
11.92
12.34
12.76
13.21
13.62
13.87
13.89
13.66
13.27
12.81
12.41
12.16
12.10
12.22
12.46
12.72
12.84
12.66
12.06
11.02
9.60
7.99
6.34
4.80
3.44
2.18
0.88
-0.60
-2.35
-4.36
-6.42
-8.33
-9.87
-10.98
-11.75
-12.40
-13.19
-14.32
-15.92
-17.96
-20.25
-22.49
-24.26
-25.13
-24.72
-22.86
-19.68
-15.55
-11.03
-6.67
-2.90
0.11
2.36
4.01
5.24
6.20
6.98
7.59
8.04
8.34
8.50
8.53
8.48
8.38
8.28
8.22
8.23
8.30
8.43
8.57
8.69
8.77
8.76
8.60
8.22
7.57
6.63
5.41
3.94
2.28
0.46
-1.46
-3.38
-5.17
-6.73
-8.01
-9.08
-10.06
-11.11
-12.39
-13.94
-15.69
-17.41
-18.77
-19.37
-18.87
-17.09
-14.05
-10.08
-5.66
-1.33
2.49
5.56
7.89
9.60
10.83
11.68
12.16
12.32
12.21
11.98
11.82
11.84
12.07
12.45
12.82
13.07
13.14
13.04
12.82
12.56
12.27
11.92
11.46
10.81
9.92
8.82
7.57
6.26
5.00
3.82
2.71
1.53
0.16
-1.48
-3.37
-5.36
-7.28
-9.00
-10.49
-11.82
-13.16
-14.66
-16.40
-18.36
-20.39
-22.28
-23.81
-24.75
-24.89
-24.03
-22.07
-19.03
-15.10
-10.68
-6.26
-2.28
1.00
3.60
5.73
7.66
9.53
11.34
12.91
14.07
14.77
15.08
15.20
15.29
15.45
15.66
15.81
15.85
15.73
15.57
15.48
15.53
15.73
15.92
15.95
15.63
14.89
13.75
12.30
10.65
8.92
7.23
5.64
4.20
2.90
1.70
0.53
-0.65
-1.88
-3.19
-4.61
-6.16
-7.88
-9.78
-11.87
-14.10
-16.49
-19.01
-21.58
-24.03
-26.01
-27.04
-26.69
-24.72
-21.22
-16.60
-11.45
-6.39
-1.87
1.86
4.76
6.87
8.32
9.26
9.89
10.42
11.00
11.67
12.37
12.95
13.31
13.38
13.20
12.85
12.42
11.99
11.64
11.41
11.29
11.18
10.91
10.33
9.36
8.09
6.67
5.27
3.97
2.78
1.63
0.40
-0.95
-2.47
-4.15
-5.97
-7.83
-9.58
-11.05
-12.06
-12.53
-12.51
-12.24
-12.06
-12.37
-13.47
-15.48
-18.26
-21.44
-24.52
-26.99
-28.48
-28.80
-27.89
-25.74
-22.30
-17.41
-10.98
-3.11
5.77
14.90
23.39
30.46
35.69
39.03
40.76
41.23
40.71
39.32
37.14
34.23
30.69
26.73
22.62
18.67
15.17
12.34
10.27
8.86
7.87
7.02
6.16
5.21
4.19
3.12
1.97
0.76
-0.45
-1.50
-2.24
-2.64
-2.79
-2.81
-2.73
-2.39
-1.54
-0.04
1.88
3.64
4.41
3.45
0.37
-4.69
-11.10
-17.90
-24.09
-28.81
-31.49
-31.91
-30.20
-26.75
-22.12
-16.96
-11.90
-7.45
-3.93
-1.44
0.14
1.12
1.84
2.56
3.43
4.50
5.70
6.90
7.99
8.81
9.26
9.30
9.04
8.67
8.45
8.58
9.10
9.90
10.75
11.41
11.77
11.81
11.61
11.29
10.86
10.35
9.68
8.84
7.81
6.64
5.41
4.15
2.84
1.37
-0.35
-2.37
-4.67
-7.12
-9.55
-11.78
-13.71
-15.32
-16.73
-18.11
-19.61
-21.31
-23.10
-24.71
-25.76
-25.88
-24.77
-22.39
-18.87
-14.57
-9.95
-5.45
-1.44
1.86
4.40
6.26
7.61
8.65
9.50
10.25
10.91
11.46
11.85
12.05
12.05
11.89
11.63
11.35
11.13
11.04
11.11
11.31
11.62
11.96
12.25
12.45
12.49
12.33
11.94
11.29
10.42
9.39
8.29
7.18
6.13
5.13
4.16
3.14
2.00
0.67
-0.84
-2.46
-4.12
-5.73
-7.21
-8.54
-9.73
-10.81
-11.89
-13.18
-14.93
-17.34
-20.32
-23.42
-25.85
-26.79
-25.73
-22.69
-18.31
-13.55
-9.27
-5.96
-3.62
-1.96
-0.66
0.44
1.37
2.09
2.61
3.04
3.48
3.98
4.46
4.76
4.75
4.38
3.75
3.04
2.47
2.24
2.45
3.04
3.86
4.68
5.27
5.48
5.33
4.92
4.42
3.96
3.53
3.04
2.32
1.28
-0.05
-1.55
-3.03
-4.36
-5.56
-6.75
-8.16
-9.96
-12.25
-14.92
-17.72
-20.25
-22.09
-22.87
-22.35
-20.51
-17.50
-13.62
-9.25
-4.76
-0.52
3.21
6.23
8.50
10.08
11.12
11.78
12.21
12.44
12.47
12.28
11.90
11.42
10.93
10.47
10.06
9.67
9.30
9.02
8.95
9.20
9.71
10.33
10.77
10.71
9.97
8.56
6.67
4.61
2.65
0.99
-0.34
-1.45
-2.48
-3.54
-4.67
-5.84
-6.96
-8.02
-9.05
-10.18
-11.53
-13.19
-15.15
-17.31
-19.53
-21.67
-23.51
-24.80
-25.21
-24.44
-22.31
-18.88
-14.47
-9.56
-4.73
-0.40
3.14
5.84
7.75
8.99
9.71
10.01
10.00
9.74
9.31
8.79
8.30
7.93
7.76
7.85
8.21
8.79
9.51
10.25
10.87
11.28
11.42
11.29
10.93
10.40
9.75
8.98
8.05
6.90
5.52
3.91
2.17
0.37
-1.40
-3.10
-4.71
-6.21
-7.59
-8.88
-10.14
-11.49
-13.07
-14.99
-17.26
-19.80
-22.41
-24.78
-26.56
-27.40
-26.97
-25.11
-21.83
-17.42
-12.32
-7.12
-2.33
1.67
4.72
6.81
8.07
8.67
8.82
8.70
8.50
8.39
8.49
8.86
9.46
10.21
11.03
11.81
12.44
12.82
12.84
12.45
11.62
10.39
8.85
7.13
5.39
3.76
2.40
1.33
0.50
-0.27
-1.21
-2.56
-4.40
-6.68
-9.15
-11.58
-13.80
-15.72
-17.34
-18.65
-19.64
-20.22
-20.32
-19.82
-18.65
-16.76
-14.17
-11.03
-7.54
-3.97
-0.53
2.68
5.65
8.40
10.88
13.01
14.63
15.57
15.71
14.94
13.31
10.97
8.20
5.29
2.41
-0.49
-3.62
-7.21
-11.35
-15.87
-20.43
-24.70
-28.53
-31.96
-35.20
-38.37
-41.49
-44.52
-47.37
-49.97
-52.14
-53.57
-53.86
-52.75
-50.40
-47.66
-46.06
-47.50
-53.62
-65.13
-81.26
-99.72
-116.98
-129.03
-132.23
-124.22
-104.40
-74.11
-36.31
4.99
45.52
81.43
110.02
130.00
141.54
145.99
145.46
142.24
138.37
135.26
133.47
132.76
132.26
130.79
127.38
121.44
112.98
102.51
90.78
78.56
66.53
55.17
44.81
35.60
27.43
19.97
12.80
5.61
-1.59
-8.42
-14.27
-18.53
-20.93
-21.67
-21.32
-20.68
-20.43
-20.95
-22.21
-23.83
-25.24
-25.89
-25.43
-23.77
-21.07
-17.69
-13.98
-10.25
-6.73
-3.52
-0.68
1.73
3.66
5.06
5.95
6.42
6.68
6.90
7.22
7.65
8.07
8.32
8.26
7.95
7.56
7.30
7.31
7.54
7.79
7.79
7.31
6.33
4.96
3.40
1.82
0.34
-1.06
-2.45
-3.89
-5.42
-7.05
-8.74
-10.44
-12.09
-13.65
-15.14
-16.67
-18.37
-20.40
-22.74
-25.16
-27.19
-28.21
-27.68
-25.36
-21.39
-16.27
-10.70
-5.30
-0.53
3.43
6.59
9.06
11.00
12.53
13.79
14.92
16.04
17.21
18.40
19.51
20.39
20.93
21.14
21.08
20.92
20.77
20.69
20.61
20.45
20.10
19.53
18.78
17.97
17.16
16.35
15.45
14.32
12.89
11.18
9.30
7.36
5.46
3.60
1.76
-0.06
-1.84
-3.51
-5.08
-6.55
-7.98
-9.31
-10.38
-10.97
-10.96
-10.45
-9.80
-9.47
-9.87
-11.12
-13.04
-15.25
-17.31
-18.84
-19.55
-19.25
-17.81
-15.22
-11.63
-7.38
-2.96
1.15
4.60
7.25
9.19
10.59
11.62
12.38
12.90
13.20
13.31
13.29
13.15
12.91
12.50
11.94
11.29
10.71
10.40
10.52
11.09
11.97
12.87
13.48
13.52
12.90
11.67
10.08
8.46
7.06
6.02
5.30
4.71
4.02
3.06
1.76
0.21
-1.43
-2.96
-4.22
-5.16
-5.86
-6.47
-7.19
-8.11
-9.21
-10.32
-11.29
-12.07
-12.73
-13.48
-14.53
-15.98
-17.73
-19.54
-21.07
-22.00
-22.10
-21.23
-19.41
-16.75
-13.51
-10.04
-6.76
-4.05
-2.09
-0.77
0.33
1.77
4.04
7.22
11.01
14.82
18.02
20.25
21.49
21.95
21.87
21.32
20.24
18.53
16.24
13.65
11.12
8.99
7.34
6.09
5.04
4.05
3.06
2.13
1.30
0.58
-0.12
-0.91
-1.86
-2.94
-4.04
-5.02
-5.79
-6.39
-6.95
-7.64
-8.57
-9.70
-10.91
-12.04
-13.02
-13.94
-14.95
-16.18
-17.56
-18.93
-20.00
-20.54
-20.48
-19.83
-18.69
-17.09
-15.03
-12.53
-9.71
-6.85
-4.23
-2.09
-0.49
0.66
1.48
2.07
2.45
2.58
2.45
2.12
1.73
1.45
1.38
1.55
1.86
2.19
2.43
2.53
2.51
2.44
2.40
2.40
2.40
2.36
2.21
1.96
1.61
1.19
0.68
0.05
-0.69
-1.47
-2.19
-2.74
-3.10
-3.31
-3.48
-3.69
-3.98
-4.33
-4.67
-5.00
-5.36
-5.81
-6.39
-7.08
-7.82
-8.51
-9.12
-9.66
-10.19
-10.76
-11.40
-12.05
-12.60
-12.90
-12.84
-12.30
-11.28
-9.78
-7.92
-5.83
-3.72
-1.76
-0.10
1.15
1.96
2.31
2.28
1.94
1.41
0.77
0.12
-0.42
-0.80
-0.94
-0.84
-0.55
-0.13
0.32
0.76
1.17
1.51
1.73
1.82
1.74
1.55
1.33
1.18
1.12
1.11
1.02
0.72
0.17
-0.57
-1.35
-1.96
-2.31
-2.41
-2.39
-2.41
-2.60
-3.01
-3.60
-4.33
-5.14
-6.02
-6.95
-7.87
-8.73
-9.45
-10.02
-10.49
-10.97
-11.56
-12.29
-13.09
-13.77
-14.07
-13.73
-12.60
-10.73
-8.37
-5.94
-3.87
-2.41
-1.60
-1.21
-0.96
-0.63
-0.17
0.32
0.67
0.77
0.57
0.09
-0.65
-1.59
-2.64
-3.65
-4.40
-4.67
-4.33
-3.43
-2.12
-0.68
0.62
1.53
1.92
1.77
1.22
0.61
0.38
1.00
2.70
5.36
8.48
11.34
13.25
13.76
12.78
10.45
7.12
3.15
-1.15
-5.44
-9.42
-12.75
-15.24
-16.84
-17.75
-18.27
-18.66
-19.03
-19.25
-19.05
-18.16
-16.43
-13.97
-11.06
-8.12
-5.50
-3.40
-1.82
-0.65
0.29
1.10
1.82
2.38
2.70
2.71
2.43
1.91
1.26
0.58
-0.01
-0.43
-0.65
-0.62
-0.37
0.09
0.71
1.41
2.07
2.58
2.85
2.85
2.65
2.36
2.07
1.86
1.65
1.32
0.73
-0.27
-1.65
-3.30
-4.99
-6.52
-7.76
-8.76
-9.67
-10.71
-11.98
-13.49
-15.10
-16.60
-17.75
-18.36
-18.24
-17.26
-15.39
-12.80
-9.79
-6.76
-4.01
-1.70
0.23
1.89
3.37
4.66
5.67
6.33
6.63
6.63
6.45
6.20
5.98
5.92
6.12
6.65
7.45
8.39
9.24
9.86
10.17
10.21
10.04
9.68
9.11
8.29
7.27
6.17
5.15
4.36
3.79
3.33
2.75
1.85
0.50
-1.24
-3.23
-5.24
-7.10
-8.68
-10.03
-11.25
-12.52
-14.02
-15.83
-17.93
-20.15
-22.18
-23.59
-24.00
-23.14
-20.99
-17.78
-13.86
-9.69
-5.64
-1.99
1.08
3.47
5.22
6.46
7.36
8.10
8.81
9.48
10.02
10.37
10.53
10.65
10.94
11.54
12.51
13.74
15.03
16.13
16.83
17.02
16.72
16.02
15.09
14.08
13.08
12.14
11.27
10.47
9.68
8.85
7.88
6.65
5.06
3.09
0.83
-1.56
-3.87
-5.96
-7.77
-9.35
-10.83
-12.34
-14.01
-15.89
-17.98
-20.18
-22.29
-24.01
-24.99
-24.86
-23.38
-20.48
-16.33
-11.34
-6.06
-1.03
3.29
6.68
9.14
10.88
12.18
13.29
14.34
15.33
16.16
16.74
17.06
17.22
17.34
17.53
17.86
18.26
18.63
18.91
19.04
19.08
19.07
19.02
18.85
18.45
17.70
16.58
15.18
13.65
12.16
10.79
9.54
8.32
7.03
5.58
3.96
2.20
0.34
-1.51
-3.31
-5.00
-6.60
-8.16
-9.81
-11.64
-13.74
-16.10
-18.64
-21.18
-23.43
-25.02
-25.55
-24.67
-22.18
-18.17
-13.05
-7.44
-2.06
2.54
6.10
8.68
10.58
12.13
13.56
14.89
15.99
16.71
16.96
16.84
16.54
16.29
16.27
16.54
17.02
17.55
17.96
18.15
18.14
17.99
17.77
17.48
17.07
16.43
15.51
14.32
12.96
11.57
10.26
9.06
7.90
6.65
5.17
3.38
1.32
-0.87
-3.00
-4.91
-6.57
-8.08
-9.62
-11.37
-13.39
-15.60
-17.83
-19.88
-21.60
-22.85
-23.45
-23.17
-21.75
-19.04
-15.13
-10.41
-5.42
-0.72
3.36
6.69
9.35
11.43
13.01
14.10
14.74
15.04
15.17
15.38
15.82
16.54
17.44
18.32
18.98
19.30
19.26
18.94
18.49
18.06
17.70
17.40
17.05
16.58
15.94
15.15
14.24
13.20
11.96
10.46
8.71
6.81
4.96
3.32
1.94
0.69
-0.60
-2.11
-3.88
-5.79
-7.63
-9.20
-10.36
-11.18
-11.83
-12.57
-13.65
-15.22
-17.29
-19.71
-22.24
-24.49
-26.03
-26.43
-25.35
-22.69
-18.67
-13.77
-8.60
-3.81
0.23
3.39
5.78
7.63
9.11
10.36
11.40
12.23
12.84
13.25
13.47
13.54
13.53
13.51
13.58
13.82
14.24
14.79
15.32
15.69
15.75
15.48
14.89
14.08
13.15
12.14
11.05
9.91
8.76
7.67
6.74
5.96
5.27
4.52
3.57
2.35
0.89
-0.69
-2.32
-3.89
-5.43
-6.98
-8.57
-10.22
-11.88
-13.45
-14.83
-15.98
-16.97
-18.02
-19.36
-21.06
-22.95
-24.55
-25.26
-24.59
-22.39
-18.93
-14.76
-10.51
-6.58
-3.16
-0.20
2.40
4.67
6.53
7.89
8.71
9.07
9.17
9.19
9.30
9.56
9.93
10.31
10.62
10.82
10.97
11.16
11.47
11.83
12.12
12.13
11.74
10.95
9.84
8.52
7.09
5.59
4.04
2.51
1.12
-0.04
-0.95
-1.76
-2.67
-3.86
-5.37
-7.08
-8.77
-10.26
-11.51
-12.64
-13.80
-15.13
-16.64
-18.27
-19.86
-21.20
-22.07
-22.27
-21.62
-20.07
-17.65
-14.55
-10.99
-7.25
-3.56
-0.14
2.83
5.22
7.00
8.23
9.04
9.56
9.88
9.98
9.82
9.44
8.95
8.56
8.43
8.60
8.97
9.33
9.52
9.44
9.14
8.66
8.05
7.29
6.32
5.14
3.79
2.36
0.97
-0.31
-1.48
-2.56
-3.64
-4.89
-6.43
-8.36
-10.66
-13.18
-15.64
-17.79
-19.50
-20.81
-21.91
-23.04
-24.41
-25.99
-27.53
-28.53
-28.38
-26.48
-22.45
-16.29
-8.35
0.68
9.98
18.77
26.42
32.47
36.64
38.79
38.89
37.07
33.66
29.15
24.13
19.17
14.73
11.09
8.32
6.32
4.93
3.99
3.40
3.17
3.29
3.76
4.47
5.28
6.05
6.64
6.97
7.02
6.74
6.13
5.15
3.80
2.14
0.28
-1.61
-3.35
-4.84
-6.09
-7.17
-8.23
-9.41
-10.80
-12.34
-13.94
-15.47
-16.81
-17.98
-19.02
-20.04
-21.11
-22.32
-23.70
-25.24
-26.89
-28.49
-29.71
-30.15
-29.37
-27.12
-23.42
-18.63
-13.32
-8.16
-3.66
-0.10
2.47
4.16
5.17
5.65
5.71
5.45
4.94
4.28
3.56
2.93
2.51
2.42
2.72
3.41
4.37
5.41
6.34
7.01
7.35
7.33
6.99
6.41
5.77
5.39
5.58
6.56
8.27
10.35
12.21
13.26
13.15
11.88
9.70
6.99
4.04
1.04
-1.96
-4.97
-7.98
-10.99
-13.96
-16.87
-19.57
-21.79
-23.13
-23.14
-21.51
-18.23
-13.59
-8.15
-2.56
2.61
7.03
10.55
13.20
15.06
16.20
16.70
16.65
16.17
15.41
14.51
13.60
12.72
11.87
11.06
10.28
9.57
8.97
8.50
8.14
7.83
7.47
6.93
6.13
5.06
3.79
2.50
1.34
0.38
-0.51
-1.52
-2.89
-4.73
-6.94
-9.30
-11.52
-13.40
-14.93
-16.24
-17.57
-19.16
-21.15
-23.59
-26.36
-29.13
-31.38
-32.51
-32.00
-29.59
-25.40
-19.93
-13.91
-8.10
-3.02
1.07
4.25
6.74
8.79
10.54
12.04
13.24
14.13
14.70
15.04
15.22
15.35
15.48
15.65
15.83
15.99
16.10
16.14
16.10
15.97
15.71
15.28
14.59
13.63
12.39
10.94
9.35
7.64
5.80
3.77
1.53
-0.90
-3.43
-5.94
-8.26
-10.32
-12.11
-13.71
-15.30
-17.07
-19.22
-21.84
-24.86
-28.03
-30.87
-32.79
-33.18
-31.62
-27.99
-22.56
-15.98
-9.06
-2.64
2.74
6.82
9.72
11.74
13.28
14.58
15.74
16.72
17.39
17.73
17.80
17.76
17.74
17.82
17.96
18.07
18.05
17.88
17.64
17.41
17.27
17.15
16.85
16.15
14.85
12.93
10.54
8.00
5.59
3.52
1.77
0.17
-1.47
-3.32
-5.38
-7.53
-9.49
-11.04
-12.01
-12.39
-12.38
-12.21
-12.15
-12.35
-12.77
-13.15
-13.10
-12.24
-10.34
-7.48
-3.97
-0.24
3.33
6.49
9.18
11.38
13.09
14.28
14.98
15.33
15.62
16.10
16.90
17.91
18.85
19.38
19.36
18.79
17.85
16.68
15.35
13.85
12.20
10.55
9.15
8.23
7.83
7.75
7.61
7.08
6.10
4.88
3.80
3.14
2.90
2.74
2.18
0.83
-1.36
-4.11
-6.94
-9.38
-11.18
-12.38
-13.17
-13.85
-14.76
-16.12
-18.04
-20.40
-22.85
-24.80
-25.58
-24.70
-21.99
-17.68
-12.37
-6.71
-1.31
3.47
7.52
10.82
13.42
15.36
16.68
17.44
17.68
17.53
17.10
16.52
15.96
15.54
15.38
15.47
15.77
16.15
16.55
16.90
17.18
17.37
17.42
17.24
16.76
15.92
14.72
13.19
11.39
9.39
7.31
5.28
3.42
1.81
0.43
-0.81
-2.08
-3.56
-5.33
-7.34
-9.43
-11.34
-12.88
-14.01
-14.92
-15.90
-17.31
-19.40
-22.17
-25.47
-28.92
-32.03
-34.29
-35.16
-34.22
-31.27
-26.45
-20.30
-13.61
-7.21
-1.71
2.64
5.93
8.42
10.33
11.81
12.92
13.71
14.28
14.78
15.31
15.88
16.42
16.82
17.00
16.97
16.79
16.60
16.48
16.42
16.40
16.31
16.09
15.70
15.13
14.38
13.47
12.36
11.01
9.43
7.69
5.86
4.05
2.34
0.70
-0.90
-2.57
-4.32
-6.16
-7.99
-9.78
-11.50
-13.19
-14.88
-16.58
-18.28
-20.00
-21.78
-23.69
-25.79
-28.00
-30.01
-31.31
-31.34
-29.68
-26.23
-21.32
-15.57
-9.73
-4.41
0.02
3.51
6.18
8.23
9.81
11.01
11.86
12.42
12.76
12.96
13.09
13.22
13.39
13.66
14.06
14.59
15.13
15.57
15.80
15.78
15.57
15.31
15.01
14.64
14.04
13.07
11.69
9.98
8.17
6.45
4.98
3.75
2.63
1.46
0.14
-1.36
-2.95
-4.52
-5.99
-7.33
-8.62
-9.97
-11.50
-13.22
-15.05
-16.89
-18.67
-20.38
-22.04
-23.67
-25.13
-26.08
-26.08
-24.68
-21.69
-17.23
-11.81
-6.18
-1.07
3.05
6.02
8.00
9.28
10.15
10.75
11.16
11.36
11.40
11.34
11.28
11.25
11.28
11.34
11.41
11.48
11.56
11.66
11.80
11.98
12.19
12.38
12.41
12.13
11.40
10.15
8.47
6.54
4.60
2.85
1.38
0.10
-1.14
-2.54
-4.26
-6.30
-8.55
-10.79
-12.80
-14.44
-15.70
-16.69
-17.57
-18.52
-19.75
-21.40
-23.55
-26.10
-28.69
-30.77
-31.65
-30.81
-28.05
-23.62
-18.15
-12.44
-7.18
-2.79
0.65
3.29
5.39
7.15
8.66
9.89
10.80
11.37
11.64
11.73
11.77
11.86
12.07
12.36
12.73
13.12
13.50
13.86
14.19
14.43
14.49
14.28
13.74
12.84
11.64
10.23
8.73
7.21
5.72
4.28
2.85
1.45
0.03
-1.43
-2.97
-4.60
-6.32
-8.10
-9.86
-11.52
-13.07
-14.55
-16.08
-17.85
-19.99
-22.56
-25.49
-28.53
-31.23
-33.09
-33.56
-32.26
-29.05
-24.20
-18.28
-12.08
-6.34
-1.55
2.10
4.77
6.78
8.41
9.84
11.04
11.94
12.46
12.66
12.69
12.75
12.99
13.38
13.77
13.96
13.81
13.33
12.71
12.15
11.82
11.72
11.72
11.61
11.16
10.27
8.93
7.25
5.41
3.58
1.91
0.40
-1.00
-2.41
-3.89
-5.47
-7.12
-8.87
-10.77
-12.86
-14.99
-16.73
-17.51
-16.88
-14.83
-11.93
-9.18
-7.53
-7.44
-8.64
-10.30
-11.47
-11.55
-10.48
-8.66
-6.60
-4.65
-2.87
-1.15
0.62
2.43
4.08
5.41
6.28
6.80
7.19
7.65
8.31
9.10
9.82
10.24
10.27
9.97
9.54
9.21
9.03
8.93
8.69
8.12
7.17
5.95
4.67
3.52
2.54
1.67
0.74
-0.40
-1.77
-3.31
-4.90
-6.47
-7.99
-9.50
-11.06
-12.73
-14.59
-16.70
-19.09
-21.73
-24.40
-26.68
-28.03
-27.93
-26.03
-22.40
-17.43
-11.81
-6.26
-1.35
2.65
5.73
8.03
9.75
11.02
11.94
12.58
13.01
13.33
13.67
14.12
14.65
15.19
15.60
15.78
15.73
15.58
15.51
15.68
16.13
16.72
17.20
17.30
16.84
15.78
14.23
12.39
10.45
8.53
6.62
4.63
2.47
0.09
-2.41
-4.89
-7.22
-9.36
-11.42
-13.57
-16.01
-18.85
-22.12
-25.65
-29.11
-32.04
-33.86
-34.10
-32.49
-29.13
-24.40
-18.89
-13.15
-7.62
-2.52
2.05
6.05
9.43
12.17
14.24
15.71
16.72
17.43
18.01
18.61
19.30
20.05
20.78
21.39
21.80
21.99
21.96
21.72
21.26
20.58
19.75
18.85
17.97
17.10
16.12
14.83
13.09
10.93
8.56
6.28
4.36
2.84
1.55
0.22
-1.35
-3.24
-5.34
-7.51
-9.63
-11.68
-13.73
-15.88
-18.24
-20.85
-23.67
-26.58
-29.30
-31.43
-32.49
-32.03
-29.78
-25.83
-20.58
-14.66
-8.70
-3.20
1.58
5.60
8.94
11.67
13.87
15.56
16.83
17.80
18.60
19.37
20.13
20.86
21.47
21.92
22.21
22.44
22.72
23.12
23.57
23.93
23.98
23.52
22.48
20.91
18.91
16.65
14.31
12.00
9.83
7.87
6.11
4.52
2.99
1.41
-0.28
-2.09
-3.96
-5.86
-7.75
-9.61
-11.45
-13.26
-15.04
-16.86
-18.84
-21.10
-23.71
-26.56
-29.34
-31.51
-32.55
-32.02
-29.77
-25.94
-20.96
-15.38
-9.77
-4.63
-0.25
3.26
6.00
8.12
9.80
11.16
12.21
12.98
13.44
13.65
13.72
13.75
13.84
14.03
14.31
14.62
14.91
15.09
15.10
14.90
14.43
13.70
12.72
11.60
10.44
9.34
8.29
7.23
5.96
4.34
2.32
-0.04
-2.52
-4.92
-7.03
-8.79
-10.20
-11.36
-12.38
-13.48
-14.85
-16.68
-19.00
-21.62
-24.11
-25.88
-26.35
-25.16
-22.29
-18.05
-12.99
-7.75
-2.86
1.36
4.78
7.47
9.57
11.21
12.48
13.38
13.91
14.09
14.03
13.87
13.78
13.84
14.07
14.33
14.48
14.39
14.02
13.48
12.89
12.33
11.81
11.24
10.45
9.36
7.97
6.39
4.78
3.28
1.91
0.60
-0.77
-2.32
-4.07
-5.96
-7.88
-9.71
-11.39
-12.98
-14.58
-16.35
-18.41
-20.76
-23.33
-25.97
-28.42
-30.43
-31.65
-31.73
-30.35
-27.37
-22.92
-17.44
-11.61
-6.13
-1.53
1.99
4.54
6.46
8.09
9.61
11.02
12.17
12.99
13.49
13.87
14.36
15.06
15.93
16.71
17.13
17.06
16.52
15.73
14.99
14.51
14.33
14.36
14.36
14.08
13.29
11.93
10.07
7.93
5.80
3.92
2.42
1.19
0.02
-1.36
-3.11
-5.24
-7.52
-9.72
-11.58
-13.05
-14.27
-15.48
-16.98
-18.95
-21.43
-24.25
-27.13
-29.64
-31.34
-31.77
-30.60
-27.69
-23.23
-17.66
-11.65
-5.88
-0.87
3.11
6.08
8.22
9.78
10.93
11.80
12.44
12.95
13.46
14.06
14.79
15.55
16.14
16.34
16.07
15.43
14.71
14.19
14.05
14.26
14.58
14.71
14.41
13.54
12.16
10.45
8.64
6.94
5.46
4.17
2.92
1.50
-0.26
-2.40
-4.76
-7.09
-9.12
-10.77
-12.09
-13.27
-14.52
-15.99
-17.71
-19.65
-21.73
-23.77
-25.48
-26.46
-26.26
-24.57
-21.41
-17.12
-12.31
-7.61
-3.44
0.06
2.93
5.32
7.27
8.77
9.76
10.29
10.46
10.46
10.41
10.36
10.33
10.30
10.25
10.19
10.16
10.26
10.61
11.33
12.43
13.76
14.98
15.68
15.59
14.65
13.05
11.14
9.22
7.46
5.87
4.32
2.64
0.77
-1.26
-3.33
-5.30
-7.03
-8.55
-9.96
-11.48
-13.25
-15.34
-17.67
-20.10
-22.48
-24.70
-26.58
-27.84
-28.11
-27.03
-24.48
-20.62
-16.00
-11.22
-6.80
-2.98
0.28
3.15
5.72
7.96
9.77
11.16
12.37
13.79
15.75
18.34
21.23
23.85
25.67
26.43
26.28
25.65
25.01
24.57
24.26
23.81
23.01
21.80
20.28
18.59
16.71
14.50
11.78
8.53
4.95
1.48
-1.45
-3.58
-4.98
-6.03
-7.17
-8.73
-10.76
-13.08
-15.37
-17.33
-18.85
-20.00
-21.05
-22.28
-23.95
-26.11
-28.60
-30.98
-32.68
-33.09
-31.73
-28.50
-23.67
-17.82
-11.70
-5.96
-0.99
3.07
6.31
8.82
10.68
11.95
12.74
13.22
13.64
14.20
14.98
15.92
16.82
17.46
17.70
17.54
17.08
16.51
16.00
15.63
15.42
15.25
15.01
14.58
13.91
13.00
11.86
10.52
8.94
7.16
5.29
3.47
1.84
0.43
-0.85
-2.17
-3.69
-5.44
-7.35
-9.28
-11.09
-12.70
-14.10
-15.32
-16.45
-17.64
-19.09
-20.96
-23.27
-25.79
-28.03
-29.37
-29.24
-27.36
-23.81
-19.02
-13.64
-8.30
-3.51
0.45
3.50
5.71
7.20
8.13
8.67
8.95
9.17
9.44
9.87
10.45
11.09
11.62
11.85
11.69
11.21
10.59
10.05
9.79
9.85
10.13
10.43
10.55
10.34
9.77
8.92
7.88
6.78
5.70
4.67
3.67
2.63
1.47
0.13
-1.42
-3.15
-4.91
-6.59
-8.08
-9.38
-10.61
-11.92
-13.52
-15.50
-17.81
-20.26
-22.47
-24.02
-24.47
-23.51
-21.06
-17.29
-12.59
-7.48
-2.50
1.93
5.56
8.29
10.20
11.42
12.17
12.64
12.98
13.27
13.55
13.81
14.02
14.18
14.26
14.27
14.19
14.03
13.83
13.67
13.60
13.63
13.72
13.72
13.45
12.76
11.58
9.97
8.11
6.23
4.54
3.14
1.99
0.95
-0.15
-1.45
-3.03
-4.87
-6.91
-9.05
-11.19
-13.21
-15.00
-16.51
-17.78
-18.97
-20.28
-21.91
-23.97
-26.39
-28.90
-31.09
-32.39
-32.31
-30.49
-26.86
-21.77
-15.84
-9.86
-4.50
-0.15
3.14
5.60
7.52
9.14
10.59
11.87
12.99
13.96
14.81
15.61
16.38
17.11
17.79
18.39
18.93
19.37
19.65
19.73
19.58
19.22
18.66
17.94
17.05
16.02
14.85
13.53
12.09
10.52
8.84
7.08
5.29
3.51
1.73
-0.12
-2.09
-4.25
-6.59
-9.03
-11.42
-13.61
-15.51
-17.09
-18.45
-19.73
-21.15
-22.90
-25.02
-27.34
-29.47
-30.88
-31.03
-29.59
-26.51
-22.06
-16.74
-11.13
-5.74
-0.95
3.01
6.05
8.16
9.44
10.04
10.25
10.35
10.56
10.97
11.54
12.13
12.59
12.83
12.86
12.76
12.63
12.55
12.59
12.74
12.96
13.16
13.22
13.00
12.36
11.27
9.77
8.03
6.24
4.52
2.91
1.33
-0.33
-2.14
-4.10
-6.10
-7.99
-9.67
-11.17
-12.60
-14.15
-15.96
-18.07
-20.36
-22.64
-24.58
-25.85
-26.06
-24.91
-22.28
-18.27
-13.28
-7.92
-2.82
1.56
5.05
7.72
9.80
11.51
12.97
14.16
15.00
15.46
15.54
15.36
15.05
14.75
14.53
14.45
14.47
14.55
14.67
14.82
15.06
15.39
15.71
15.83
15.50
14.54
12.98
11.03
9.00
7.15
5.58
4.22
2.91
1.56
0.12
-1.40
-3.02
-4.81
-6.86
-9.17
-11.60
-13.93
-15.93
-17.57
-18.98
-20.44
-22.25
-24.57
-27.24
-29.90
-31.94
-32.76
-31.90
-29.21
-24.89
-19.44
-13.53
-7.80
-2.75
1.39
4.61
7.05
8.93
10.42
11.63
12.65
13.50
14.22
14.84
15.41
15.95
16.41
16.74
16.88
16.83
16.70
16.67
16.89
17.40
18.02
18.47
18.40
17.65
16.21
14.29
12.16
10.07
8.16
6.49
5.05
3.81
2.67
1.50
0.16
-1.50
-3.47
-5.65
-7.81
-9.74
-11.34
-12.63
-13.77
-14.96
-16.37
-18.11
-20.24
-22.75
-25.51
-28.23
-30.38
-31.33
-30.50
-27.66
-23.05
-17.34
-11.41
-6.03
-1.60
1.87
4.64
7.00
9.13
11.02
12.56
13.64
14.24
14.48
14.55
14.67
14.93
15.35
15.81
16.17
16.29
16.18
15.93
15.69
15.59
15.63
15.69
15.58
15.11
14.16
12.73
10.91
8.85
6.70
4.59
2.63
0.87
-0.70
-2.13
-3.55
-5.05
-6.66
-8.32
-9.98
-11.61
-13.26
-15.06
-17.12
-19.48
-22.09
-24.78
-27.30
-29.31
-30.41
-30.23
-28.51
-25.28
-20.83
-15.70
-10.48
-5.61
-1.34
2.35
5.58
8.47
11.11
13.51
15.60
17.28
18.48
19.15
19.37
19.30
19.12
19.01
19.04
19.12
19.14
19.00
18.71
18.36
18.02
17.70
17.28
16.56
15.38
13.76
11.85
9.88
8.07
6.53
5.17
3.84
2.35
0.61
-1.39
-3.54
-5.72
-7.79
-9.69
-11.47
-13.21
-14.99
-16.90
-18.97
-21.20
-23.57
-26.00
-28.30
-30.10
-30.94
-30.31
-27.94
-23.89
-18.62
-12.81
-7.22
-2.41
1.37
4.19
6.32
8.08
9.71
11.29
12.81
14.12
15.11
15.73
16.05
16.24
16.50
16.94
17.51
18.04
18.29
18.13
17.62
16.95
16.39
16.08
15.99
15.94
15.72
15.20
14.36
13.29
12.08
10.80
9.42
7.94
6.37
4.72
3.05
1.42
-0.16
-1.70
-3.22
-4.71
-6.12
-7.38
-8.46
-9.36
-10.19
-11.11
-12.35
-14.09
-16.35
-18.87
-21.16
-22.51
-22.22
-19.88
-15.49
-9.54
-2.82
3.80
9.71
14.66
18.82
22.61
26.45
30.62
35.13
39.69
43.89
47.35
49.87
51.54
52.68
53.70
54.94
56.58
58.64
61.06
63.82
66.85
69.86
72.25
73.18
71.85
67.79
61.03
51.94
41.03
28.81
15.83
3.02
-8.14
-15.91
-18.99
-17.42
-12.94
-8.62
-7.64
-12.06
-21.99
-35.82
-51.11
-65.60
-77.92
-87.54
-94.42
-98.45
-99.28
-96.48
-89.88
-79.78
-66.92
-52.17
-36.23
-19.46
-2.04
15.77
33.28
49.24
62.06
70.41
73.74
72.68
68.78
63.89
59.39
55.71
52.45
48.95
44.88
40.52
36.61
33.87
32.44
31.91
31.61
31.17
30.68
30.60
31.41
33.04
34.81
35.52
34.05
29.94
23.63
16.13
8.26
0.20
-8.71
-19.59
-33.70
-51.72
-73.55
-98.55
-125.90
-154.71
-183.71
-210.76
-232.87
-247.40
-252.41
-247.14
-232.29
-210.06
-183.62
-156.08
-129.70
-105.52
-84.87
-68.32
-55.13
-43.35
-30.61
-15.20
3.56
25.00
47.04
64.18
70.66
63.35
43.52
16.27
-11.32
-32.35
-42.13
-39.59
-30.24
-21.82
-20.26
-27.87
-44.43
-69.23
-102.07
-142.93
-172.48
-174.51
-144.28
-91.45
-30.46
28.33
79.83
121.84
153.74
176.07
187.76
187.35
177.73
163.56
148.98
136.43
126.20
117.07
107.06
91.91
67.98
34.06
-4.51
-41.15
-69.21
-83.92
-83.59
-70.01
-49.26
-28.42
-12.60
-3.42
-0.05
-0.26
-2.01
-4.13
-6.11
-8.39
-10.98
-12.98
-12.74
-9.27
-2.48
6.54
16.06
24.45
30.57
34.26
36.30
37.91
39.79
42.08
44.35
46.10
47.09
47.48
47.59
47.62
47.56
47.11
46.16
44.89
43.68
42.83
42.37
41.99
41.37
40.34
38.96
37.40
35.78
33.98
31.81
29.20
26.41
23.88
22.01
20.82
19.82
18.25
15.37
10.85
4.90
-1.90
-8.88
-15.68
-22.25
-28.79
-35.39
-41.90
-47.85
-52.66
-55.86
-57.20
-56.64
-54.29
-50.37
-45.29
-39.75
-34.56
-30.42
-27.60
-25.62
-23.56
-20.43
-15.78
-9.85
-3.43
2.61
7.79
12.13
15.95
19.44
22.46
24.57
25.39
24.95
23.72
22.36
21.31
20.55
19.65
18.14
15.83
13.06
10.49
8.72
7.94
7.85
7.79
7.15
5.58
3.11
0.02
-3.33
-6.63
-9.63
-12.17
-14.12
-15.43
-16.18
-16.68
-17.43
-18.99
-21.72
-25.44
-29.30
-31.95
-32.05
-28.91
-22.85
-15.04
-7.03
-0.04
5.47
9.75
13.35
16.62
19.53
21.77
23.16
23.85
24.28
24.93
25.94
27.04
27.68
27.39
26.10
24.20
22.33
21.03
20.39
20.06
19.42
18.05
15.93
13.50
11.30
9.71
8.79
8.27
7.78
7.05
5.92
4.37
2.41
0.14
-2.26
-4.57
-6.64
-8.46
-10.17
-11.93
-13.83
-15.81
-17.86
-20.07
-22.65
-25.70
-28.92
-31.57
-32.62
-31.25
-27.17
-20.89
-13.46
-6.08
0.32
5.38
9.23
12.32
15.06
17.56
19.59
20.74
20.74
19.71
18.24
17.22
17.32
18.72
20.92
22.97
24.00
23.57
21.97
19.90
18.12
16.92
16.08
15.05
13.39
11.01
8.31
5.82
3.98
2.78
1.87
0.73
-1.06
-3.57
-6.53
-9.47
-11.95
-13.67
-14.64
-15.20
-15.86
-17.12
-19.25
-22.16
-25.45
-28.66
-31.48
-33.78
-35.50
-36.46
-36.23
-34.32
-30.43
-24.83
-18.42
-12.48
-8.27
-6.52
-7.11
-9.24
-11.73
-13.60
-14.47
-14.81
-15.74
-18.53
-23.95
-31.91
-41.30
-50.56
-58.23
-63.67
-67.27
-70.45
-75.27
-83.87
-97.81
-117.42
-141.51
-167.29
-190.83
-207.91
-214.89
-209.61
-191.64
-162.21
-123.75
-79.34
-32.14
15.02
59.97
101.11
137.01
165.99
186.12
195.94
195.50
186.99
174.38
161.94
152.58
146.64
142.18
136.35
127.17
114.70
100.99
88.97
80.96
77.60
77.65
78.77
78.66
76.07
71.22
65.43
60.22
56.21
52.81
48.54
42.18
33.66
24.29
16.11
10.78
8.62
8.49
8.43
6.73
2.73
-2.86
-8.44
-12.32
-13.71
-13.16
-12.32
-13.00
-16.29
-21.78
-27.90
-32.71
-35.04
-34.98
-33.73
-33.06
-34.58
-39.62
-49.17
-63.57
-81.85
-100.95
-115.98
-121.76
-115.17
-97.08
-72.45
-48.34
-30.62
-21.30
-18.09
-16.16
-11.26
-1.88
10.35
22.27
31.28
36.77
39.99
42.85
46.62
51.31
56.07
60.04
62.91
65.14
67.46
70.30
73.43
76.05
77.27
76.45
73.30
67.94
60.72
52.17
42.97
33.88
25.56
18.31
12.05
6.31
0.59
-5.40
-11.56
-17.45
-22.62
-26.81
-30.13
-32.97
-35.70
-38.47
-41.10
-43.23
-44.57
-45.04
-44.83
-44.26
-43.60
-42.80
-41.55
-39.38
-35.75
-30.34
-23.06
-14.19
-4.31
5.71
14.93
22.58
28.25
31.92
33.88
34.38
33.63
31.71
28.76
25.18
21.57
18.64
16.83
16.26
16.63
17.47
18.31
18.80
18.76
18.06
16.68
14.63
12.10
9.39
6.86
4.82
3.44
2.71
2.44
2.32
1.98
1.19
-0.13
-1.76
-3.40
-4.69
-5.41
-5.59
-5.41
-5.16
-5.11
-5.44
-6.15
-7.07
-7.86
-7.99
-6.94
-4.25
0.36
6.78
14.66
23.41
32.40
41.06
48.98
55.87
61.44
65.49
67.94
69.03
69.31
69.51
70.26
71.79
73.72
75.08
74.57
70.96
63.57
52.44
38.36
22.57
6.25
-9.86
-25.64
-41.49
-57.88
-74.84
-91.56
-106.49
-117.96
-125.06
-128.11
-128.43
-127.50
-126.02
-123.43
-118.48
-110.26
-99.25
-87.31
-76.77
-69.10
-64.15
-60.51
-56.70
-52.44
-48.83
-47.67
-50.02
-55.22
-61.08
-64.88
-64.63
-59.87
-51.56
-41.36
-30.96
-21.66
-14.19
-8.84
-5.50
-3.63
-2.39
-0.80
1.87
5.88
10.98
16.63
22.27
27.53
32.22
36.23
39.43
41.75
43.24
44.10
44.57
44.79
44.67
44.01
42.64
40.53
37.84
34.74
31.30
27.42
22.95
17.93
12.67
7.65
3.33
-0.15
-2.92
-5.27
-7.42
-9.38
-11.09
-12.56
-13.94
-15.36
-16.69
-17.49
-17.06
-14.95
-11.11
-6.08
-0.67
4.38
8.72
12.38
15.57
18.44
20.87
22.68
23.76
24.20
24.27
24.32
24.58
25.04
25.46
25.42
24.53
22.70
20.21
17.62
15.58
14.51
14.37
14.76
15.08
14.91
14.20
13.19
12.21
11.39
10.64
9.71
8.45
6.85
5.08
3.31
1.55
-0.29
-2.39
-4.89
-7.79
-10.99
-14.32
-17.63
-20.83
-23.81
-26.18
-27.47
-27.30
-25.53
-22.31
-17.95
-12.87
-7.49
-2.26
2.61
6.85
10.22
12.59
14.13
15.24
16.25
17.06
17.10
16.22
14.36
11.67
8.45
5.29
2.89
1.56
0.92
-0.02
-1.08
-1.78
-1.80
-1.52
-1.56
-2.54
-4.90
-8.53
-12.54
-13.61
-9.41
-1.02
6.62
7.95
0.54
-13.04
-26.19
-31.60
-22.37
3.26
41.33
84.65
127.73
169.20
210.44
252.82
279.86
278.00
245.41
194.34
140.91
95.97
63.00
40.15
23.35
8.80
-3.02
-9.68
-7.75
1.82
16.27
31.66
42.93
45.07
34.85
13.97
-12.98
-40.70
-65.59
-85.49
-97.21
-98.70
-90.24
-75.39
-59.57
-49.43
-50.54
-64.83
-88.65
-114.27
-134.16
-144.63
-147.19
-146.27
-146.27
-149.08
-153.56
-156.49
-154.89
-147.87
-136.42
-122.19
-106.31
-89.19
-71.17
-53.55
-38.39
-28.00
-24.22
-27.40
-36.11
-47.48
-57.98
-64.46
-65.01
-59.33
-48.66
-35.19
-21.17
-8.21
3.00
12.58
20.96
28.47
35.17
40.87
45.49
49.19
52.41
55.59
58.92
62.12
64.57
65.63
64.87
62.39
58.71
54.51
50.36
46.46
42.68
38.79
34.64
30.33
26.19
22.55
19.64
17.42
15.68
14.11
12.49
10.75
8.96
7.31
5.95
4.94
4.10
3.12
1.62
-0.66
-3.66
-7.07
-10.33
-12.91
-14.45
-14.90
-14.42
-13.25
-11.55
-9.38
-6.73
-3.60
-0.18
3.21
6.22
8.53
9.98
10.63
10.64
10.28
9.75
9.24
8.84
8.65
8.75
9.15
9.83
10.67
11.52
12.21
12.60
12.59
12.17
11.38
10.27
8.89
7.32
5.60
3.81
2.02
0.28
-1.34
-2.83
-4.15
-5.34
-6.53
-7.86
-9.51
-11.60
-14.11
-16.91
-19.75
-22.33
-24.31
-25.41
-25.42
-24.29
-22.11
-19.06
-15.43
-11.50
-7.55
-3.88
-0.82
1.31
2.29
2.07
0.85
-0.91
-2.62
-3.71
-3.89
-3.25
-2.34
-1.97
-2.89
-5.48
-9.51
-14.25
-18.78
-22.40
-24.93
-26.72
-28.29
-29.98
-31.68
-32.84
-32.75
-30.69
-25.98
-18.04
-6.62
8.28
26.18
46.21
67.33
88.40
108.14
125.20
138.17
145.53
146.42
140.91
129.99
115.32
98.83
82.84
70.19
63.78
65.05
72.89
83.17
90.25
89.94
82.36
72.68
68.75
76.89
97.31
124.48
149.71
165.29
167.21
155.38
132.33
100.95
63.57
20.55
-26.32
-73.20
-114.68
-145.87
-164.52
-170.80
-167.06
-156.73
-146.25
-140.85
-143.78
-156.46
-179.30
-212.39
-253.90
-299.47
-341.89
-376.48
-398.58
-405.20
-396.45
-376.57
-353.09
-333.06
-321.01
-298.46
-255.98
-194.78
-126.46
-64.09
-15.39
17.99
40.09
55.27
74.14
100.86
136.57
180.35
229.61
280.41
320.48
338.65
331.48
305.32
268.32
228.28
190.21
156.30
126.58
100.20
77.90
60.74
49.40
41.10
32.91
23.05
12.00
2.14
-4.43
-5.66
-2.09
2.25
-0.58
-17.84
-52.11
-99.04
-148.43
-187.50
-204.90
-195.13
-159.85
-106.88
-46.13
14.08
69.10
114.31
146.53
164.51
168.54
160.41
143.34
121.76
100.71
84.33
74.52
70.83
70.90
71.50
70.03
65.58
58.98
51.88
45.51
39.75
33.64
26.04
16.39
5.30
-5.62
-14.51
-20.12
-22.31
-22.04
-20.59
-19.09
-18.23
-18.16
-18.70
-19.55
-20.52
-21.65
-23.11
-24.92
-26.89
-28.71
-30.01
-30.58
-30.45
-29.87
-29.11
-28.26
-26.99
-24.73
-20.97
-15.63
-9.23
-2.74
2.81
6.72
8.81
9.35
8.85
7.75
6.29
4.63
2.87
1.14
-0.47
-1.89
-3.05
-3.81
-3.92
-3.14
-1.37
1.17
4.02
6.60
8.33
8.73
7.46
4.33
-0.51
-6.51
-12.65
-17.77
-20.95
-21.97
-21.37
-20.06
-18.69
-17.24
-15.10
-11.57
-6.45
-0.29
5.91
11.30
15.69
19.47
23.27
27.26
30.91
33.11
32.85
29.78
24.41
17.92
11.50
5.92
1.24
-2.79
-6.21
-8.57
-9.21
-7.98
-5.78
-4.53
-6.17
-11.42
-19.05
-26.27
-30.22
-29.66
-25.72
-21.21
-18.87
-19.64
-22.14
-23.64
-21.73
-15.77
-7.07
2.00
9.38
14.08
16.33
16.99
16.76
15.96
14.53
12.42
9.86
7.45
5.91
5.83
7.35
10.20
13.76
17.23
19.87
21.26
21.35
20.44
19.03
17.59
16.35
15.28
14.16
12.76
10.98
8.93
6.81
4.89
3.33
2.17
1.32
0.61
-0.18
-1.26
-2.78
-4.79
-7.23
-9.83
-12.26
-14.18
-15.39
-15.88
-15.79
-15.39
-14.91
-14.53
-14.36
-14.44
-14.84
-15.53
-16.47
-17.51
-18.37
-18.74
-18.34
-17.03
-14.89
-12.20
-9.35
-6.70
-4.49
-2.78
-1.52
-0.57
0.22
0.94
1.67
2.41
3.13
3.76
4.21
4.43
4.46
4.38
4.27
4.16
4.01
3.74
3.31
2.74
2.12
1.52
1.00
0.54
0.12
-0.27
-0.64
-0.97
-1.33
-1.80
-2.50
-3.52
-4.89
-6.58
-8.52
-10.62
-12.75
-14.70
-16.20
-16.94
-16.64
-15.17
-12.58
-9.12
-5.20
-1.23
2.37
5.36
7.61
9.13
9.98
10.26
10.10
9.63
8.99
8.32
7.77
7.45
7.39
7.53
7.73
7.82
7.70
7.35
6.87
6.40
6.00
5.63
5.17
4.43
3.32
1.91
0.36
-1.14
-2.44
-3.57
-4.63
-5.77
-7.13
-8.74
-10.61
-12.64
-14.68
-16.50
-17.75
-18.08
-17.20
-15.06
-11.84
-7.96
-3.93
-0.15
3.09
5.71
7.70
9.04
9.73
9.79
9.35
8.64
7.95
7.53
7.47
7.71
8.02
8.19
8.14
7.93
7.76
7.79
8.10
8.58
8.98
9.06
8.62
7.67
6.31
4.75
3.18
1.74
0.50
-0.57
-1.58
-2.69
-4.03
-5.68
-7.63
-9.76
-11.85
-13.64
-14.83
-15.16
-14.43
-12.60
-9.81
-6.32
-2.58
1.00
4.05
6.38
7.98
8.97
9.55
9.86
9.96
9.85
9.44
8.70
7.68
6.54
5.51
4.80
4.51
4.64
5.05
5.55
5.97
6.21
6.22
5.97
5.49
4.74
3.76
2.60
1.36
0.17
-0.90
-1.88
-2.86
-3.94
-5.19
-6.58
-8.05
-9.50
-10.91
-12.24
-13.40
-14.23
-14.45
-13.83
-12.28
-9.90
-7.00
-4.00
-1.23
1.13
3.06
4.65
5.95
6.95
7.58
7.72
7.38
6.65
5.71
4.81
4.15
3.84
3.89
4.22
4.68
5.10
5.39
5.48
5.33
4.97
4.42
3.69
2.81
1.84
0.82
-0.16
-1.08
-1.91
-2.68
-3.45
-4.31
-5.33
-6.58
-8.06
-9.71
-11.42
-13.06
-14.49
-15.61
-16.28
-16.33
-15.60
-13.95
-11.39
-8.13
-4.56
-1.10
1.86
4.11
5.62
6.47
6.79
6.73
6.43
6.05
5.69
5.43
5.26
5.13
4.96
4.72
4.47
4.28
4.25
4.40
4.71
5.12
5.56
5.96
6.24
6.34
6.20
5.82
5.28
4.72
4.30
4.14
4.25
4.59
5.04
5.41
5.54
5.31
4.65
3.58
2.16
0.41
-1.73
-4.35
-7.55
-11.29
-15.28
-19.05
-22.02
-23.73
-23.94
-22.69
-20.25
-17.02
-13.38
-9.66
-6.13
-3.01
-0.45
1.41
2.52
3.00
3.03
2.90
2.89
3.17
3.77
4.59
5.51
6.39
7.20
7.95
8.70
9.44
10.08
10.44
10.36
9.79
8.79
7.55
6.29
5.15
4.18
3.28
2.31
1.15
-0.26
-1.81
-3.29
-4.45
-5.05
-5.03
-4.48
-3.72
-3.14
-3.17
-4.11
-6.11
-9.11
-12.86
-16.89
-20.57
-23.21
-24.20
-23.15
-20.05
-15.22
-9.28
-3.04
2.71
7.30
10.24
11.39
10.83
8.93
6.22
3.27
0.63
-1.25
-2.07
-1.69
-0.12
2.47
5.73
9.16
12.22
14.37
15.24
14.73
12.95
10.25
7.04
3.72
0.68
-1.77
-3.34
-3.80
-3.11
-1.43
0.78
2.89
4.29
4.56
3.57
1.49
-1.29
-4.40
-7.50
-10.39
-12.98
-15.26
-17.27
-19.02
-20.46
-21.47
-21.87
-21.50
-20.28
-18.32
-15.87
-13.23
-10.64
-8.15
-5.69
-3.14
-0.46
2.24
4.75
6.86
8.46
9.57
10.32
10.87
11.31
11.65
11.86
11.91
11.86
11.76
11.73
11.82
11.99
12.13
12.07
11.65
10.84
9.70
8.37
7.04
5.81
4.67
3.57
2.42
1.20
-0.05
-1.27
-2.41
-3.48
-4.57
-5.76
-7.05
-8.41
-9.74
-10.98
-12.11
-13.18
-14.24
-15.27
-16.10
-16.43
-15.93
-14.39
-11.84
-8.55
-4.94
-1.45
1.59
4.06
6.01
7.56
8.78
9.73
10.38
10.72
10.85
10.85
10.89
11.04
11.31
11.62
11.88
12.00
11.98
11.86
11.71
11.57
11.42
11.17
10.73
10.01
9.01
7.77
6.39
4.98
3.63
2.40
1.28
0.23
-0.80
-1.86
-2.93
-3.95
-4.84
-5.54
-6.06
-6.48
-6.90
-7.42
-8.10
-8.95
-9.99
-11.16
-12.36
-13.45
-14.20
-14.35
-13.73
-12.23
-9.96
-7.13
-4.03
-0.94
1.96
4.56
6.81
8.63
9.94
10.68
10.85
10.59
10.12
9.71
9.57
9.77
10.27
10.99
11.80
12.61
13.34
13.92
14.32
14.53
14.60
14.57
14.47
14.29
14.01
13.58
13.00
12.30
11.53
10.76
10.06
9.51
9.17
9.08
9.19
9.33
9.26
8.76
7.71
6.22
4.58
3.12
2.14
1.72
1.78
2.12
2.49
2.63
2.21
0.95
-1.35
-4.58
-8.24
-11.55
-13.67
-14.06
-12.64
-9.81
-6.21
-2.40
1.35
5.00
8.55
11.85
14.58
16.35
16.95
16.49
15.36
14.01
12.81
11.84
10.95
9.88
8.43
6.60
4.50
2.30
0.10
-2.12
-4.45
-6.95
-9.51
-11.87
-13.67
-14.67
-14.82
-14.37
-13.71
-13.28
-13.37
-14.05
-15.30
-16.98
-18.93
-20.97
-22.83
-24.15
-24.55
-23.79
-21.85
-18.98
-15.55
-11.96
-8.51
-5.38
-2.61
-0.16
1.97
3.73
4.98
5.60
5.55
5.01
4.30
3.78
3.70
4.05
4.66
5.24
5.65
5.89
6.13
6.50
7.04
7.61
8.04
8.22
8.17
8.01
7.88
7.84
7.82
7.66
7.21
6.41
5.30
4.01
2.76
1.69
0.87
0.28
-0.17
-0.58
-1.00
-1.46
-1.96
-2.55
-3.30
-4.23
-5.28
-6.24
-6.81
-6.67
-5.57
-3.44
-0.38
3.35
7.38
11.26
14.58
17.03
18.46
18.86
18.36
17.11
15.32
13.16
10.78
8.34
6.02
4.02
2.53
1.71
1.63
2.30
3.72
5.89
8.65
11.60
14.05
15.16
14.21
10.96
5.78
-0.50
-6.87
-12.47
-16.79
-19.59
-20.80
-20.47
-18.97
-16.92
-15.24
-14.80
-16.13
-19.19
-23.46
-28.22
-32.86
-37.12
-40.97
-44.38
-47.22
-49.15
-49.67
-48.39
-45.11
-39.86
-33.02
-25.15
-16.87
-8.76
-1.18
5.75
12.07
17.87
23.18
27.90
31.91
35.13
37.52
39.13
39.92
39.80
38.59
36.24
32.87
28.83
24.74
21.18
18.68
17.51
17.62
18.75
20.44
22.11
23.18
23.16
21.72
18.79
14.59
9.52
4.11
-1.20
-6.07
-10.37
-14.08
-17.29
-20.16
-22.83
-25.40
-27.94
-30.35
-32.48
-34.07
-34.91
-34.85
-33.87
-32.02
-29.43
-26.26
-22.71
-18.95
-15.18
-11.57
-8.27
-5.39
-2.99
-1.11
0.26
1.19
1.85
2.45
3.18
4.21
5.54
7.06
8.52
9.70
10.44
10.72
10.60
10.20
9.64
8.95
8.12
7.13
5.96
4.62
3.15
1.54
-0.23
-2.18
-4.23
-6.24
-7.99
-9.29
-10.07
-10.46
-10.64
-10.80
-10.90
-10.73
-9.90
-8.13
-5.34
-1.76
2.19
6.03
9.43
12.24
14.51
16.39
18.08
19.71
21.31
22.78
23.90
24.44
24.24
23.33
21.90
20.26
18.70
17.41
16.52
16.04
15.94
16.25
16.97
18.04
19.36
20.73
21.98
22.95
23.58
23.95
24.22
24.59
25.18
25.96
26.72
27.21
27.19
26.50
25.02
22.72
19.57
15.66
11.29
6.96
3.37
1.20
0.90
2.54
5.75
9.86
14.16
18.06
21.21
23.47
24.86
25.40
25.08
23.87
21.81
18.99
15.60
11.88
8.05
4.34
1.03
-1.55
-3.08
-3.31
-2.22
-0.11
2.45
4.72
6.08
6.12
4.79
2.35
-0.71
-3.88
-6.74
-9.10
-10.98
-12.56
-14.02
-15.40
-16.58
-17.39
-17.72
-17.70
-17.70
-18.20
-19.58
-21.87
-24.73
-27.50
-29.43
-29.96
-28.87
-26.31
-22.69
-18.54
-14.39
-10.74
-8.03
-6.66
-6.83
-8.61
-11.81
-16.09
-21.01
-26.11
-31.02
-35.43
-39.20
-42.27
-44.72
-46.67
-48.17
-49.17
-49.48
-48.94
-47.46
-45.18
-42.45
-39.68
-37.18
-35.10
-33.40
-32.01
-30.85
-29.88
-29.05
-28.30
-27.51
-26.56
-25.36
-23.86
-22.03
-19.86
-17.37
-14.60
-11.65
-8.58
-5.38
-1.89
2.13
6.93
12.56
18.81
25.18
31.02
35.70
38.70
39.79
39.00
36.68
33.38
29.80
26.59
24.16
22.57
21.50
20.35
18.47
15.43
11.20
6.15
0.94
-3.74
-7.39
-9.84
-11.19
-11.73
-11.69
-11.17
-10.16
-8.66
-6.87
-5.16
-4.02
-3.84
-4.76
-6.61
-8.97
-11.35
-13.28
-14.44
-14.65
-13.90
-12.27
-9.99
-7.35
-4.63
-2.03
0.32
2.39
4.17
5.69
7.00
8.24
9.58
11.19
13.13
15.28
17.36
19.01
19.91
19.92
19.12
17.82
16.41
15.25
14.55
14.32
14.41
14.57
14.59
14.30
13.62
12.53
11.02
9.14
6.97
4.68
2.49
0.59
-0.95
-2.19
-3.34
-4.57
-5.97
-7.45
-8.76
-9.57
-9.58
-8.66
-6.79
-4.19
-1.19
1.78
4.28
5.93
6.54
6.19
5.12
3.71
2.30
1.10
0.20
-0.38
-0.66
-0.63
-0.35
0.10
0.55
0.81
0.81
0.57
0.25
0.06
0.14
0.53
1.10
1.63
1.88
1.67
0.96
-0.18
-1.52
-2.76
-3.61
-3.95
-3.88
-3.68
-3.73
-4.38
-5.72
-7.48
-9.06
-9.74
-9.05
-7.03
-4.23
-1.52
0.29
0.91
0.72
0.59
1.44
3.63
6.76
9.89
11.88
12.00
10.42
8.16
6.69
7.25
10.11
14.59
19.51
23.48
25.20
23.63
18.06
8.46
-3.85
-15.96
-23.52
-21.62
-7.75
16.38
45.31
71.98
90.74
99.56
99.82
94.93
88.77
82.84
75.85
65.91
52.20
35.68
18.36
1.39
-15.40
-32.17
-49.76
-69.02
-89.29
-108.40
-123.62
-129.17
-121.14
-105.61
-87.33
-67.44
-47.89
-30.11
-14.81
-2.00
8.42
15.57
17.91
14.72
5.70
-8.37
-24.15
-36.18
-38.50
-26.86
-0.89
35.89
78.09
118.98
151.84
171.64
175.62
163.58
137.95
103.04
64.14
26.47
-7.10
-36.72
-64.02
-90.11
-113.98
-132.59
-142.61
-142.06
-131.49
-114.15
-94.75
-77.77
-66.54
-63.02
-67.62
-78.88
-92.22
-100.93
-98.84
-83.86
-59.91
-35.60
-20.09
-18.43
-29.45
-46.51
-62.01
-70.82
-71.76
-65.77
-53.94
-36.74
-14.76
9.85
34.11
54.68
69.59
79.02
85.05
90.74
99.15
112.87
129.11
144.71
156.64
162.88
161.81
152.22
134.94
113.33
91.85
74.01
61.86
55.22
52.73
52.69
53.32
52.94
49.86
42.72
30.56
14.75
-3.84
-23.90
-43.79
-62.15
-77.52
-88.30
-93.21
-91.85
-84.93
-74.83
-64.76
-57.36
-53.65
-52.56
-51.81
-49.31
-44.23
-37.09
-28.01
-18.02
-7.92
1.88
11.24
19.74
26.50
30.56
31.44
29.29
24.94
19.70
14.70
10.62
7.49
4.67
1.46
-2.56
-7.30
-12.19
-16.31
-18.84
-19.37
-18.01
-15.33
-12.01
-8.61
-5.42
-2.57
0.01
2.33
4.33
5.81
6.65
6.88
6.64
6.21
5.76
5.37
5.04
4.73
4.38
3.92
3.31
2.52
1.52
0.30
-1.08
-2.50
-3.90
-5.26
-6.61
-8.01
-9.48
-10.93
-12.23
-13.23
-13.90
-14.35
-14.80
-15.45
-16.37
-17.43
-18.31
-18.63
-18.09
-16.57
-14.19
-11.25
-8.12
-5.13
-2.46
-0.16
1.79
3.39
4.65
5.48
5.82
5.64
4.99
4.07
3.11
2.34
1.91
1.83
2.01
2.31
2.55
2.62
2.43
1.97
1.23
0.27
-0.88
-2.17
-3.52
-4.83
-6.00
-6.97
-7.73
-8.35
-8.96
-9.66
-10.53
-11.53
-12.52
-13.27
-13.54
-13.15
-11.98
-10.07
-7.54
-4.64
-1.68
1.09
3.45
5.36
6.85
7.96
8.76
9.25
9.44
9.37
9.12
8.78
8.43
8.13
7.83
7.52
7.19
6.89
6.68
6.62
6.70
6.83
6.91
6.80
6.45
5.82
4.96
3.91
2.76
1.56
0.33
-0.91
-2.19
-3.49
-4.88
-6.36
-7.94
-9.56
-11.10
-12.32
-12.97
-12.79
-11.60
-9.42
-6.40
-2.87
0.79
4.20
7.10
9.31
10.80
11.64
11.99
12.00
11.82
11.52
11.19
10.86
10.61
10.48
10.50
10.62
10.77
10.87
10.90
10.91
10.94
10.99
11.03
10.97
10.74
10.37
9.93
9.47
9.03
8.55
7.95
7.21
6.34
5.43
4.52
3.65
2.80
1.93
1.00
0.03
-0.98
-1.96
-2.93
-3.88
-4.82
-5.79
-6.79
-7.83
-8.93
-10.12
-11.39
-12.69
-13.90
-14.78
-15.10
-14.62
-13.24
-11.03
-8.20
-5.09
-2.00
0.78
3.09
4.84
6.03
6.68
6.87
6.75
6.53
6.41
6.54
6.97
7.58
8.19
8.66
8.92
9.02
9.06
9.09
9.12
9.03
8.71
8.10
7.24
6.28
5.37
4.66
4.19
3.96
3.92
3.96
3.97
3.82
3.41
2.73
1.86
0.95
0.14
-0.53
-1.11
-1.72
-2.43
-3.24
-4.06
-4.78
-5.37
-5.89
-6.48
-7.26
-8.23
-9.34
-10.45
-11.47
-12.34
-12.98
-13.32
-13.21
-12.53
-11.19
-9.23
-6.82
-4.22
-1.74
0.41
2.09
3.29
4.03
4.38
4.41
4.21
3.89
3.59
3.42
3.48
3.73
4.12
4.54
4.88
5.11
5.23
5.25
5.20
5.08
4.85
4.51
4.07
3.57
3.04
2.52
2.01
1.49
0.94
0.33
-0.29
-0.88
