1536159952.00
64.000000
-0.00
-0.00
-0.00
-0.00
-0.00
-0.00
-0.00
-0.00
-0.00
-0.00
0.00
0.01
0.01
-0.00
-0.03
-0.05
-0.05
0.00
0.13
0.36
0.66
1.01
1.37
1.72
2.06
2.40
2.79
3.24
3.80
4.42
5.06
5.66
6.20
6.68
7.15
7.68
8.31
9.14
10.09
11.04
11.88
12.56
13.14
13.76
14.65
15.96
17.91
20.32
22.90
25.38
27.58
29.57
31.68
34.32
37.81
42.54
48.15
54.10
59.83
64.97
69.58
74.14
79.34
85.71
93.76
103.00
112.62
121.73
129.77
136.75
143.30
150.75
157.77
166.64
177.95
191.79
206.97
220.57
228.25
225.36
208.53
176.87
132.76
80.05
23.07
-34.94
-92.44
-149.16
-205.23
-260.37
-313.74
-363.87
-409.83
-450.91
-486.50
-515.74
-537.23
-549.22
-549.96
-538.37
-514.21
-478.67
-433.88
-382.45
-327.02
-269.84
-212.63
-156.66
-102.95
-52.37
-5.90
35.58
71.43
101.35
125.50
144.38
158.69
169.15
176.37
180.75
182.57
182.07
179.51
175.23
169.65
163.18
156.15
148.81
141.30
133.69
126.02
118.33
110.69
103.16
95.80
88.68
81.83
75.25
68.95
62.95
57.25
51.86
46.78
42.03
37.59
33.45
29.61
26.07
22.81
19.83
17.11
14.67
12.48
10.54
8.83
7.35
6.07
4.97
4.05
3.27
2.62
2.09
1.65
1.30
1.01
0.79
0.61
0.48
0.37
0.29
0.22
0.18
0.14
0.11
0.09
0.08
0.07
0.06
0.05
0.05
0.04
0.04
0.04
0.03
0.04
0.04
0.04
0.05
0.06
0.08
0.10
0.12
0.15
0.18
0.22
0.26
0.30
0.35
0.40
0.45
0.50
0.56
0.62
0.68
0.75
0.81
0.89
0.97
1.05
1.14
1.24
1.35
1.46
1.60
1.74
1.90
2.08
2.28
2.49
2.73
3.01
3.30
3.63
4.00
4.40
4.84
5.33
5.86
6.43
7.05
7.71
8.41
9.17
9.97
10.81
11.70
12.62
13.60
14.64
15.73
16.89
18.11
19.37
20.64
21.89
23.02
23.97
24.62
24.84
24.52
23.60
21.99
19.68
16.72
13.15
9.09
4.69
0.07
-4.59
-9.13
-13.42
-17.32
-20.73
-23.58
-25.79
-27.38
-28.34
-28.68
-28.40
-27.53
-26.09
-24.07
-21.47
-18.23
-14.40
-9.98
-4.96
0.63
6.81
13.55
20.78
28.40
36.33
44.15
51.53
58.20
63.97
68.73
72.45
75.27
77.40
79.28
80.51
81.07
81.46
82.02
82.84
83.97
85.44
87.31
89.75
91.76
92.81
93.01
92.48
91.14
89.03
86.35
83.40
80.71
77.01
71.74
65.63
58.90
51.01
41.18
28.11
9.27
-9.58
-28.46
-47.18
-62.68
-73.37
-79.50
-81.30
-79.06
-73.14
-63.83
-55.78
-51.38
-46.23
-38.49
-29.74
-21.22
-14.04
-9.42
-8.56
-18.43
-42.53
-73.09
-105.69
-140.78
-177.48
-214.00
-248.61
-280.17
-315.06
-356.02
-391.94
-416.63
-431.12
-434.94
-426.93
-407.64
-340.47
-220.47
-123.76
-75.44
-60.61
-71.67
-95.48
-115.06
-115.79
-90.35
-46.80
3.18
58.82
113.14
153.55
174.34
177.12
167.76
154.46
141.78
136.60
153.65
205.59
279.80
349.24
390.64
397.83
380.18
350.22
314.10
278.38
240.51
191.97
128.86
58.06
-12.94
-79.92
-144.82
-211.95
-262.52
-284.38
-279.82
-259.07
-231.11
-200.43
-168.75
-138.30
-111.83
-90.31
-76.73
-74.20
-81.10
-91.26
-98.23
-98.17
-90.72
-78.18
-67.20
-60.30
-60.49
-68.05
-80.31
-93.80
-105.53
-113.45
-116.21
-113.04
-105.71
-98.41
-95.31
-99.17
-110.87
-129.02
-150.38
-170.90
-184.71
-189.15
-184.94
-174.55
-160.82
-145.87
-130.62
-115.06
-98.97
-82.51
-66.75
-53.23
-42.64
-34.49
-27.45
-20.13
-11.84
-2.79
6.12
13.60
18.61
20.93
21.11
20.14
18.95
18.02
17.24
16.08
13.84
10.04
4.69
-1.73
-8.51
-14.96
-20.70
-25.63
-29.93
-33.91
-37.74
-41.37
-44.54
-46.92
-48.26
-48.41
-47.44
-45.50
-42.83
-39.64
-36.06
-32.12
-27.79
-23.04
-17.79
-11.98
-5.51
1.71
9.81
18.90
29.07
40.39
52.82
66.27
80.53
95.36
110.43
125.39
139.82
153.34
165.56
176.13
184.82
191.49
196.11
198.84
199.89
199.54
198.09
195.83
193.00
189.81
186.42
182.96
179.47
175.96
172.28
168.15
163.19
156.92
148.91
138.82
126.50
112.02
95.61
77.60
58.34
38.17
17.45
-3.38
-23.70
-42.67
-59.32
-72.74
-82.28
-87.74
-89.36
-87.70
-83.32
-76.59
-67.51
-55.83
-41.30
-23.94
-4.34
16.42
37.14
56.88
75.31
92.87
110.53
129.43
150.60
174.80
202.44
233.41
266.81
300.83
332.97
360.69
382.42
398.21
409.64
418.90
427.37
434.62
438.50
436.20
425.73
406.99
381.77
352.84
322.67
292.70
263.29
234.40
206.21
179.41
154.98
133.52
114.80
97.83
81.23
63.99
45.90
27.59
10.19
-5.31
-18.52
-29.79
-40.06
-50.44
-61.75
-74.25
-87.45
-100.10
-110.30
-116.08
-116.00
-109.67
-97.92
-82.55
-65.77
-49.48
-34.85
-22.21
-11.68
-3.66
0.93
1.17
-3.26
-11.67
-22.31
-33.11
-42.07
-48.45
-52.86
-56.88
-61.96
-68.65
-76.65
-85.14
-93.49
-100.58
-106.44
-112.42
-120.94
-134.67
-155.90
-186.20
-224.75
-268.14
-307.94
-335.14
-343.83
-333.58
-308.70
-275.57
-240.49
-206.29
-173.79
-139.93
-104.19
-70.29
-43.96
-28.40
-21.75
-19.46
-15.69
-7.73
8.56
34.44
67.98
105.17
141.88
174.98
200.57
216.86
192.96
114.83
-6.75
-142.11
-263.73
-359.38
-422.70
-464.45
-491.08
-505.53
-504.38
-485.14
-451.80
-411.24
-370.26
-332.51
-299.34
-268.49
-237.97
-203.54
-163.84
-121.73
-82.50
-50.65
-27.36
-11.27
1.89
15.74
34.48
59.80
90.19
122.20
151.83
176.23
193.36
203.36
207.69
210.35
215.80
226.81
243.11
261.67
278.28
289.64
296.05
301.81
314.27
339.91
380.35
430.41
479.49
515.47
529.19
517.77
484.90
438.76
388.01
338.65
292.53
249.08
207.21
166.72
128.40
93.44
62.92
36.78
13.44
-10.13
-35.53
-62.80
-90.86
-118.98
-147.76
-178.37
-213.28
-255.63
-308.73
-369.74
-430.12
-478.51
-505.79
-508.33
-486.94
-447.38
-398.67
-352.72
-315.12
-285.75
-260.98
-237.21
-211.37
-177.82
-130.71
-66.61
10.23
95.88
185.31
272.08
347.40
385.61
367.79
295.23
212.64
141.43
91.29
60.14
47.54
49.82
61.10
78.04
98.63
120.17
134.12
134.54
117.33
81.23
27.66
-37.18
-101.12
-151.48
-181.25
-195.00
-200.83
-207.18
-218.87
-236.37
-256.24
-272.61
-281.42
-282.57
-280.52
-277.41
-272.23
-261.89
-244.71
-222.03
-197.55
-175.97
-160.85
-153.82
-152.44
-151.87
-147.17
-135.34
-115.72
-89.43
-58.80
-26.77
3.54
30.46
54.12
76.21
99.16
124.97
154.33
186.15
217.72
245.63
266.68
278.80
281.32
274.63
259.67
237.51
209.29
176.60
141.71
107.38
76.04
48.90
25.66
4.83
-15.20
-35.20
-54.72
-72.50
-87.24
-98.28
-105.91
-111.28
-116.28
-123.28
-134.39
-150.45
-170.13
-189.77
-204.33
-209.23
-201.99
-183.22
-156.07
-124.57
-91.84
-59.27
-26.59
7.49
44.68
87.18
136.23
190.48
244.76
290.30
317.12
317.87
291.14
242.73
185.26
133.11
98.09
86.28
97.31
125.54
161.97
196.51
220.11
228.62
222.35
205.74
185.73
169.31
161.12
161.91
168.64
175.61
179.05
176.48
167.52
153.83
138.88
126.92
121.56
124.46
122.72
107.86
77.75
38.49
-0.08
-29.69
-45.87
-47.63
-35.53
-14.91
10.09
34.24
51.47
56.47
47.00
24.97
-4.84
-34.57
-58.14
-72.36
-79.65
-86.07
-98.17
-119.72
-150.64
-188.01
-228.25
-269.35
-309.33
-346.39
-377.85
-399.92
-408.51
-400.63
-375.36
-333.76
-278.15
-209.76
-128.90
-35.83
67.16
174.00
274.77
357.77
413.07
435.69
427.58
396.37
352.28
304.64
259.35
218.37
180.81
144.82
108.74
71.58
32.66
-8.28
-50.75
-92.76
-130.79
-160.60
-178.87
-184.87
-180.93
-171.61
-161.87
-155.23
-152.83
-153.63
-155.43
-155.89
-153.36
-146.97
-136.58
-122.70
-106.40
-89.35
-73.50
-60.55
-51.51
-46.40
-44.23
-43.48
-42.66
-40.74
-37.44
-33.06
-28.13
-23.14
-18.36
-13.84
-9.70
-6.30
-4.29
-4.44
-7.28
-12.84
-20.51
-29.35
-38.52
-47.69
-57.33
-68.38
-81.84
-98.01
-116.27
-135.25
-153.21
-168.40
-179.20
-184.52
-184.28
-179.99
-174.65
-171.95
-174.72
-183.47
-195.63
-206.30
-210.23
-203.84
-186.65
-160.48
-128.64
-94.87
-63.13
-37.56
-22.28
-20.78
-35.03
-65.31
-109.05
-161.04
-213.96
-259.04
-287.33
-291.44
-267.84
-218.25
-150.26
-74.12
0.34
66.05
119.64
160.52
189.25
206.17
215.03
215.54
207.01
190.55
169.39
147.29
126.65
108.09
90.89
74.56
58.49
43.25
30.13
19.87
12.94
8.57
5.25
1.51
-2.94
-8.08
-12.94
-16.20
-16.95
-15.04
-10.71
-3.82
2.83
8.69
13.77
18.93
25.44
34.52
46.75
61.22
75.14
84.05
83.69
71.24
47.42
16.90
-13.21
-36.12
-48.00
-49.13
-43.00
-33.66
-23.86
-14.13
-3.42
9.52
25.11
42.81
61.89
82.06
103.80
127.54
152.45
175.77
193.36
201.39
198.06
184.48
164.14
141.33
119.83
101.17
84.66
68.54
51.51
33.52
15.53
-1.50
-17.34
-30.75
-41.06
-48.24
-52.86
-55.55
-56.89
-57.50
-58.36
-60.86
-62.33
-60.01
-52.24
-38.98
-21.11
0.74
26.29
54.98
85.26
121.37
166.26
219.76
278.13
336.19
390.29
439.48
484.70
527.12
575.88
637.28
711.42
791.52
867.40
930.33
975.51
1001.63
965.11
844.01
644.36
402.19
163.28
-40.21
-197.02
-310.79
-386.63
-440.69
-475.88
-492.19
-491.54
-480.16
-466.37
-456.86
-452.49
-451.82
-453.32
-449.14
-434.18
-408.30
-376.31
-345.11
-320.10
-303.61
-295.77
-295.72
-297.29
-295.16
-286.74
-272.86
-256.47
-240.53
-226.90
-216.39
-209.28
-202.75
-194.40
-183.27
-170.17
-157.00
-145.51
-136.69
-130.84
-127.73
-125.62
-122.52
-116.81
-107.59
-94.88
-79.56
-63.20
-47.77
-35.06
-25.80
-19.39
-13.99
-6.97
4.25
21.29
44.16
71.14
99.17
124.83
145.11
158.03
162.85
159.90
150.36
135.92
118.66
100.80
84.72
72.43
65.02
62.25
62.47
63.02
61.07
54.65
43.53
29.87
17.08
8.24
4.60
5.08
7.19
8.62
8.54
7.86
9.16
14.36
23.70
35.32
46.32
54.31
58.28
58.44
55.43
50.74
45.41
40.48
36.83
35.44
37.56
44.22
55.51
63.87
62.42
47.19
20.14
-12.94
-46.05
-75.17
-98.47
-115.63
-127.29
-132.38
-131.52
-125.16
-114.50
-101.35
-87.59
-74.77
-63.77
-54.67
-45.76
-37.30
-28.57
-19.49
-10.72
-3.10
3.13
8.85
16.08
27.73
45.78
70.59
99.47
127.18
147.40
154.61
145.55
120.11
81.61
35.55
-11.44
-53.88
-88.61
-115.01
-134.34
-148.78
-160.33
-170.27
-179.19
-186.97
-193.15
-196.86
-196.68
-190.74
-177.33
-155.78
-127.06
-93.92
-60.10
-29.32
-4.26
14.00
25.98
33.42
38.65
43.96
51.14
61.21
74.20
89.53
106.19
123.26
140.05
155.93
170.16
181.59
188.78
190.43
186.26
177.55
167.30
159.54
157.97
164.49
178.16
195.40
211.14
220.79
221.93
214.95
202.42
187.64
173.09
159.67
147.01
134.41
121.72
109.64
99.23
91.13
84.92
79.25
72.33
62.78
50.16
34.95
18.19
1.00
-15.70
-31.42
-46.21
-60.67
-75.83
-92.78
-112.04
-132.95
-153.60
-171.19
-183.06
-187.66
-185.04
-176.68
-164.79
-151.44
-138.08
-125.45
-113.83
-103.39
-94.31
-86.80
-80.91
-76.43
-72.91
-69.74
-66.45
-62.90
-59.41
-56.61
-55.09
-55.07
-56.11
-57.17
-56.97
-54.51
-49.49
-42.50
-34.83
-27.98
-23.06
-20.45
-19.69
-19.87
-20.08
-19.77
-18.97
-17.99
-17.12
-16.33
-15.22
-13.22
-9.87
-5.07
0.91
7.54
14.14
19.99
24.42
26.95
27.40
26.03
23.50
20.76
18.70
17.95
18.63
20.47
22.95
25.45
27.49
28.72
29.07
28.66
27.79
26.75
25.63
24.20
22.07
18.92
14.83
10.41
6.60
4.20
3.47
3.87
4.24
3.35
0.45
-4.48
-10.73
-17.30
-23.26
-28.03
-31.33
-33.01
-32.86
-30.59
-25.93
-18.92
-10.00
-0.00
9.97
18.88
26.03
31.16
34.44
36.37
37.56
38.63
40.10
42.38
45.74
50.20
55.37
60.49
64.53
66.76
67.10
66.35
65.98
67.55
72.13
79.99
90.68
103.34
116.75
129.22
138.31
141.22
135.52
120.18
96.15
66.17
33.70
1.85
-27.20
-51.94
-71.01
-83.00
-86.87
-82.79
-72.71
-60.05
-48.68
-41.61
-39.85
-42.22
-45.66
-46.02
-39.04
-21.30
8.76
50.07
98.90
149.54
195.62
231.56
253.61
260.15
251.40
229.14
196.31
156.79
114.87
74.68
39.30
10.27
-12.48
-30.09
-43.99
-55.22
-63.99
-69.87
-72.13
-70.11
-63.64
-53.18
-39.94
-25.75
-12.73
-2.88
2.39
2.63
-1.61
-8.91
-17.54
-25.81
-32.48
-36.80
-38.33
-36.66
-31.30
-21.84
-8.33
8.46
26.96
45.09
60.78
72.27
78.22
77.64
69.82
54.55
32.52
5.54
-23.61
-52.01
-77.52
-99.35
-117.99
-134.70
-150.70
-166.71
-182.87
-199.01
-214.93
-230.54
-245.90
-260.95
-275.53
-289.25
-301.66
-312.22
-320.39
-325.78
-328.42
-328.79
-327.56
-324.90
-319.79
-309.73
-291.31
-261.29
-218.12
-162.81
-98.94
-31.74
33.33
91.91
141.49
181.54
213.07
237.83
257.45
272.79
283.58
288.73
287.09
278.40
263.75
245.43
226.00
207.26
189.58
172.09
153.46
132.84
110.33
86.85
63.56
41.26
20.29
0.83
-16.71
-31.39
-41.95
-47.38
-47.30
-42.30
-33.59
-22.56
-10.21
3.05
17.34
32.83
49.27
65.64
80.24
91.24
97.39
98.58
95.79
90.58
84.30
77.50
70.04
61.61
52.52
44.03
37.97
35.87
38.10
43.60
50.22
55.75
58.72
58.91
57.10
54.53
52.35
51.18
51.05
51.37
50.93
48.07
40.87
27.74
8.09
-17.04
-44.84
-71.26
-92.31
-105.36
-110.21
-109.29
-106.90
-107.86
-115.89
-132.35
-155.79
-182.60
-208.28
-229.13
-243.27
-250.82
-253.16
-251.97
-248.34
-242.61
-234.66
-224.37
-211.88
-197.46
-181.47
-164.26
-146.48
-129.28
-114.14
-102.29
-93.89
-87.59
-80.67
-69.87
-52.61
-28.13
1.95
33.72
62.12
82.52
92.16
90.94
81.14
66.38
50.50
36.63
26.99
22.89
24.71
31.66
41.54
50.90
55.91
53.65
43.24
26.03
4.93
-16.74
-36.05
-50.56
-57.88
-55.47
-41.24
-15.01
20.19
57.93
89.92
108.74
110.50
95.97
69.62
37.25
3.48
-29.44
-61.26
-92.31
-121.97
-148.21
-168.27
-179.77
-181.89
-175.75
-163.98
-149.80
-136.11
-124.54
-114.98
-105.95
-95.60
-82.94
-68.85
-55.70
-46.06
-40.93
-38.83
-36.50
-30.66
-20.03
-5.94
8.80
22.24
35.22
51.37
74.77
106.64
143.19
176.18
196.24
197.03
178.16
145.32
107.88
75.20
53.72
45.75
50.02
63.19
81.30
100.61
117.98
131.23
139.63
144.07
146.65
149.63
154.20
159.84
164.38
164.76
158.16
142.91
118.84
87.23
50.54
11.88
-25.58
-59.43
-88.88
-115.33
-142.04
-172.81
-209.79
-251.67
-293.41
-327.65
-347.55
-349.38
-333.57
-303.84
-265.05
-221.48
-176.44
-132.99
-94.94
-66.61
-51.33
-49.44
-57.34
-68.32
-75.15
-72.96
-60.77
-41.18
-18.60
2.95
21.26
36.19
48.96
61.22
74.46
89.94
108.84
132.14
160.06
191.39
222.88
249.61
266.26
268.78
255.83
229.10
192.62
151.32
109.82
71.72
39.70
15.74
1.19
-3.48
0.77
11.62
25.73
39.76
51.36
59.75
65.72
70.97
77.21
85.40
95.42
106.21
116.03
122.91
125.09
121.53
112.14
97.90
80.63
62.36
44.84
29.05
15.26
3.42
-6.37
-13.45
-16.77
-15.33
-8.81
1.89
14.56
26.05
33.17
33.92
28.26
18.29
7.36
-1.39
-6.07
-6.48
-3.39
2.53
11.43
24.20
41.53
62.90
85.86
106.51
120.55
124.65
117.39
99.50
73.46
42.93
12.16
-14.54
-33.06
-39.83
-32.30
-9.59
26.77
72.57
121.46
166.12
200.04
218.84
220.93
207.35
181.07
146.08
106.72
67.06
30.45
-0.81
-25.55
-43.65
-55.58
-61.89
-63.04
-59.52
-52.26
-42.80
-33.10
-25.00
-19.62
-17.24
-17.47
-19.76
-23.68
-29.03
-35.62
-43.01
-50.49
-57.29
-62.90
-67.23
-70.59
-73.45
-76.14
-78.81
-81.37
-83.70
-85.78
-87.65
-89.42
-91.25
-93.33
-95.94
-99.44
-104.07
-109.89
-116.69
-124.07
-131.65
-139.15
-146.38
-153.19
-159.26
-163.99
-166.47
-165.61
-160.50
-150.82
-137.11
-120.84
-104.04
-88.62
-75.73
-65.50
-57.26
-50.17
-43.78
-38.20
-33.68
-30.16
-26.84
-22.32
-15.09
-4.00
11.37
30.60
52.41
74.81
95.32
111.37
121.01
123.40
119.19
110.26
99.14
88.24
79.33
73.44
70.86
71.30
73.90
77.28
79.83
80.10
77.39
71.96
65.00
58.02
52.21
47.81
43.87
38.36
28.60
11.90
-13.64
-48.20
-89.51
-132.84
-172.23
-202.34
-220.43
-227.01
-225.06
-218.00
-207.65
-193.45
-173.30
-145.23
-108.83
-65.50
-17.61
32.69
83.83
134.37
182.15
224.14
257.26
279.66
291.76
295.99
295.61
293.23
289.93
285.28
278.28
268.31
255.71
241.54
226.97
212.62
198.40
183.69
167.74
150.09
130.47
108.77
84.97
59.33
32.66
6.44
-17.39
-37.10
-51.90
-62.29
-69.77
-76.07
-82.40
-89.16
-96.26
-103.81
-112.35
-122.54
-134.39
-146.66
-156.88
-162.20
-160.66
-152.25
-139.09
-124.73
-112.82
-105.84
-104.44
-107.63
-113.46
-119.83
-125.23
-128.97
-131.14
-132.37
-133.47
-135.14
-137.84
-141.61
-145.91
-149.34
-149.57
-143.76
-129.40
-105.60
-74.04
-39.05
-6.57
17.85
31.01
33.06
26.97
17.01
6.97
-0.67
-4.74
-4.60
0.55
11.45
28.16
49.31
72.08
93.01
109.29
119.79
125.33
127.99
129.95
132.51
135.87
139.42
142.50
144.79
146.26
146.65
145.06
139.92
129.65
113.64
93.03
70.73
50.76
36.83
31.12
33.54
41.98
53.17
63.96
72.25
77.49
80.49
82.72
85.32
88.68
92.59
96.68
100.94
105.81
111.86
119.25
127.34
134.48
138.95
139.96
138.40
136.71
137.81
143.97
155.88
172.62
191.68
210.36
226.85
240.49
251.06
257.85
259.42
254.09
240.86
218.96
188.49
150.55
106.92
59.52
9.92
-40.68
-91.05
-139.79
-186.86
-232.87
-278.10
-321.68
-361.75
-396.25
-423.68
-443.36
-446.66
-426.56
-381.52
-317.72
-246.11
-176.78
-115.63
-64.45
-22.47
10.53
36.20
55.20
67.98
75.65
79.87
82.10
83.09
82.83
82.99
83.51
83.44
82.02
79.14
75.25
70.90
66.50
62.59
59.97
58.81
58.80
59.42
60.02
59.72
57.11
50.97
40.88
27.66
12.23
-4.54
-21.94
-39.46
-57.21
-76.54
-99.68
-128.67
-163.65
-202.19
-238.24
-263.01
-267.45
-245.42
-196.47
-125.12
-38.95
54.07
145.00
225.09
286.34
322.72
331.46
312.22
269.16
209.99
145.64
83.51
28.89
-14.18
-41.56
-51.20
-48.96
-44.62
-48.25
-62.45
-89.36
-126.49
-168.13
-206.82
-237.98
-267.80
-304.05
-350.38
-397.84
-442.21
-480.69
-512.83
-537.46
-553.88
-569.75
-590.63
-616.70
-635.36
-645.05
-648.39
-650.08
-651.24
-602.11
-476.79
-284.42
-115.68
4.98
73.03
108.51
121.90
124.97
129.30
136.05
144.23
153.24
185.99
241.82
306.21
361.65
401.69
429.37
444.50
446.91
438.24
429.11
423.81
424.66
431.47
443.62
458.16
466.79
462.96
445.43
419.96
389.66
356.79
322.15
286.99
252.07
216.09
178.41
139.74
103.55
70.10
38.75
9.08
-18.06
-41.81
-62.94
-83.03
-103.79
-125.86
-150.37
-178.22
-209.96
-245.42
-283.61
-322.23
-357.40
-384.50
-399.79
-402.27
-394.52
-381.82
-370.11
-363.98
-365.55
-374.81
-390.73
-412.04
-436.77
-461.41
-480.33
-486.60
-474.36
-441.41
-390.52
-328.56
-263.90
-203.46
-150.83
-106.18
-67.62
-33.05
-1.28
27.77
53.68
76.28
95.96
113.58
129.95
145.42
159.62
171.60
180.21
184.57
184.40
180.11
172.66
163.20
152.72
141.76
130.47
118.85
107.06
95.64
85.65
78.38
75.13
76.89
84.36
97.93
117.60
142.62
171.03
199.41
223.30
238.25
241.25
231.89
212.58
187.63
161.71
138.36
119.45
105.46
96.42
92.63
94.54
102.09
113.89
126.94
137.35
141.69
138.33
128.14
114.06
99.96
89.34
84.31
84.95
89.29
93.67
93.33
83.31
59.78
21.26
-30.33
-89.46
-147.87
-196.29
-226.72
-234.19
-217.70
-180.32
-128.91
-72.89
-22.77
12.23
26.96
22.05
3.55
-19.75
-40.47
-55.73
-67.47
-79.65
-94.47
-110.19
-122.08
-125.70
-119.91
-107.36
-92.13
-76.42
-59.42
-39.13
-15.84
5.82
18.39
15.79
-2.33
-29.28
-54.18
-67.22
-64.04
-46.79
-21.98
3.75
26.78
47.29
67.92
91.68
120.54
155.15
195.07
238.67
282.71
321.98
349.83
359.78
347.52
312.92
260.56
198.53
135.96
80.33
35.74
2.80
-20.26
-36.07
-46.94
-54.65
-60.69
-66.38
-72.22
-77.18
-78.30
-71.45
-53.33
-23.58
14.22
53.37
86.61
108.86
118.87
119.19
114.54
109.67
107.72
109.55
114.05
118.94
121.64
119.89
112.18
98.06
78.06
53.41
25.53
-4.43
-35.74
-67.95
-100.58
-132.94
-164.15
-193.42
-220.10
-243.61
-263.30
-278.17
-286.81
-287.62
-279.23
-261.30
-234.99
-203.10
-169.48
-137.90
-111.05
-90.09
-75.04
-65.53
-61.43
-62.53
-67.43
-72.61
-72.30
-59.95
-30.86
15.46
74.16
135.87
189.36
224.68
236.27
224.62
196.07
160.84
129.92
111.94
111.05
126.53
154.21
188.71
225.62
262.62
299.40
336.81
375.80
416.50
457.67
496.40
528.35
548.49
552.47
538.02
505.93
459.99
405.99
349.95
296.33
246.97
201.35
157.71
114.44
70.81
26.66
-18.34
-65.20
-115.14
-168.57
-224.36
-280.00
-332.66
-380.53
-423.26
-461.36
-494.80
-522.11
-540.50
-546.94
-539.58
-518.55
-485.81
-444.32
-397.23
-347.34
-297.11
-248.89
-205.01
-167.65
-138.34
-117.38
-103.31
-92.84
-81.51
-64.92
-40.18
-6.99
32.32
73.74
113.09
147.57
176.45
200.95
223.31
245.53
268.32
290.77
310.53
324.74
331.22
329.25
319.82
305.31
288.83
273.48
261.95
256.35
257.75
266.05
279.36
293.80
304.04
305.05
294.67
275.50
254.59
240.59
239.40
250.65
267.30
278.66
275.40
253.87
216.94
171.73
125.46
82.15
41.96
3.05
-35.81
-73.75
-107.93
-135.29
-154.26
-165.56
-171.71
-175.90
-180.49
-185.99
-191.18
-193.98
-192.76
-187.43
-179.69
-172.26
-167.64
-166.94
-169.62
-174.04
-178.48
-182.03
-184.82
-187.63
-191.29
-196.06
-201.44
-206.49
-210.27
-212.27
-212.56
-211.72
-210.44
-209.30
-208.48
-207.71
-206.43
-204.03
-200.16
-194.81
-188.45
-181.65
-174.78
-167.60
-159.17
-148.00
-132.56
-111.82
-85.68
-55.22
-22.66
8.97
36.48
57.23
69.78
74.21
71.98
65.48
57.30
49.85
45.01
44.19
48.24
57.28
70.55
86.38
102.50
116.61
127.10
133.51
136.62
138.06
139.41
141.56
144.19
145.74
143.92
136.57
122.54
102.21
77.38
50.11
22.27
-5.07
-31.60
-57.41
-82.38
-105.83
-126.62
-143.60
-157.01
-167.63
-176.36
-183.65
-189.58
-194.26
-198.27
-202.81
-209.03
-218.80
-231.64
-244.07
-250.54
-245.99
-228.41
-199.73
-165.29
-131.85
-108.59
-102.31
-115.91
-147.96
-193.65
-245.94
-296.31
-335.82
-356.97
-359.31
-346.26
-323.37
-296.25
-269.60
-247.22
-231.43
-222.90
-199.41
-148.60
-71.25
18.54
103.40
172.42
222.45
255.20
274.43
284.18
284.16
273.52
252.40
222.29
185.68
145.00
103.47
65.82
38.16
23.40
22.16
33.05
52.45
75.65
98.20
115.57
122.98
118.19
101.54
76.70
49.18
22.61
0.62
-16.38
-26.78
-28.22
-18.45
2.34
30.36
63.00
97.39
131.11
162.65
192.49
221.94
252.69
285.23
319.66
357.36
396.80
432.94
458.27
466.16
453.36
422.31
380.19
322.20
255.04
191.09
140.55
104.76
77.36
49.13
16.88
-23.66
-72.18
-123.38
-170.90
-209.97
-239.32
-256.86
-264.06
-264.78
-264.68
-268.55
-278.60
-293.97
-310.50
-321.44
-319.43
-299.76
-262.38
-212.77
-151.11
-85.04
-25.13
21.55
55.26
81.71
107.12
134.36
163.15
190.31
210.16
217.80
210.94
190.46
158.60
120.80
83.31
50.68
24.49
2.65
-17.88
-39.62
-64.05
-91.69
-122.03
-153.82
-184.90
-212.35
-233.59
-245.94
-247.43
-238.03
-220.18
-197.82
-175.06
-154.46
-136.11
-118.24
-98.16
-74.37
-48.20
-24.31
-8.99
-7.47
-21.05
-45.84
-73.98
-96.68
-108.18
-108.12
-101.16
-93.92
-91.33
-94.41
-100.58
-106.09
-108.75
-109.25
-109.95
-112.75
-117.48
-122.00
-123.75
-121.50
-116.08
-109.82
-105.10
-103.24
-104.05
-106.21
-108.31
-109.70
-110.68
-112.35
-115.69
-120.65
-125.66
-127.91
-124.35
-113.07
-93.86
-68.15
-38.30
-6.53
25.86
58.66
92.06
125.71
158.42
188.43
214.77
237.72
259.05
281.21
306.21
334.33
363.65
390.60
411.33
423.99
428.41
425.61
416.82
402.95
384.46
361.76
335.58
307.31
280.33
257.62
240.68
228.90
220.30
212.54
203.87
193.42
181.31
170.94
165.23
165.25
169.73
176.17
182.07
185.39
184.17
176.41
163.68
147.66
129.76
111.11
93.37
78.81
69.59
66.46
48.13
3.20
-66.98
-148.71
-225.99
-289.28
-336.71
-370.33
-393.26
-407.76
-411.75
-403.70
-384.03
-356.53
-326.07
-296.95
-271.21
-249.28
-230.21
-209.60
-183.39
-149.34
-107.62
-59.85
-12.05
30.54
63.03
81.82
87.15
81.63
69.36
54.62
41.13
31.32
26.74
27.36
32.22
40.70
51.86
64.25
75.89
84.71
89.13
88.80
84.23
76.85
68.91
62.52
59.06
58.61
60.15
62.08
63.24
63.08
61.75
59.66
57.04
53.58
48.49
41.01
30.92
18.98
6.62
-4.61
-13.71
-20.81
-27.12
-34.71
-45.46
-59.85
-76.08
-90.47
-98.85
-98.50
-89.59
-75.24
-60.47
-49.96
-45.99
-47.71
-52.20
-56.73
-60.51
-65.08
-72.93
-85.83
-103.29
-122.10
-137.29
-144.27
-141.03
-128.26
-108.34
-83.56
-55.98
-27.80
-1.91
18.34
30.10
32.36
27.72
22.13
24.86
42.66
74.33
109.60
135.16
142.77
132.37
111.48
87.08
63.64
42.51
23.01
4.31
-13.54
-27.58
-36.54
-41.02
-43.30
-45.53
-49.11
-54.22
-59.78
-63.88
-64.71
-61.84
-56.09
-49.24
-43.10
-39.10
-37.97
-39.29
-41.54
-42.75
-41.73
-38.43
-33.95
-29.79
-27.28
-27.02
-28.73
-31.43
-33.89
-35.41
-35.70
-34.82
-32.82
-29.69
-25.51
-20.55
-15.38
-10.78
-7.60
-6.32
-6.92
-8.81
-11.16
-13.05
-13.82
-13.09
-10.82
-7.44
-3.81
-0.97
0.18
-0.80
-3.65
-7.50
-11.39
-14.57
-16.91
-18.77
-20.77
-23.49
-27.28
-32.19
-37.85
-43.43
-47.57
-48.57
-44.90
-35.86
-22.09
-5.58
10.88
24.66
34.13
38.94
39.74
37.58
33.43
27.89
21.47
14.75
8.47
3.39
-0.08
-2.17
-3.76
-6.17
-10.74
-18.44
-29.56
-43.63
-59.58
-76.03
-91.73
-105.90
-118.40
-129.66
-140.49
-151.83
-164.66
-179.77
-197.30
-216.26
-234.11
-246.90
-250.26
-240.85
-217.91
-183.88
-143.88
-104.19
-70.35
-45.64
-30.54
-23.24
-20.59
-19.29
-16.70
-11.08
-1.55
12.22
30.04
51.14
73.98
96.36
115.68
129.70
137.19
138.25
134.19
127.03
118.89
111.55
106.30
103.86
104.34
107.28
111.74
116.60
121.04
124.94
128.86
133.74
140.23
148.26
156.98
165.10
171.41
175.30
176.72
176.00
173.34
168.54
161.12
150.74
137.71
123.15
108.75
96.07
86.01
78.61
73.24
69.15
65.85
63.15
60.93
58.82
56.17
52.30
46.88
40.17
32.95
26.17
20.53
16.18
12.87
10.00
7.10
4.05
1.20
-0.76
-0.94
1.36
6.42
13.76
22.12
29.59
34.19
34.47
30.17
22.37
13.16
4.88
-0.68
-2.84
-1.93
1.05
5.06
9.28
13.09
15.87
16.93
15.67
11.91
6.20
-0.28
-6.09
-10.06
-11.68
-11.25
-9.55
-7.49
-5.80
-4.90
-5.00
-6.23
-8.63
-12.03
-15.86
-19.14
-20.65
-19.36
-14.89
-7.73
0.77
8.79
14.55
16.62
14.15
6.83
-5.20
-21.20
-39.71
-58.56
-75.10
-86.81
-91.99
-90.24
-82.60
-71.17
-58.53
-47.10
-38.72
-34.45
-34.63
-39.00
-46.83
-57.07
-68.54
-79.99
-90.33
-98.67
-104.49
-107.71
-108.71
-108.26
-107.29
-106.64
-106.65
-106.83
-105.72
-101.19
-91.14
-74.56
-52.22
-26.67
-1.30
21.05
39.06
53.06
64.15
73.11
79.85
83.78
84.79
83.90
82.95
83.58
86.14
89.44
91.53
91.06
88.06
83.79
79.72
76.38
73.10
68.62
62.18
54.28
46.55
40.83
38.23
38.70
41.48
45.89
51.87
59.82
69.81
80.71
89.94
94.27
91.10
79.65
61.34
39.29
17.27
-1.37
-14.24
-20.12
-18.78
-10.90
2.21
18.89
37.63
57.51
78.18
99.50
120.90
141.02
157.87
169.55
175.10
174.91
170.33
162.98
153.90
143.37
131.11
116.90
101.07
84.49
68.21
52.96
38.94
25.86
13.28
1.03
-10.67
-21.23
-30.04
-36.68
-41.11
-43.72
-45.20
-46.52
-48.75
-52.87
-59.50
-68.54
-79.03
-89.24
-97.03
-100.47
-98.46
-91.21
-80.24
-68.02
-57.20
-49.74
-46.30
-46.24
-48.12
-50.65
-53.44
-57.49
-65.07
-79.07
-102.10
-135.45
-178.15
-226.27
-273.06
-309.90
-328.32
-322.31
-290.34
-236.13
-167.63
-94.74
-26.44
31.45
77.34
113.49
144.60
175.87
211.10
251.50
295.41
339.09
378.21
409.56
432.10
447.10
457.05
464.23
469.39
471.42
467.93
456.57
436.13
407.08
371.15
330.53
287.19
242.62
198.10
155.11
115.54
81.19
53.12
31.05
13.35
-2.27
-17.73
-33.74
-49.60
-63.75
-74.74
-82.22
-87.25
-92.00
-98.88
-109.58
-124.57
-143.20
-164.25
-186.65
-209.85
-233.77
-258.24
-282.56
-305.28
-324.62
-339.24
-348.89
-354.59
-358.08
-360.91
-363.61
-365.47
-364.81
-359.60
-347.83
-327.72
-297.92
-257.98
-209.05
-154.32
-98.85
-48.41
-7.92
19.94
35.07
39.30
35.13
24.90
10.60
-5.70
-21.67
-35.04
-44.40
-50.00
-53.67
-58.14
-65.73
-77.44
-92.73
-110.11
-128.00
-145.35
-161.81
-177.41
-192.18
-205.99
-218.63
-230.09
-240.55
-250.20
-258.86
-265.69
-269.18
-267.61
-259.57
-244.46
-222.73
-195.59
-164.76
-132.08
-99.42
-68.53
-41.15
-18.83
-2.73
6.72
10.04
8.60
4.28
-0.99
-5.54
-8.18
-7.99
-4.32
3.16
14.27
28.04
42.79
56.37
66.75
72.42
72.66
67.51
57.81
45.27
32.46
22.53
18.29
21.04
29.81
41.39
51.34
55.63
52.08
40.82
23.88
4.10
-15.70
-33.16
-46.23
-53.04
-51.88
-41.68
-22.42
4.65
37.27
72.69
108.26
141.66
170.81
193.64
207.99
211.83
203.79
183.92
154.17
118.53
82.37
51.19
29.19
17.98
16.16
19.95
24.56
25.88
21.80
12.76
1.32
-8.98
-14.92
-14.67
-8.55
1.16
11.00
17.79
19.90
17.85
13.69
9.68
6.84
4.43
0.41
-7.15
-18.86
-33.52
-48.71
-61.87
-71.19
-75.79
-75.56
-70.92
-62.90
-53.31
-44.48
-38.48
-36.06
-35.94
-35.27
-30.87
-21.04
-6.68
8.70
20.55
25.30
21.98
12.68
1.82
-5.35
-4.65
5.42
23.17
44.52
64.96
81.52
94.07
104.90
117.07
132.48
150.66
168.94
183.73
192.04
192.68
186.64
176.46
165.32
156.19
151.00
150.30
153.17
157.64
161.31
162.43
160.46
156.00
150.43
145.22
141.65
140.58
142.57
147.75
155.58
164.68
172.95
178.41
180.30
180.53
184.00
197.15
225.33
269.54
324.46
379.28
420.86
438.84
429.57
396.71
348.68
294.81
241.90
192.87
147.76
105.26
64.32
24.41
-15.11
-55.79
-98.98
-144.16
-187.85
-223.88
-246.44
-252.20
-241.85
-220.11
-195.32
-175.16
-164.04
-162.28
-166.43
-173.89
-182.76
-191.54
-199.15
-207.50
-218.05
-230.73
-243.57
-251.82
-254.82
-253.51
-248.83
-242.10
-238.86
-243.30
-256.25
-274.63
-290.53
-302.87
-313.62
-325.13
-339.88
-364.65
-403.20
-453.89
-509.58
-556.84
-591.27
-612.89
-623.02
-585.10
-478.35
-308.40
-109.11
49.86
159.92
228.87
266.88
291.05
309.81
321.70
323.26
312.89
293.34
274.80
260.65
251.67
247.89
247.39
243.56
231.00
208.59
180.32
156.06
139.17
129.28
124.60
122.12
117.14
107.07
92.73
78.22
70.59
71.74
80.18
92.70
105.07
112.76
113.22
106.55
94.96
82.27
69.74
57.26
44.42
31.04
17.21
3.61
-8.80
-19.01
-25.96
-29.75
-30.97
-30.46
-29.14
-27.83
-27.08
-27.08
-27.66
-28.44
-29.14
-29.72
-30.38
-31.43
-33.04
-35.14
-37.47
-39.67
-41.47
-42.83
-43.92
-45.12
-46.80
-49.26
-52.56
-56.52
-60.80
-65.04
-69.02
-72.69
-76.14
-79.47
-82.79
-86.17
-89.75
-93.73
-98.25
-103.18
-107.82
-110.91
-110.88
-106.44
-97.19
-83.97
-68.79
-54.30
-43.01
-36.55
-35.17
-37.64
-41.47
-43.63
-41.48
-33.55
-20.04
-2.75
15.57
32.01
44.32
51.33
53.14
51.12
47.76
46.30
49.80
60.04
76.34
95.28
111.61
120.19
118.09
105.84
87.00
66.53
48.72
35.73
27.45
22.47
19.24
16.90
15.33
14.60
14.48
14.19
12.45
7.66
-1.89
-17.86
-41.53
-73.39
-112.62
-156.70
-201.70
-243.01
-276.69
-300.37
-313.71
-318.14
-316.11
-310.45
-303.78
-297.99
-293.85
-290.59
-285.91
-276.46
-259.09
-232.28
-197.14
-157.35
-117.73
-82.30
-52.72
-28.05
-5.86
16.02
38.19
59.59
78.44
93.56
105.35
115.80
127.55
142.55
160.92
180.54
197.66
208.11
208.72
198.55
179.36
155.28
131.54
113.12
103.34
103.11
110.90
123.20
135.25
141.89
138.52
122.17
92.49
52.06
5.80
-40.52
-81.89
-115.16
-139.17
-154.02
-160.13
-157.80
-147.47
-130.43
-109.11
-86.67
-66.05
-49.14
-36.43
-27.55
-21.98
-19.29
-18.71
-18.56
-16.00
-7.59
9.35
35.81
70.45
110.41
152.64
195.17
237.65
281.02
326.45
374.38
423.79
472.14
515.86
550.85
573.34
580.51
571.00
545.18
504.99
453.35
393.41
328.04
259.63
190.61
123.99
63.53
13.11
-24.52
-49.05
-63.20
-71.86
-80.44
-92.71
-109.48
-128.89
-147.63
-162.67
-172.50
-177.32
-178.42
-177.28
-174.90
-171.73
-167.94
-163.69
-159.45
-155.93
-153.81
-153.40
-154.30
-155.42
-155.35
-153.01
-148.26
-142.07
-136.01
-131.45
-128.66
-126.68
-123.72
-118.05
-108.81
-96.15
-80.95
-64.23
-46.93
-29.97
-14.55
-2.06
6.40
10.65
11.86
12.01
12.89
15.00
17.21
17.41
13.95
6.72
-2.34
-9.91
-12.33
-6.56
9.42
36.58
74.77
122.44
176.28
231.34
281.96
323.19
352.10
368.25
373.09
368.83
357.49
340.78
320.43
298.70
278.22
261.28
248.94
240.37
233.12
224.06
210.61
191.56
167.43
140.11
112.24
86.55
65.23
49.55
39.61
34.40
32.24
31.44
30.92
30.62
31.41
34.77
42.11
53.97
69.43
85.84
99.18
104.97
99.54
81.32
51.46
13.59
-27.31
-66.52
-100.82
-128.90
-151.13
-168.93
-184.17
-198.85
-214.74
-233.05
-254.03
-276.68
-298.95
-318.36
-332.62
-340.09
-339.94
-332.06
-317.17
-297.08
-274.83
-254.42
-239.98
-234.44
-238.55
-250.58
-266.95
-283.20
-295.29
-300.45
-297.74
-288.26
-274.74
-260.76
-249.45
-242.22
-238.02
-233.46
-224.04
-205.76
-176.79
-138.25
-94.13
-50.05
-11.48
17.92
37.23
48.02
53.39
56.65
60.29
65.76
73.60
83.80
95.97
109.32
122.62
134.92
146.31
158.52
174.75
198.60
232.56
276.99
329.57
385.45
438.50
482.68
513.53
529.41
532.04
526.26
518.80
515.50
518.37
524.78
528.39
521.93
500.26
462.16
410.46
350.55
287.41
223.12
157.69
90.70
23.21
-41.91
-101.27
-152.33
-194.07
-228.05
-258.12
-287.65
-317.77
-346.80
-371.31
-388.44
-396.87
-396.66
-381.22
-346.00
-290.99
-222.58
-150.28
-81.79
-21.27
27.05
65.22
94.39
113.59
121.81
119.05
106.58
88.87
69.18
49.28
29.95
10.38
-11.38
-36.68
-65.42
-95.76
-124.95
-150.91
-172.70
-190.45
-205.99
-222.07
-240.66
-261.59
-282.07
-297.47
-303.33
-296.86
-277.67
-248.38
-213.73
-179.02
-148.86
-126.03
-110.78
-100.72
-91.16
-76.29
-51.56
-15.69
28.48
74.80
115.94
145.81
161.10
161.69
149.76
128.63
101.57
71.38
40.24
9.88
-18.35
-43.38
-64.37
-80.79
-92.49
-100.00
-104.59
-108.14
-112.74
-119.89
-129.76
-140.49
-148.29
-148.36
-136.52
-110.95
-73.10
-27.49
19.58
61.60
92.96
109.49
108.81
90.96
59.13
19.81
-18.30
-46.92
-61.12
-61.25
-52.62
-43.26
-40.85
-50.36
-73.39
-108.81
-153.90
-205.14
-258.33
-308.44
-349.69
-376.46
-384.71
-373.20
-343.99
-301.74
-252.07
-199.67
-147.23
-95.63
-45.05
3.84
49.16
88.02
117.27
134.28
137.57
127.03
103.97
71.03
32.07
-8.31
-45.44
-75.44
-95.92
-106.13
-106.68
-98.91
-84.39
-64.62
-40.94
-14.81
12.28
38.56
62.15
81.30
94.72
101.80
102.39
96.33
83.12
61.98
32.50
-4.39
-45.74
-86.76
-122.10
-147.74
-162.47
-168.09
-168.17
-166.04
-163.09
-158.41
-149.74
-135.17
-114.45
-89.17
-61.76
-34.05
-6.36
22.29
53.14
86.32
120.22
151.95
178.82
199.71
215.42
227.82
238.09
245.38
246.99
240.05
223.76
200.35
174.16
149.35
127.83
108.84
90.35
71.33
52.98
38.20
29.58
27.52
29.75
32.69
33.35
30.68
25.61
20.05
16.05
15.23
18.87
27.73
41.73
59.48
78.56
96.22
110.42
120.35
126.21
128.56
127.79
124.17
118.44
112.32
108.41
109.30
116.53
129.84
147.24
165.87
182.77
195.68
202.93
203.28
195.67
179.53
155.07
123.52
87.20
49.03
12.04
-21.14
-48.62
-69.23
-82.44
-88.22
-87.06
-80.07
-68.96
-55.83
-42.67
-31.00
-21.71
-15.20
-11.59
-10.68
-11.91
-14.27
-16.54
-17.73
-17.59
-16.59
-15.67
-15.53
-16.16
-16.72
-16.07
-13.40
-8.63
-2.47
4.03
9.95
14.69
17.94
19.44
18.88
15.97
10.70
3.54
-4.61
-12.62
-19.48
-24.47
-27.17
-27.39
-25.16
-20.77
-14.76
-7.95
-1.21
4.76
9.64
13.43
16.15
17.69
17.67
15.81
12.33
8.12
4.57
2.99
3.90
6.82
10.55
13.84
16.04
17.31
18.20
19.05
19.47
18.47
15.03
8.75
0.18
-9.38
-18.56
-26.38
-32.46
-36.67
-38.77
-38.27
-34.68
-27.99
-19.01
-8.92
1.36
11.75
22.88
35.23
48.33
60.47
69.37
73.40
72.45
67.95
61.95
55.99
50.51
45.19
39.72
34.47
30.32
27.89
26.74
25.26
21.43
13.97
3.15
-9.27
-20.84
-29.46
-34.20
-35.43
-34.38
-32.42
-30.39
-28.19
-25.04
-19.96
-12.59
-3.60
5.42
12.82
17.76
20.74
23.41
27.61
34.31
43.07
52.36
60.54
66.89
71.81
76.28
80.96
85.46
88.69
89.65
88.28
85.69
83.49
82.83
83.74
85.19
85.85
84.99
82.81
80.19
78.03
76.92
77.07
78.64
81.74
86.29
91.32
94.73
93.80
86.40
72.24
53.43
34.11
19.13
12.66
16.50
29.37
47.42
65.53
79.10
85.19
83.15
74.10
60.58
44.82
27.70
8.65
-13.84
-41.42
-75.23
-115.22
-159.41
-202.07
-236.69
-258.86
-268.18
-267.69
-261.37
-251.38
-236.74
-214.56
-180.07
-133.70
-82.59
-37.27
-5.03
14.34
27.51
42.68
65.14
101.23
153.77
221.93
301.75
386.81
468.29
535.00
575.40
582.24
563.33
533.44
507.27
493.55
494.28
506.99
527.11
549.85
528.19
437.18
284.30
106.92
-54.36
-178.00
-263.48
-322.58
-370.53
-419.95
-469.72
-512.19
-538.22
-541.29
-519.66
-477.56
-425.32
-376.88
-344.47
-328.81
-321.42
-313.45
-299.96
-280.83
-258.98
-238.03
-220.18
-204.96
-186.37
-158.76
-121.40
-78.94
-38.95
-8.02
10.53
17.18
15.20
10.16
7.12
7.10
7.99
7.06
3.51
-0.38
-0.29
7.62
24.58
47.29
68.10
78.32
71.77
47.32
9.02
-35.83
-79.70
-117.56
-147.88
-172.13
-192.31
-208.71
-219.14
-219.73
-206.89
-179.03
-137.21
-84.28
-23.72
41.29
107.72
171.88
229.00
274.16
304.09
318.99
322.90
322.07
322.42
327.17
336.03
346.10
353.72
356.17
352.41
342.92
328.74
310.64
288.67
262.36
231.28
195.54
156.21
115.59
77.00
44.11
19.86
5.37
-0.72
-1.97
-3.00
-7.90
-18.86
-35.83
-57.21
-81.03
-105.94
-131.44
-157.45
-183.81
-210.15
-236.26
-262.50
-289.73
-318.44
-347.60
-374.20
-393.56
-400.86
-393.02
-370.19
-336.04
-296.75
-259.10
-228.47
-207.46
-195.62
-190.07
-186.75
-181.64
-171.82
-156.05
-135.03
-110.96
-86.76
-65.06
-47.48
-34.20
-24.27
-16.23
-8.87
-1.66
5.26
11.38
16.24
19.61
21.40
21.63
20.57
18.96
18.10
19.31
23.21
29.06
34.78
37.89
36.67
31.08
22.71
13.74
5.59
-1.83
-9.74
-19.24
-30.11
-40.43
-47.53
-49.47
-46.21
-39.60
-32.38
-26.88
-24.13
-23.88
-25.24
-27.42
-30.06
-33.07
-36.35
-39.70
-42.95
-46.14
-49.49
-53.14
-56.87
-60.03
-61.94
-62.23
-61.22
-59.85
-59.23
-60.22
-63.14
-67.80
-73.66
-80.15
-86.78
-93.22
-99.17
-104.18
-107.55
-108.30
-105.32
-97.81
-85.61
-69.47
-50.93
-31.96
-14.35
0.74
12.93
22.53
30.18
36.61
42.39
48.02
53.91
60.59
68.57
78.27
89.81
102.86
116.57
129.79
141.43
150.80
157.86
163.14
167.41
171.25
174.84
178.07
180.86
183.49
186.64
191.13
197.33
204.78
212.12
217.62
219.97
219.07
216.35
214.23
214.97
219.33
225.64
230.03
227.59
214.18
188.01
150.27
104.68
56.35
10.54
-28.68
-59.32
-81.96
-99.83
-117.94
-141.66
-174.87
-218.13
-268.04
-317.97
-360.36
-389.64
-404.48
-408.39
-408.21
-411.34
-422.12
-439.67
-458.36
-470.42
-469.62
-454.18
-427.03
-394.26
-363.04
-338.23
-321.25
-310.59
-303.29
-296.02
-285.77
-269.12
-242.50
-204.83
-156.46
-99.32
-36.53
27.98
90.54
147.67
197.60
239.73
270.63
286.60
284.64
263.73
225.10
172.73
111.62
48.84
-8.32
-58.01
-100.36
-135.67
-162.78
-179.54
-183.22
-173.46
-150.52
-96.36
-7.27
104.43
214.60
300.95
348.79
365.12
358.20
335.69
304.77
268.97
233.29
204.33
188.60
188.98
204.14
223.45
233.83
228.24
202.32
155.70
91.57
18.52
-53.09
-114.44
-162.11
-195.90
-217.93
-233.99
-250.24
-271.35
-298.90
-331.32
-363.45
-388.30
-397.68
-385.51
-352.09
-303.31
-248.13
-194.92
-149.13
-112.37
-83.84
-61.48
-43.55
-29.75
-20.20
-14.25
-9.95
-4.99
2.37
12.38
24.14
36.01
46.27
53.89
58.77
61.69
63.56
64.93
65.61
64.80
61.49
54.96
45.14
32.82
19.33
6.14
-5.61
-15.38
-23.21
-29.48
-34.61
-38.82
-42.08
-44.16
-44.90
-44.29
-42.56
-40.11
-37.38
-34.66
-32.01
-29.27
-26.18
-22.46
-17.96
-12.64
-6.56
0.19
7.56
15.53
24.09
33.15
42.55
52.02
61.30
70.18
78.60
86.69
94.76
103.19
112.34
122.45
133.54
145.41
157.73
170.11
182.21
193.94
205.62
217.94
231.69
247.30
264.33
281.22
295.41
304.06
304.91
297.18
281.91
261.67
239.79
219.27
202.08
188.78
179.04
171.62
164.68
156.18
144.36
128.28
108.24
85.88
63.80
45.13
32.05
24.92
22.22
21.51
20.62
18.69
16.20
14.35
15.16
19.64
27.46
37.22
47.32
56.50
63.99
69.11
71.24
72.80
76.25
83.18
93.68
106.79
121.38
136.54
151.32
164.47
180.08
200.89
226.84
254.92
281.53
304.87
325.47
344.64
362.86
388.34
426.13
475.71
530.52
581.82
623.45
654.21
676.98
696.35
727.95
782.02
858.31
945.19
1026.42
1089.52
1131.05
1155.55
1097.68
921.93
631.49
272.95
-90.43
-411.21
-670.00
-867.71
-1015.05
-1124.62
-1194.77
-1222.12
-1205.73
-1153.64
-1077.45
-989.64
-901.14
-821.35
-757.01
-702.07
-648.49
-590.55
-527.77
-462.96
-402.94
-350.84
-307.94
-274.76
-245.69
-215.86
-182.87
-147.76
-113.42
-83.27
-59.60
-44.29
-38.19
-37.70
-37.95
-34.70
-26.54
-15.08
-4.18
2.49
2.52
-3.78
-12.48
-18.53
-18.25
-11.30
-0.57
9.37
14.82
14.14
8.11
-1.30
-12.37
-24.29
-36.68
-48.30
-56.33
-56.85
-47.02
-27.28
-2.23
20.50
33.30
31.87
17.18
-5.07
-27.10
-42.72
-50.06
-51.94
-53.97
-61.26
-75.88
-95.98
-117.22
-135.23
-147.61
-154.39
-156.75
-155.23
-148.96
-136.49
-117.34
-93.17
-67.61
-44.62
-26.77
-14.44
-6.40
-1.13
2.19
3.58
3.08
1.49
0.30
0.89
3.46
6.71
8.64
7.96
5.14
2.36
2.42
7.22
16.73
29.07
41.49
51.57
58.17
61.50
62.60
62.45
61.53
59.65
56.38
51.49
45.41
39.29
34.77
33.57
36.92
45.21
57.88
73.71
91.26
109.28
127.01
144.12
160.39
175.40
188.24
197.55
201.73
199.48
190.23
174.42
153.55
129.88
105.91
83.82
64.99
49.85
38.01
28.56
20.35
12.21
3.03
-8.02
-21.41
-37.01
-54.20
-71.98
-89.27
-105.10
-118.67
-129.27
-136.22
-139.10
-138.02
-133.89
-128.45
-123.70
-121.30
-121.98
-125.39
-130.43
-135.81
-140.56
-144.12
-146.18
-146.42
-144.50
-140.22
-133.81
-126.01
-117.70
-109.41
-100.97
-91.58
-80.31
-66.76
-51.37
-35.36
-20.23
-7.25
2.84
9.82
13.87
15.45
15.23
14.08
12.90
12.40
12.89
14.22
15.93
17.53
18.67
19.13
18.77
17.52
15.41
12.68
9.74
7.07
4.91
3.16
1.41
-0.88
-4.22
-8.96
-15.30
-23.30
-32.68
-42.69
-51.96
-58.73
-61.29
-58.57
-50.47
-37.88
-22.45
-6.19
8.85
20.97
29.14
33.25
34.14
33.21
31.89
31.04
30.89
31.23
31.96
33.25
35.47
38.69
42.46
46.02
48.79
51.02
53.68
58.03
64.79
73.68
83.51
92.71
99.96
104.51
106.15
105.14
102.06
97.87
93.89
91.47
91.56
94.31
98.96
104.28
109.09
112.65
114.73
115.32
114.22
110.94
104.89
95.73
83.73
69.89
55.70
42.70
32.04
24.11
18.62
14.78
11.71
8.79
5.66
2.16
-1.95
-7.01
-13.31
-20.78
-28.79
-36.39
-42.72
-47.53
-51.38
-55.34
-60.31
-66.41
-72.82
-77.99
-80.27
-78.47
-72.26
-62.14
-49.26
-35.04
-20.91
-8.10
2.45
10.05
14.22
14.73
11.59
5.26
-3.44
-13.41
-23.56
-33.06
-41.55
-49.01
-55.69
-61.78
-67.38
-72.36
-76.39
-79.02
-79.66
-77.69
-72.65
-64.42
-53.29
-40.04
-25.82
-11.96
0.21
9.64
15.83
19.00
20.13
20.65
22.00
25.05
29.90
35.93
42.26
48.10
52.97
56.51
58.26
57.44
53.14
44.69
32.04
15.95
-2.29
-21.21
-39.64
-56.89
-72.76
-87.24
-100.35
-111.92
-121.63
-129.11
-134.10
-136.63
-137.12
-136.24
-134.80
-133.42
-132.36
-131.50
-130.46
-128.87
-126.53
-123.48
-119.88
-115.83
-111.22
-105.80
-99.33
-91.80
-83.56
-75.18
-67.31
-60.40
-54.61
-49.80
-45.66
-41.85
-38.06
-34.03
-29.56
-24.59
-19.27
-14.00
-9.41
-6.11
-4.56
-4.86
-6.80
-9.95
-13.86
-18.20
-22.77
-27.56
-32.61
-37.94
-43.37
-48.32
-51.84
-52.82
-50.33
-44.09
-34.53
-22.71
-9.81
3.26
16.08
28.55
40.50
51.45
60.68
67.49
71.67
73.64
74.38
74.93
76.01
77.73
79.71
81.37
82.27
82.30
81.64
80.54
79.22
77.77
76.21
74.58
72.93
71.25
69.37
67.01
63.98
60.39
56.88
54.46
54.23
56.94
62.69
70.87
80.46
90.31
99.51
107.46
113.82
118.37
120.93
121.32
119.45
115.43
109.61
102.53
94.85
87.18
79.96
73.41
67.41
61.64
55.77
49.57
43.08
36.64
30.64
25.36
20.67
16.00
10.47
3.26
-6.04
-17.14
-29.01
-40.15
-48.95
-54.16
-55.19
-52.12
-45.65
-36.83
-26.79
-16.54
-6.89
1.60
8.53
13.70
17.10
19.02
20.03
20.87
22.26
24.60
27.85
31.51
34.81
37.05
37.88
37.44
36.28
35.01
34.07
33.42
32.59
30.89
27.67
22.72
16.34
9.49
3.50
-0.17
-0.38
3.41
10.87
20.91
31.79
41.59
48.59
51.59
50.07
44.10
34.26
21.45
6.81
-8.46
-23.20
-36.51
-47.87
-57.24
-65.03
-71.85
-78.29
-84.65
-90.89
-96.74
-101.90
-106.33
-110.28
-114.33
-119.18
-125.35
-132.98
-141.55
-149.90
-156.37
-159.22
-157.13
-149.73
-137.82
-123.19
-108.10
-94.49
-83.49
-75.21
-68.97
-63.72
-58.36
-51.94
-43.77
-33.54
-21.47
-8.48
4.02
14.49
21.72
25.31
25.59
23.51
20.21
16.75
13.83
11.61
9.57
6.66
1.54
-6.91
-19.07
-34.34
-51.28
-67.95
-82.25
-92.20
-96.19
-93.45
-84.59
-71.83
-58.56
-48.12
-42.47
-41.31
-42.39
-42.50
-38.86
-30.24
-17.15
-1.29
15.36
30.97
44.21
54.05
60.20
63.16
63.87
63.00
60.45
55.58
47.36
35.44
20.57
5.43
-6.07
-10.69
-7.63
1.15
12.68
24.50
36.12
48.12
61.92
79.31
102.09
132.16
171.45
221.76
282.88
351.15
414.35
455.86
464.15
440.25
396.45
347.94
307.17
275.40
250.18
228.70
210.17
195.62
185.80
181.39
179.19
174.10
161.34
139.14
108.62
73.57
38.93
8.63
-15.95
-36.60
-56.67
-79.93
-108.77
-144.17
-185.12
-228.52
-269.97
-304.80
-329.43
-341.66
-341.10
-329.02
-308.65
-284.56
-261.84
-245.24
-238.14
-241.99
-255.62
-275.62
-297.12
-315.40
-326.82
-329.27
-322.06
-305.37
-280.20
-247.73
-209.42
-167.16
-123.85
-83.49
-50.81
-29.97
-22.84
-27.64
-38.70
-48.00
-47.93
-34.01
-6.38
30.72
71.12
109.03
140.54
163.68
177.70
182.40
178.34
167.38
152.82
138.78
128.67
123.81
122.86
122.53
118.94
109.06
91.38
65.91
34.06
-1.24
-35.19
-61.31
-72.92
-65.19
-37.32
6.76
59.70
113.03
159.44
194.09
214.54
220.24
212.31
193.56
168.43
142.03
118.96
101.97
91.67
87.05
86.48
88.14
89.72
88.14
79.86
62.49
36.48
5.88
-22.96
-44.36
-56.15
-60.80
-63.90
-70.78
-83.56
-99.97
-114.99
-124.06
-125.74
-122.80
-121.10
-126.92
-144.24
-173.13
-209.68
-247.27
-278.64
-297.72
-301.01
-288.15
-261.84
-227.16
-190.60
-158.82
-137.54
-130.20
-137.19
-155.30
-178.31
-198.41
-208.35
-203.56
-183.13
-149.46
-106.75
-58.96
-8.58
43.73
98.39
155.57
214.26
271.99
325.44
371.54
408.32
435.24
452.91
462.59
466.03
465.65
464.70
466.74
474.29
487.28
502.23
513.16
513.83
500.41
473.18
436.20
395.49
356.52
322.49
294.11
270.44
250.22
232.65
217.39
204.08
192.01
180.12
167.41
153.33
138.07
122.40
107.27
93.33
80.68
68.87
57.22
45.18
32.64
20.00
7.99
-2.67
-11.59
-18.88
-25.06
-30.85
-36.90
-43.61
-51.09
-59.23
-67.89
-76.98
-86.49
-96.44
-106.78
-117.49
-128.54
-140.02
-152.26
-165.61
-180.29
-196.13
-212.56
-228.95
-245.19
-262.17
-281.54
-304.68
-331.33
-358.75
-382.20
-396.32
-396.92
-381.88
-350.98
-305.20
-246.29
-177.18
-102.99
-31.26
29.12
70.34
88.43
84.55
64.09
34.06
0.42
-33.34
-65.73
-95.66
-121.25
-139.77
-148.82
-147.75
-138.30
-124.03
-109.12
-97.16
-90.54
-90.66
-98.02
-112.50
-133.47
-159.99
-191.21
-226.64
-265.70
-306.63
-345.70
-377.57
-397.38
-403.48
-398.99
-390.68
-385.44
-386.02
-389.14
-386.91
-371.16
-337.96
-289.59
-232.88
-175.29
-121.20
-70.96
-22.90
23.77
67.47
105.42
136.08
160.63
182.22
202.89
220.64
228.82
218.89
185.21
129.22
60.26
-7.03
-58.27
-84.72
-86.06
-70.03
-49.26
-36.98
-43.02
-71.03
-117.73
-174.17
-228.66
-270.32
-291.94
-291.13
-269.94
-233.08
-186.03
-133.76
-80.04
-27.65
21.77
67.89
111.92
156.98
207.80
269.14
344.53
434.26
533.89
634.18
722.66
787.46
820.88
821.96
795.92
751.96
699.55
645.31
591.93
539.09
485.83
431.98
378.76
326.97
277.22
229.78
184.86
142.69
103.52
67.59
34.56
3.55
-29.39
-67.11
-109.78
-154.77
-198.31
-237.61
-271.21
-300.74
-329.12
-365.47
-416.29
-482.11
-556.94
-630.88
-693.59
-735.35
-752.04
-743.96
-725.58
-712.27
-713.96
-732.18
-761.51
-793.62
-818.06
-829.83
-826.86
-822.09
-826.42
-842.04
-861.92
-875.31
-875.14
-858.05
-829.99
-723.19
-508.90
-208.29
115.09
396.37
602.36
715.80
769.23
790.70
800.20
797.39
778.17
747.74
713.34
684.50
670.05
679.03
711.66
762.35
810.43
835.45
826.45
785.71
726.27
663.46
609.92
566.56
527.60
479.01
411.49
326.04
232.80
145.39
73.47
20.36
-19.59
-54.69
-94.91
-146.00
-208.27
-277.93
-348.84
-414.46
-468.00
-504.68
-521.64
-520.39
-506.06
-486.03
-467.64
-455.60
-450.84
-450.65
-450.86
-447.52
-438.22
-422.44
-400.89
-374.79
-345.42
-314.15
-282.66
-252.90
-226.71
-205.43
-189.30
-177.38
-167.73
-158.06
-146.43
-131.91
-114.84
-96.49
-78.41
-61.75
-46.83
-33.04
-19.33
-4.72
11.20
28.06
44.90
60.52
74.00
84.85
93.17
99.38
103.97
107.25
109.26
109.81
108.66
105.72
101.14
95.32
88.87
82.43
76.59
71.84
68.47
66.56
65.96
66.25
66.91
67.34
67.10
66.06
64.40
62.57
61.17
60.68
61.36
63.19
65.98
69.55
73.93
79.37
86.22
94.74
104.80
115.75
126.64
136.39
144.25
150.05
154.24
157.80
161.99
168.11
177.15
189.38
203.96
218.79
230.75
236.63
234.25
223.66
207.32
189.37
173.99
163.82
159.10
158.04
158.05
157.02
154.20
150.15
146.16
143.49
142.90
144.60
148.50
154.37
161.93
170.59
179.30
186.62
191.14
191.96
189.00
183.05
175.31
166.90
158.43
149.90
141.02
131.59
121.86
112.55
104.59
98.70
95.03
93.11
92.00
90.56
87.91
83.63
77.81
70.83
62.98
54.26
44.60
34.40
24.98
18.56
17.44
22.94
34.70
50.80
68.56
85.74
101.16
114.76
126.95
137.77
146.27
150.68
149.12
140.69
126.09
107.54
88.10
70.52
56.44
46.48
40.82
40.00
45.08
57.04
75.58
98.20
120.34
136.78
143.43
139.00
125.29
106.27
86.60
70.21
59.67
56.08
59.50
69.33
84.76
104.66
127.35
150.50
171.03
185.70
191.93
188.78
177.35
160.35
141.22
122.86
106.77
92.80
79.87
67.12
54.92
44.94
39.40
39.50
44.32
50.92
55.46
55.23
49.97
41.90
34.18
29.01
26.32
24.09
19.86
12.39
2.37
-8.31
-18.05
-26.72
-35.67
-46.72
-60.89
-77.62
-95.19
-111.83
-126.91
-141.52
-158.13
-179.81
-209.26
-248.17
-296.63
-352.66
-411.95
-468.05
-513.71
-542.63
-551.53
-541.13
-515.64
-480.72
-440.88
-397.64
-350.03
-296.93
-239.76
-183.70
-136.27
-103.98
-89.02
-88.00
-93.61
-98.68
-99.52
-97.04
-94.66
-95.03
-97.47
-98.11
-91.82
-74.23
-43.84
-2.44
45.74
95.60
142.44
182.47
212.87
231.96
240.22
239.38
231.78
220.03
207.44
198.13
196.17
203.64
219.25
239.91
260.20
273.20
272.36
253.78
217.39
166.27
105.33
40.33
-19.77
-65.49
-89.49
-88.92
-65.74
-25.71
23.14
72.51
101.14
94.76
53.11
-9.51
-75.07
-132.27
-178.36
-214.63
-241.75
-256.53
-254.03
-230.12
-186.00
-130.27
-76.43
-37.82
-22.93
-32.95
-65.85
-110.68
-153.42
-182.55
-192.68
-184.85
-164.77
-140.67
-121.00
-112.16
-114.97
-125.25
-135.54
-137.96
-126.92
-101.12
-64.05
-22.33
17.11
50.68
78.22
101.28
120.78
135.71
143.61
142.26
131.43
113.68
93.87
76.60
64.16
55.88
49.15
41.37
31.49
20.22
9.08
-0.69
-9.17
-17.83
-28.60
-42.76
-60.15
-79.25
-97.54
-112.33
-121.42
-123.66
-119.64
-111.51
-102.42
-95.39
-92.23
-92.64
-94.27
-93.72
-87.86
-75.42
-57.07
-34.86
-11.19
11.45
31.08
46.10
55.73
60.77
62.94
64.99
69.97
80.54
97.63
121.20
150.06
181.93
213.59
239.24
252.43
248.33
226.17
188.77
142.90
96.78
55.48
24.95
7.12
0.00
-0.95
0.11
-2.26
-10.02
-23.03
-40.32
-59.76
-82.41
-108.07
-137.01
-169.50
-208.29
-255.23
-309.96
-368.82
-423.72
-467.71
-494.51
-500.07
-470.01
-402.51
-308.66
-207.87
-125.84
-64.85
-20.88
11.92
40.29
69.33
100.55
134.00
168.41
201.41
230.97
252.33
261.31
256.27
238.77
212.35
184.31
164.65
163.15
186.12
230.74
286.81
340.73
380.51
399.12
397.33
382.12
362.34
344.69
329.42
312.04
286.69
249.16
198.10
135.12
63.41
-13.33
-90.29
-161.27
-217.80
-250.90
-254.82
-230.96
-188.60
-142.15
-105.52
-87.03
-87.77
-103.25
-127.34
-155.27
-184.62
-213.44
-238.12
-252.60
-250.28
-227.29
-185.43
-132.71
-81.09
-42.57
-25.12
-30.68
-55.73
-93.87
-138.33
-183.64
-226.14
-263.23
-293.22
-314.97
-328.05
-332.79
-329.63
-318.11
-296.10
-260.33
-207.86
-139.05
-58.86
23.22
95.20
146.41
171.13
171.16
153.01
127.96
105.66
91.45
85.89
86.39
89.82
94.20
98.77
102.86
105.31
103.84
96.57
83.43
66.53
49.56
36.26
28.74
26.65
27.69
28.28
24.74
14.00
-5.92
-35.55
-73.51
-116.25
-158.25
-193.00
-215.05
-221.55
-212.92
-192.30
-163.82
-130.76
-94.46
-54.89
-12.17
31.44
70.92
99.85
113.29
110.68
96.97
80.95
71.47
73.36
85.26
100.92
112.97
116.94
113.24
106.15
100.79
99.96
102.97
106.52
107.10
102.88
94.44
83.99
73.92
65.58
58.74
52.11
44.08
33.60
20.67
6.33
-7.74
-19.90
-29.18
-35.45
-39.23
-41.14
-41.39
-39.75
-35.85
-29.80
-22.54
-15.77
-11.21
-9.70
-10.69
-12.41
-12.79
-10.62
-6.23
-1.45
1.43
0.76
-3.42
-9.36
-14.14
-14.75
-9.00
3.86
22.96
45.81
68.69
87.18
97.01
94.86
78.98
49.41
7.96
-42.19
-96.98
-151.95
-202.84
-245.99
-278.66
-299.06
-306.49
-301.24
-284.62
-258.79
-226.38
-189.87
-150.87
-109.75
-66.19
-20.46
25.26
66.49
97.45
113.09
111.07
92.64
62.19
25.74
-10.62
-41.74
-63.84
-74.40
-72.12
-57.04
-30.57
4.80
45.31
86.97
125.76
158.08
181.28
194.47
198.96
198.08
196.23
196.70
200.71
206.69
211.14
210.28
201.88
186.30
166.39
146.75
130.91
121.25
117.90
118.97
121.47
122.44
120.01
113.69
105.14
94.28
82.28
70.04
58.23
47.38
37.75
29.16
21.11
15.56
10.67
8.62
12.72
26.47
52.50
92.32
146.69
216.03
303.54
402.77
507.72
608.47
693.15
751.71
779.44
778.48
756.20
726.13
689.97
650.74
608.10
560.46
506.97
448.40
386.63
295.02
212.19
132.01
54.31
-19.77
-87.51
-145.13
-189.48
-219.52
-237.04
-241.46
-242.47
-243.12
-244.17
-244.42
-242.00
-235.88
-226.46
-215.35
-200.67
-187.13
-174.14
-160.45
-145.13
-128.40
-111.81
-97.62
-87.91
-81.36
-79.69
-80.72
-81.85
-81.24
-78.80
-76.36
-76.99
-83.66
-96.65
-116.22
-139.51
-162.98
-184.22
-203.05
-221.53
-242.97
-270.73
-306.69
-351.79
-404.42
-460.00
-510.84
-546.71
-557.41
-536.64
-485.98
-416.09
-343.99
-287.00
-255.94
-251.27
-263.71
-279.03
-284.21
-271.76
-240.45
-193.08
-133.49
-65.16
8.29
81.44
146.46
194.22
217.71
215.39
193.01
161.95
135.17
121.98
124.49
137.51
151.61
158.36
154.15
141.13
124.88
110.80
101.23
95.27
90.58
85.95
82.37
81.79
84.90
89.29
89.56
79.35
53.72
10.81
-48.35
-121.04
-203.92
-293.00
-382.84
-466.13
-534.70
-581.85
-604.43
-604.01
-586.11
-558.06
-526.33
-495.12
-466.30
-440.16
-416.61
-394.88
-373.02
-347.57
-314.66
-271.85
-220.12
-164.46
-112.73
-74.04
-54.82
-56.62
-75.60
-104.08
-132.88
-153.84
-161.59
-154.82
-137.12
-114.20
-91.91
-74.00
-61.17
-51.23
-40.38
-24.88
-2.76
24.70
55.36
87.58
120.81
155.36
191.48
228.44
264.59
304.15
344.64
378.97
399.04
401.05
387.81
366.57
345.22
329.24
321.66
319.79
319.75
318.49
314.75
308.84
301.70
294.60
288.90
281.41
270.16
255.51
240.61
230.28
228.40
235.19
246.06
253.01
247.55
223.74
180.73
122.58
56.06
-12.16
-77.24
-135.66
-183.04
-212.12
-217.81
-201.54
-171.13
-136.78
-106.76
-85.51
-73.16
-68.98
-72.01
-80.61
-91.97
-101.98
-107.02
-104.75
-95.76
-83.31
-71.68
-64.07
-61.54
-63.05
-66.05
-67.72
-65.89
-59.77
-49.84
-37.47
-24.25
-11.66
-0.57
8.97
17.69
26.41
35.41
44.20
51.86
57.68
61.49
63.86
65.91
68.90
73.88
81.32
90.86
101.27
110.57
116.33
116.23
108.76
93.81
72.79
48.26
23.32
0.80
-17.20
-29.66
-36.65
-39.27
-39.38
-39.23
-40.88
-45.58
-53.20
-62.02
-69.19
-71.51
-66.51
-53.09
-31.74
-4.34
26.50
57.96
87.54
113.54
135.71
155.57
175.91
199.38
226.65
255.07
278.79
290.69
284.99
259.20
214.78
156.23
89.73
21.99
-40.46
-91.89
-128.29
-148.54
-155.05
-153.20
-149.53
-149.32
-154.94
-165.43
-177.62
-187.72
-192.68
-190.85
-182.10
-167.74
-150.36
-133.25
-119.40
-110.24
-104.90
-100.44
-92.95
-79.16
-57.70
-29.28
3.62
37.73
69.73
96.81
116.93
129.09
133.61
132.24
127.70
122.77
119.30
117.71
117.19
116.45
114.45
110.65
104.87
97.07
87.11
75.04
61.22
46.45
31.63
17.53
4.60
-6.97
-16.89
-24.65
-29.53
-30.93
-28.71
-23.30
-15.67
-7.20
0.55
6.02
8.00
5.94
0.22
-7.82
-16.32
-23.46
-28.08
-29.92
-29.44
-27.35
-24.19
-20.32
-15.97
-11.65
-8.15
-6.32
-6.72
-9.10
-12.47
-15.27
-16.07
-14.08
-9.48
-3.22
3.42
9.25
13.41
15.48
15.39
13.51
10.74
8.53
8.35
11.10
16.40
22.59
27.42
29.25
28.08
25.56
24.17
25.71
30.25
36.19
41.21
43.77
43.87
42.88
42.45
43.35
44.96
45.75
44.26
40.07
33.92
27.12
20.77
15.08
9.55
3.53
-3.08
-9.69
-15.32
-19.26
-21.62
-23.13
-24.59
-25.99
-26.27
-23.73
-17.04
-6.14
7.54
21.66
33.98
43.06
48.36
49.83
47.46
41.27
31.69
19.92
7.86
-2.50
-9.94
-14.48
-17.18
-19.41
-22.02
-25.12
-28.34
-31.34
-34.14
-37.03
-40.29
-43.82
-47.25
-50.12
-52.21
-53.58
-54.53
-55.33
-56.16
-57.19
-58.64
-60.84
-63.90
-67.45
-70.50
-71.59
-69.37
-63.15
-53.21
-40.68
-27.06
-13.67
-1.43
9.19
17.88
24.27
27.95
28.65
26.54
22.29
16.93
11.54
6.85
3.11
0.10
-2.62
-5.42
-8.40
-11.37
-14.00
-16.01
-17.31
-18.03
-18.38
-18.57
-18.64
-18.48
-17.97
-17.07
-15.91
-14.79
-14.08
-14.04
-14.76
-16.02
-17.35
-18.06
-17.41
-14.81
-9.97
-3.05
5.35
14.34
22.98
30.53
36.59
41.09
44.15
45.97
46.74
46.65
46.01
45.18
44.50
44.14
44.06
44.03
43.79
43.26
42.65
42.39
42.89
44.22
45.94
47.15
46.85
44.33
39.52
32.92
25.41
17.81
10.64
4.09
-1.90
-7.48
-12.84
-18.18
-23.71
-29.42
-35.02
-39.79
-42.81
-43.32
-41.10
-36.63
-30.96
-25.25
-20.40
-16.78
-14.32
-12.78
-12.00
-11.97
-12.74
-14.11
-15.61
-16.58
-16.54
-15.42
-13.47
-10.86
-7.49
-3.17
1.79
6.12
7.82
5.16
-2.05
-11.81
-20.59
-25.07
-23.81
-18.04
-10.76
-5.00
-2.22
-1.88
-2.18
-1.47
1.04
5.31
11.24
19.27
30.29
45.07
63.51
84.41
105.75
125.27
141.09
151.80
156.63
155.45
148.82
138.14
125.31
112.38
101.01
91.99
85.12
79.58
74.45
69.13
63.44
57.25
50.27
42.13
32.45
21.04
8.29
-4.85
-17.09
-27.11
-34.42
-39.32
-42.55
-44.98
-47.74
-51.42
-55.91
-60.54
-63.94
-65.56
-65.17
-62.53
-57.47
-50.95
-44.03
-37.64
-32.34
-27.45
-23.63
-21.72
-22.02
-24.40
-29.70
-37.99
-48.36
-59.20
-67.45
-73.53
-79.57
-87.82
-100.16
-119.20
-145.84
-179.00
-215.60
-249.59
-278.30
-301.10
-318.39
-315.85
-284.98
-226.40
-150.99
-87.88
-43.20
-16.18
-4.43
0.12
2.75
6.36
13.18
24.43
40.43
62.40
87.54
112.20
133.84
151.00
162.10
168.57
171.36
171.96
173.73
177.61
183.72
191.92
199.52
205.07
206.91
203.13
192.78
176.87
155.46
130.54
103.63
75.90
48.36
21.97
-2.32
-23.11
-38.51
-47.76
-50.85
-48.43
-41.30
-30.02
-15.46
0.92
17.06
30.58
39.03
40.89
35.99
25.67
12.06
-3.53
-21.31
-42.67
-69.01
-99.97
-132.50
-161.37
-180.81
-186.77
-178.86
-160.57
-137.95
-117.61
-104.76
-102.02
-108.89
-121.96
-135.64
-143.68
-141.16
-126.33
-101.51
-72.50
-46.36
-28.75
-22.10
-25.76
-37.53
-55.84
-80.80
-113.46
-153.78
-198.87
-242.75
-278.18
-299.53
-305.18
-298.21
-284.85
-271.81
-263.57
-260.84
-260.91
-259.08
-250.42
-231.08
-199.09
-154.95
-101.66
-44.27
11.46
60.71
101.08
132.87
158.23
179.37
197.26
211.46
221.24
227.03
230.96
235.95
243.76
253.41
261.15
262.35
254.08
236.96
214.99
193.59
177.16
167.09
161.64
157.31
150.95
141.23
128.88
115.75
103.46
92.48
82.11
71.16
58.93
45.72
32.73
21.35
12.50
6.10
1.17
-3.72
-9.80
-17.56
-26.63
-35.94
-44.33
-50.93
-55.57
-58.71
-61.24
-63.97
-67.20
-70.56
-73.15
-73.96
-72.40
-68.51
-62.96
-56.59
-50.05
-43.50
-36.66
-28.98
-19.86
-8.52
6.03
24.63
47.15
71.62
93.96
108.96
112.20
102.14
81.02
54.04
27.14
4.52
-12.90
-27.11
-41.28
-57.58
-75.65
-92.63
-104.39
-107.29
-99.48
-81.45
-55.61
-25.44
5.38
33.76
57.15
73.65
81.92
81.42
72.84
58.25
40.98
24.85
13.14
7.69
8.45
13.68
20.64
26.69
30.02
30.17
27.78
24.13
20.55
17.88
16.26
15.14
14.09
12.93
11.81
10.99
10.67
10.99
11.87
12.96
13.61
13.38
12.11
10.01
7.41
4.73
2.62
1.38
0.86
0.01
-1.90
-5.17
-9.49
-14.26
-18.71
-21.04
-19.86
-14.77
-7.67
0.20
8.14
16.26
24.56
32.70
42.03
53.07
65.01
73.58
77.21
76.59
74.53
73.34
74.19
80.16
92.50
110.02
125.54
135.62
140.03
141.94
144.64
151.25
168.53
200.96
248.47
300.48
348.30
385.50
410.24
423.21
401.29
334.17
227.16
132.70
68.31
35.51
17.75
6.43
-3.67
-14.94
-23.71
-26.80
-23.91
-23.26
-29.22
-42.76
-60.85
-80.87
-101.05
-117.46
-127.96
-132.65
-137.48
-144.53
-152.80
-158.73
-160.18
-156.94
-148.66
-136.64
-123.38
-114.27
-111.33
-113.88
-119.08
-124.63
-129.26
-131.84
-132.46
-132.53
-135.73
-144.67
-160.62
-182.77
-208.89
-235.34
-257.44
-270.94
-273.25
-264.53
-246.56
-222.10
-193.91
-164.30
-134.93
-106.97
-81.41
-59.22
-41.26
-27.77
-18.06
-10.62
-3.58
4.52
14.23
25.15
36.39
47.11
56.86
65.48
72.87
78.81
83.10
85.86
87.67
89.43
91.88
95.20
98.89
102.08
104.06
104.54
103.64
101.55
98.26
93.59
87.55
80.60
73.81
68.56
65.99
66.66
70.25
75.89
82.42
88.80
94.40
99.01
102.86
106.58
111.20
118.22
129.47
146.78
171.37
203.10
239.86
277.66
311.35
336.06
348.64
348.49
337.37
318.40
294.60
267.89
238.88
207.36
173.16
136.69
98.95
61.12
24.07
-11.83
-46.53
-79.95
-111.86
-142.06
-170.58
-197.63
-223.21
-246.56
-265.91
-278.89
-283.47
-278.82
-265.65
-245.90
-222.01
-196.32
-170.81
-147.19
-126.96
-111.13
-99.74
-91.53
-84.21
-75.33
-63.35
-48.32
-31.80
-16.00
-2.79
7.03
13.84
18.85
23.41
28.52
34.42
40.55
45.78
48.82
48.82
45.76
40.54
34.57
28.96
23.78
18.01
10.16
-0.59
-13.56
-26.61
-37.09
-43.31
-45.53
-46.07
-48.34
-55.47
-68.91
-87.66
-108.26
-125.73
-135.22
-133.96
-122.71
-105.98
-90.87
-84.72
-92.66
-115.81
-150.75
-190.30
-225.17
-246.29
-247.12
-225.69
-185.20
-133.10
-78.62
-29.54
10.05
40.18
63.35
81.92
96.31
104.83
105.28
96.92
81.61
63.15
45.56
31.19
19.87
9.73
-0.99
-12.49
-23.05
-29.92
-30.74
-24.47
-11.47
7.12
29.90
55.09
80.04
101.18
114.85
118.65
112.63
99.35
82.64
65.90
50.87
37.61
25.45
14.04
3.79
-4.57
-10.69
-15.03
-18.82
-23.62
-30.63
-40.08
-50.92
-60.92
-67.13
-66.80
-58.61
-43.48
-24.64
-6.76
5.58
9.18
2.83
-12.88
-36.24
-64.94
-95.99
-125.41
-148.23
-159.41
-155.29
-135.23
-102.05
-61.36
-19.66
17.42
46.26
65.21
74.00
73.16
63.87
48.21
29.22
10.45
-5.01
-15.54
-21.41
-24.44
-26.97
-30.90
-37.03
-44.96
-53.46
-60.94
-65.89
-67.19
-64.30
-57.35
-47.12
-34.81
-21.78
-9.30
1.62
10.25
16.16
19.29
20.10
19.59
19.13
20.08
23.30
28.74
35.49
42.03
46.76
48.48
46.79
42.14
35.70
28.96
23.23
19.25
16.94
15.55
14.11
11.87
8.64
4.71
0.72
-2.86
-5.84
-8.38
-10.72
-12.99
-15.00
-16.43
-17.00
-16.64
-15.62
-14.26
-12.82
-11.30
-9.44
-6.97
-3.85
-0.46
2.44
3.94
3.19
-0.30
-6.62
-15.40
-25.80
-36.69
-46.80
-55.08
-61.01
-64.80
-67.30
-69.69
-73.01
-77.75
-83.67
-89.94
-95.54
-99.75
-102.48
-104.46
-106.90
-111.07
-117.65
-126.24
-135.18
-141.85
-143.33
-137.22
-122.44
-99.55
-70.74
-39.27
-8.64
18.23
39.72
55.51
66.20
72.53
74.69
72.24
64.51
51.51
34.65
16.73
1.03
-10.00
-16.03
-19.21
-23.43
-33.07
-51.52
-80.01
-117.02
-158.29
-197.24
-226.16
-238.17
-229.81
-203.24
-166.60
-132.02
-111.30
-111.40
-131.58
-163.84
-196.38
-218.28
-223.12
-209.95
-181.74
-142.49
-94.96
-40.14
21.61
88.71
157.14
220.77
273.03
309.04
327.07
328.81
318.11
299.01
274.24
244.78
210.69
172.44
131.88
92.20
56.77
27.86
5.70
-11.26
-25.37
-38.55
-51.43
-63.18
-71.91
-75.41
-71.98
-61.01
-43.36
-21.17
2.61
25.02
43.85
58.12
68.03
74.47
78.38
80.26
80.15
77.98
73.94
68.76
63.52
59.25
56.49
55.11
54.47
53.77
52.38
50.12
47.18
43.92
40.68
37.61
34.64
31.65
28.49
25.05
21.24
17.02
12.43
7.75
3.46
0.28
-1.12
-0.27
2.91
8.07
14.55
21.53
28.14
33.63
37.40
39.11
38.73
36.52
33.03
29.01
25.18
22.16
20.28
19.60
19.83
20.50
20.99
20.78
19.56
17.38
14.53
11.44
8.49
5.89
3.59
1.36
-1.12
-4.15
-7.85
-12.11
-16.48
-20.30
-22.78
-23.20
-21.21
-16.86
-10.66
-3.40
4.06
11.00
16.91
21.49
24.58
26.16
26.41
25.66
24.44
23.30
22.69
22.79
23.55
24.68
25.84
26.70
27.05
26.87
26.24
25.26
24.03
22.59
20.90
18.93
16.66
14.11
11.28
8.11
4.54
0.67
-3.16
-6.31
-8.04
-7.75
-5.25
-0.85
4.77
10.83
16.63
21.71
25.80
28.74
30.45
30.90
30.21
28.69
26.80
25.07
23.91
23.54
23.91
24.77
25.75
26.54
26.94
26.87
26.36
25.45
24.20
22.67
20.91
19.04
17.17
15.36
13.60
11.73
9.52
6.72
3.26
-0.58
-4.21
-6.74
-7.38
-5.69
-1.77
3.77
10.02
16.14
21.52
25.83
28.99
31.01
31.99
32.13
31.74
31.21
30.90
31.01
31.54
32.37
33.32
34.24
35.02
35.54
35.64
35.12
33.79
31.60
28.59
24.96
20.94
16.73
12.48
8.30
4.24
0.35
-3.39
-7.03
-10.64
-14.19
-17.46
-19.98
-21.12
-20.33
-17.32
-12.30
-5.92
0.96
7.44
12.89
17.00
19.70
21.07
21.22
20.29
18.52
16.27
14.00
12.13
10.93
10.44
10.48
10.74
10.92
10.77
10.13
8.90
7.02
4.52
1.50
-1.85
-5.30
-8.66
-11.81
-14.77
-17.68
-20.75
-24.26
-28.41
-33.24
-38.51
-43.67
-47.91
-50.41
-50.62
-48.48
-44.51
-39.69
-35.19
-32.04
-30.74
-31.17
-32.63
-34.12
-34.66
-33.56
-30.40
-24.98
-17.24
-7.16
5.17
19.49
35.40
52.56
70.81
90.16
110.49
131.06
150.24
165.78
175.36
177.53
172.27
160.99
145.86
128.95
111.49
93.65
74.87
54.50
32.34
9.04
-14.06
-35.27
-52.94
-65.80
-73.34
-76.00
-75.22
-73.31
-73.25
-78.03
-89.70
-108.43
-131.75
-154.48
-169.72
-171.07
-154.85
-121.63
-75.93
-24.53
25.82
69.82
103.66
124.58
130.70
121.89
101.03
74.44
50.39
36.11
35.00
45.70
63.54
83.13
100.70
114.75
125.39
132.81
136.71
136.83
133.63
128.39
122.66
117.27
112.17
107.63
104.23
102.70
103.37
105.58
107.71
107.83
104.72
98.56
92.38
89.55
91.96
98.87
107.36
113.93
116.12
113.37
106.91
101.23
100.51
106.67
118.64
133.33
147.53
159.30
168.42
175.90
186.06
202.45
225.97
254.19
282.60
306.86
324.22
334.08
316.81
261.08
167.28
49.83
-69.00
-169.97
-243.55
-290.43
-317.35
-331.24
-337.71
-338.96
-335.74
-329.43
-322.89
-319.70
-323.83
-337.93
-360.23
-384.87
-404.71
-414.34
-411.90
-399.30
-380.69
-361.32
-344.85
-332.19
-320.54
-305.36
-283.03
-252.19
-214.07
-166.41
-111.73
-56.14
-7.42
28.83
51.02
60.79
61.87
57.55
50.09
40.53
30.11
20.41
12.98
9.55
10.34
14.23
19.32
23.84
26.07
25.53
22.98
19.91
17.87
17.81
20.04
24.23
29.83
35.89
41.63
46.69
50.93
54.28
56.44
56.97
55.33
51.19
44.32
34.96
23.79
11.81
0.11
-10.40
-19.03
-25.42
-29.60
-32.04
-33.51
-34.92
-37.00
-40.07
-43.94
-48.06
-51.81
-54.84
-57.29
-59.70
-62.69
-66.57
-71.24
-76.14
-80.58
-84.03
-86.42
-88.18
-90.03
-92.73
-96.65
-101.56
-106.50
-110.01
-110.51
-107.00
-99.53
-89.39
-78.66
-69.51
-63.39
-60.61
-60.36
-61.17
-61.44
-59.85
-55.66
-48.79
-39.95
-30.59
-22.51
-17.21
-15.07
-14.86
-13.99
-9.42
1.02
17.75
39.38
63.49
87.89
111.32
133.53
154.68
174.56
192.30
206.62
216.42
221.36
221.96
219.39
214.95
209.82
204.85
200.63
197.35
194.63
191.48
186.43
178.08
165.71
149.63
131.18
112.18
94.34
78.70
65.54
54.66
45.70
38.29
32.10
26.73
21.68
16.59
11.53
7.02
3.63
1.33
-1.01
-5.43
-14.14
-28.43
-47.89
-70.47
-93.30
-113.88
-130.98
-144.80
-156.46
-167.16
-177.51
-187.12
-194.76
-198.79
-197.67
-190.58
-177.98
-161.70
-144.70
-130.18
-120.56
-116.85
-118.43
-123.26
-128.32
-130.08
-125.15
-111.20
-87.87
-57.46
-24.65
4.86
26.32
37.76
40.57
38.59
36.16
36.32
39.83
45.61
51.83
57.05
60.72
62.96
64.05
64.00
62.44
58.90
53.16
45.51
36.75
27.97
20.22
14.26
10.43
8.69
8.93
11.25
16.02
23.64
34.01
46.16
58.34
68.52
75.16
77.78
76.88
73.53
68.71
63.11
57.23
51.76
47.79
46.82
50.31
59.25
73.73
92.85
114.84
137.35
157.80
173.78
183.54
186.25
182.13
172.19
157.92
141.00
123.16
106.14
91.50
80.26
72.55
67.47
63.38
58.63
52.09
43.65
34.12
24.77
16.78
10.76
6.68
3.98
1.90
-0.26
-2.87
-5.91
-9.02
-11.62
-13.22
-13.66
-13.17
-12.23
-11.24
-10.31
-9.23
-7.65
-5.48
-3.05
-1.07
-0.23
-0.91
-2.98
-5.87
-8.90
-11.51
-13.39
-14.44
-14.59
-13.61
-11.16
-6.92
-0.87
6.58
14.51
21.74
27.10
29.69
29.09
25.23
18.25
8.33
-4.41
-19.75
-37.25
-56.09
-75.07
-92.92
-108.61
-121.61
-132.05
-140.48
-147.62
-153.97
-159.56
-163.93
-166.25
-165.72
-161.93
-155.24
-146.77
-138.27
-131.55
-127.86
-127.22
-128.07
-127.45
-121.69
-107.53
-82.96
-47.76
-3.22
48.53
105.08
163.99
222.44
276.86
322.74
355.31
370.59
366.38
342.89
302.53
249.63
189.87
129.86
76.15
33.86
5.06
-12.12
-23.10
-35.04
-54.37
-84.73
-125.82
-173.64
-221.58
-262.38
-290.06
-301.39
-296.25
-276.87
-246.59
-208.62
-165.61
-120.02
-74.88
-33.69
0.46
26.31
44.99
59.19
71.27
81.75
89.25
91.91
89.26
83.51
78.88
79.75
88.43
103.58
119.82
128.98
122.79
96.03
48.98
-11.87
-75.87
-132.08
-173.03
-196.57
-205.23
-203.66
-196.23
-185.79
-173.68
-160.45
-146.44
-132.08
-118.24
-106.15
-97.05
-91.36
-87.81
-83.41
-74.90
-60.78
-43.12
-26.98
-17.93
-18.55
-26.11
-33.24
-31.51
-15.95
13.18
50.98
90.46
125.22
150.59
163.36
161.22
143.01
108.61
61.50
9.01
-39.63
-76.71
-99.05
-108.28
-108.78
-104.66
-100.75
-99.79
-103.23
-111.43
-124.02
-139.74
-155.76
-167.54
-169.75
-162.34
-147.30
-128.09
-107.54
-88.09
-72.99
-66.66
-73.52
-96.29
-140.27
-206.77
-292.73
-389.93
-487.77
-577.06
-652.10
-710.60
-718.63
-654.92
-518.00
-332.67
-136.46
39.37
179.16
280.98
350.56
396.16
418.02
419.58
402.81
371.19
329.46
282.01
232.51
185.05
144.84
113.34
95.47
93.74
109.37
141.77
187.96
243.13
301.69
357.72
402.71
429.53
433.65
416.43
384.81
348.37
315.68
291.53
276.14
265.17
253.68
237.91
217.47
194.39
171.12
149.00
128.11
107.86
87.42
66.77
46.34
27.32
11.31
0.03
-4.76
-1.57
10.15
29.35
53.02
76.53
95.10
105.15
105.03
95.09
77.28
54.82
31.96
13.39
3.10
2.74
10.38
20.60
26.07
20.25
-0.19
-34.24
-77.21
-122.57
-164.14
-197.58
-220.85
-233.85
-237.75
-234.33
-225.63
-213.50
-199.38
-184.15
-168.49
-153.33
-140.29
-131.81
-130.73
-139.16
-157.10
-181.47
-205.92
-222.09
-221.85
-200.06
-156.45
-96.18
-28.32
36.60
89.35
123.93
138.36
134.19
115.36
86.71
52.48
15.23
-24.14
-65.41
-107.44
-146.61
-176.94
-192.00
-187.80
-165.04
-129.06
-87.56
-47.39
-12.84
14.19
32.69
41.51
39.89
29.43
15.29
5.21
6.19
20.92
46.00
73.82
96.60
110.21
115.37
115.46
112.72
105.65
89.25
58.16
10.39
-50.29
-115.06
-173.28
-216.49
-241.12
-248.86
-244.70
-234.08
-220.73
-205.81
-188.53
-167.67
-143.08
-116.14
-89.38
-65.50
-46.25
-31.87
-21.18
-12.32
-3.48
6.49
17.87
30.37
43.47
56.83
70.55
85.09
101.16
119.50
140.44
163.44
186.64
207.02
221.37
227.70
226.44
220.77
215.32
214.25
219.38
229.31
239.83
245.24
240.17
221.05
187.03
140.18
85.14
28.23
-23.74
-65.00
-92.12
-104.74
-105.46
-98.69
-89.40
-81.83
-78.65
-80.80
-87.64
-97.35
-107.67
-116.45
-122.18
-124.28
-123.10
-119.70
-115.62
-112.03
-108.92
-104.71
-96.64
-82.06
-59.87
-31.43
-0.25
29.43
54.31
73.29
87.80
100.86
115.63
133.73
154.38
174.57
190.48
199.35
201.07
198.65
197.02
200.87
212.42
230.56
251.77
272.27
289.76
303.81
314.72
322.17
324.63
320.04
306.99
285.68
257.73
225.34
190.38
154.06
117.30
81.31
47.73
18.16
-6.47
-26.42
-42.86
-57.16
-70.05
-81.34
-90.11
-95.43
-97.20
-96.46
-95.29
-96.08
-100.65
-109.58
-122.00
-136.03
-149.60
-161.10
-169.76
-175.57
-178.83
-179.88
-178.95
-176.27
-172.13
-166.82
-160.37
-152.37
-141.85
-127.52
-108.23
-83.72
-54.99
-24.38
4.99
30.11
48.91
60.75
66.54
68.50
69.61
72.64
79.08
88.28
97.13
100.73
93.84
72.54
35.37
-16.31
-78.74
-146.56
-213.71
-274.29
-323.54
-358.81
-380.32
-390.99
-395.45
-398.19
-401.84
-406.12
-408.29
-404.50
-391.27
-366.89
-331.70
-287.59
-237.07
-182.37
-124.66
-63.96
0.31
68.04
136.89
201.23
252.29
280.20
277.57
243.16
183.81
113.21
47.61
0.37
-22.28
-21.92
-5.13
20.91
51.71
85.71
122.06
158.01
188.13
206.28
208.85
197.01
176.45
154.57
137.04
125.76
119.36
115.26
112.10
110.88
114.02
123.55
139.54
159.60
179.89
196.73
207.92
213.30
214.53
214.21
214.96
218.55
225.35
234.28
243.08
248.89
249.16
242.37
228.53
208.91
185.52
160.11
133.65
106.22
77.40
46.84
14.58
-18.94
-53.01
-86.79
-119.24
-149.03
-174.84
-195.73
-211.58
-223.30
-232.49
-240.84
-249.57
-259.31
-270.46
-283.76
-300.32
-321.21
-346.20
-372.75
-396.03
-409.98
-409.19
-390.76
-355.34
-306.89
-251.39
-194.91
-142.27
-96.43
-58.65
-29.10
-7.20
8.43
20.10
30.69
42.88
58.05
75.58
93.11
107.47
115.97
117.52
113.17
105.97
100.63
102.65
117.19
147.65
193.83
250.84
309.78
359.91
391.78
399.94
383.88
347.27
296.13
237.06
176.39
119.96
72.95
39.43
21.69
19.74
31.17
51.49
74.69
94.20
104.42
102.61
90.71
75.40
65.78
69.11
86.61
111.89
133.32
139.29
123.50
87.47
38.83
-12.95
-60.38
-99.28
-127.58
-143.43
-144.59
-129.78
-100.54
-62.12
-22.24
11.39
33.36
41.50
36.55
21.50
1.03
-19.01
-32.75
-36.27
-29.45
-16.45
-3.83
2.67
0.98
-6.65
-15.60
-21.90
-24.35
-24.57
-25.21
-27.84
-31.85
-35.00
-34.97
-30.77
-23.25
-14.69
-7.78
-4.66
-6.28
-12.27
-21.27
-31.52
-41.41
-49.96
-56.97
-62.77
-67.88
-72.63
-77.05
-80.97
-84.12
-86.23
-86.94
-85.74
-82.05
-75.56
-66.63
-56.54
-47.25
-40.79
-38.39
-39.88
-43.63
-47.12
-47.95
-44.74
-37.50
-27.30
-15.49
-3.00
9.97
23.76
38.85
55.53
73.84
93.59
114.41
135.58
155.86
173.61
187.13
195.38
198.51
197.88
195.56
193.29
191.69
189.86
185.78
177.13
162.08
139.74
110.22
74.38
33.63
-10.08
-54.27
-96.04
-132.45
-161.31
-181.61
-193.82
-199.65
-201.25
-200.60
-198.81
-196.21
-192.62
-187.87
-182.14
-176.08
-170.59
-166.45
-164.01
-163.05
-162.80
-162.26
-160.56
-157.24
-152.37
-146.50
-140.43
-134.95
-130.64
-127.77
-126.34
-126.26
-127.56
-130.49
-135.39
-142.38
-151.02
-160.01
-167.25
-170.16
-166.11
-153.09
-130.10
-97.49
-56.96
-11.57
34.59
76.93
111.10
133.93
144.08
142.30
131.04
113.68
93.72
74.14
57.06
43.72
34.58
29.43
27.45
27.46
28.13
28.31
27.21
24.54
20.43
15.33
9.93
5.13
1.81
0.58
1.52
3.94
6.54
7.81
6.44
1.72
-6.21
-16.43
-27.50
-37.78
-45.95
-51.24
-53.55
-53.21
-50.71
-46.49
-41.00
-34.68
-27.90
-20.56
-11.71
0.34
17.31
39.83
66.49
93.84
117.54
134.09
142.33
143.80
141.80
139.82
140.02
142.72
146.64
149.78
150.30
147.16
140.21
129.93
116.88
101.29
82.84
61.01
35.71
7.95
-20.24
-46.58
-69.77
-90.22
-109.77
-130.33
-152.28
-173.63
-190.72
-199.92
-199.56
-190.90
-177.45
-163.21
-150.74
-140.14
-129.41
-115.71
-96.95
-72.55
-43.47
-11.56
21.14
52.56
80.39
101.72
113.42
113.29
101.37
80.59
55.90
32.45
13.46
-0.76
-12.23
-23.58
-36.34
-50.33
-64.24
-77.08
-89.05
-101.63
-116.71
-135.40
-157.54
-181.83
-206.50
-229.83
-250.41
-266.92
-278.09
-282.76
-280.20
-270.40
-254.18
-232.98
-208.43
-182.03
-154.65
-126.69
-98.50
-70.46
-43.00
-16.59
8.37
31.66
53.31
74.31
96.70
122.86
154.57
191.94
232.18
269.51
296.76
307.67
300.38
278.15
247.64
216.32
190.20
172.07
161.27
154.65
147.28
135.29
116.27
89.22
55.49
19.51
-12.14
-33.02
-39.39
-32.47
-16.01
5.41
27.07
40.69
39.43
21.08
-10.66
-42.96
-71.28
-93.61
-106.43
-109.11
-101.26
-83.98
-60.08
-33.19
-6.77
15.98
34.35
51.83
71.55
94.98
121.20
147.56
171.25
190.69
205.56
218.09
235.49
263.91
306.26
360.54
420.69
478.94
528.18
562.95
561.55
511.94
414.24
283.74
143.83
15.58
-88.58
-164.98
-213.39
-241.39
-251.54
-245.16
-223.99
-192.33
-156.89
-124.48
-101.43
-90.73
-91.44
-96.28
-100.06
-98.19
-89.50
-76.78
-64.76
-54.70
-47.07
-40.81
-32.14
-18.42
-0.97
16.72
29.57
32.94
24.92
7.22
-14.92
-32.97
-39.10
-28.51
-1.19
38.11
81.86
122.22
152.69
169.32
171.26
159.80
137.66
107.80
72.56
33.60
-7.59
-49.14
-88.36
-122.18
-148.21
-165.57
-174.82
-177.33
-174.27
-166.20
-153.54
-137.38
-120.04
-104.92
-95.30
-93.08
-97.95
-107.34
-117.12
-122.86
-121.08
-110.34
-91.84
-69.34
-48.34
-34.49
-31.78
-41.29
-60.89
-85.96
-110.93
-130.54
-140.67
-138.51
-122.69
-93.92
-55.50
-13.09
26.46
57.30
76.83
86.94
93.20
102.42
119.53
145.70
178.43
213.41
246.53
275.05
297.36
311.87
316.44
308.87
288.19
255.79
215.31
171.01
125.76
79.70
30.74
-23.02
-80.68
-137.28
-185.37
-218.11
-232.82
-232.68
-225.66
-221.49
-228.14
-249.79
-286.40
-334.48
-388.00
-439.03
-478.64
-498.46
-492.93
-461.28
-408.25
-342.47
-273.40
-208.26
-150.29
-99.15
-52.91
-10.25
28.31
60.55
83.79
96.35
98.55
92.91
83.53
74.98
70.83
72.97
81.31
94.33
109.86
125.82
140.53
152.64
161.07
164.91
163.74
157.89
148.65
138.02
128.07
119.97
113.09
104.72
90.76
67.25
32.09
-13.67
-65.46
-116.08
-157.49
-182.77
-187.59
-170.94
-135.09
-85.06
-27.90
28.53
77.25
114.00
138.58
154.53
167.03
179.94
193.45
204.13
207.11
199.13
180.54
154.99
127.32
100.99
77.20
56.02
38.45
27.52
27.39
40.88
66.91
99.84
131.22
153.10
160.79
153.94
135.78
111.68
87.72
69.86
63.01
69.93
89.74
117.28
144.07
161.14
162.76
148.63
123.88
96.45
73.57
59.22
53.77
55.51
62.79
75.03
92.34
114.20
138.53
161.58
179.05
187.82
187.14
179.00
167.32
156.26
148.76
145.56
145.53
146.73
147.70
148.19
148.93
150.75
153.65
156.46
157.27
154.29
146.80
135.37
121.55
107.24
94.05
83.09
74.90
69.45
65.96
62.91
58.30
50.33
38.14
22.35
4.81
-12.09
-26.38
-37.32
-45.56
-52.81
-61.38
-73.64
-91.56
-115.68
-144.04
-171.38
-189.78
-191.04
-170.10
-127.72
-70.97
-10.70
42.59
82.45
108.01
122.72
131.47
137.96
143.36
146.89
147.01
142.55
133.06
118.65
99.76
77.18
52.10
26.11
1.14
-20.79
-37.88
-49.02
-54.30
-55.22
-54.69
-56.14
-62.38
-74.57
-91.78
-111.59
-131.21
-148.74
-163.86
-177.66
-191.82
-207.67
-225.71
-245.57
-266.47
-287.69
-308.95
-330.46
-353.08
-378.27
-407.77
-442.92
-483.33
-525.86
-564.30
-590.57
-596.86
-578.17
-534.02
-468.68
-390.00
-307.39
-229.96
-165.18
-118.32
-92.35
-87.71
-102.08
-130.36
-165.53
-200.26
-228.80
-248.19
-258.34
-260.72
-256.83
-246.98
-230.35
-205.85
-173.52
-135.48
-96.21
-61.75
-38.33
-30.45
-39.36
-62.13
-92.13
-120.91
-140.85
-147.79
-141.96
-127.12
-108.34
-89.70
-73.13
-58.79
-46.11
-34.75
-24.68
-15.57
-6.23
5.31
21.10
42.32
68.56
97.92
127.80
155.92
181.42
205.29
230.07
258.69
292.96
332.18
372.76
409.12
435.54
448.34
447.14
434.97
416.99
398.79
384.72
376.91
374.99
376.43
377.29
373.39
361.47
340.06
310.04
274.35
236.41
198.71
162.22
126.70
91.19
54.76
16.63
-23.67
-65.93
-109.54
-153.25
-195.12
-232.96
-264.99
-290.18
-308.25
-318.45
-318.36
-305.41
-278.35
-237.99
-187.59
-132.17
-77.10
-28.02
11.16
40.47
60.83
73.26
80.01
83.95
87.54
91.83
93.57
88.49
76.61
57.76
31.33
-0.93
-35.44
-67.77
-93.87
-114.76
-132.62
-143.95
-147.96
-147.56
-144.53
-139.94
-135.03
-132.27
-139.95
-164.30
-198.81
-235.61
-269.75
-297.02
-316.72
-331.96
-317.46
-259.47
-202.30
-163.39
-130.69
-101.55
-76.43
-56.24
-39.20
-19.69
4.90
36.09
79.67
133.51
187.96
235.69
274.47
306.60
335.87
360.99
379.05
393.46
407.11
421.58
440.43
466.50
499.19
533.10
557.16
560.81
541.72
502.01
446.55
383.44
320.97
265.04
217.95
177.53
140.01
103.75
67.69
31.08
-5.61
-41.39
-75.24
-106.48
-135.18
-161.69
-186.01
-209.15
-233.67
-262.79
-299.20
-343.08
-390.56
-433.24
-459.91
-460.30
-429.28
-369.64
-291.88
-210.79
-140.46
-90.30
-63.36
-57.54
-68.09
-90.01
-119.03
-151.44
-183.31
-210.15
-227.35
-231.27
-220.30
-195.68
-161.31
-122.68
-85.34
-53.24
-27.57
-6.65
13.10
35.85
64.83
101.57
145.30
192.94
239.45
278.46
303.76
311.15
299.85
272.62
234.91
193.07
152.86
118.44
92.02
73.91
62.72
55.90
50.32
43.06
32.05
16.41
-3.45
-26.31
-50.46
-73.95
-95.13
-113.15
-128.41
-142.48
-157.57
-175.13
-194.48
-212.14
-222.32
-218.44
-195.20
-150.73
-88.00
-14.81
58.26
121.00
166.80
194.18
206.05
206.94
200.23
186.57
164.40
131.81
88.39
36.14
-21.13
-79.10
-134.31
-184.66
-229.13
-266.42
-293.73
-306.52
-299.52
-269.27
-217.17
-150.99
-83.82
-30.40
-2.11
-2.96
-28.44
-67.67
-107.67
-137.66
-151.57
-148.19
-129.82
-100.24
-63.21
-21.88
21.08
63.10
101.25
132.73
155.68
170.09
178.22
184.15
192.49
206.67
227.64
253.38
279.62
301.28
314.08
315.57
305.21
284.06
254.21
218.47
180.05
142.10
107.10
76.51
51.06
31.29
18.13
12.62
14.90
23.11
33.27
40.73
42.63
40.04
37.57
40.91
53.19
72.66
92.95
105.92
105.12
87.99
56.52
16.50
-23.94
-56.01
-72.40
-69.34
-48.16
-15.21
20.16
48.94
65.49
68.76
61.31
46.96
28.92
9.45
-9.24
-24.05
-30.79
-25.60
-6.76
23.99
61.67
99.48
130.81
151.04
158.39
153.99
140.79
122.24
101.27
79.87
59.18
39.89
22.38
6.40
-8.86
-24.61
-41.81
-60.40
-78.64
-93.35
-100.99
-99.36
-89.58
-75.72
-63.74
-59.55
-67.02
-86.65
-115.35
-147.67
-177.85
-202.84
-221.70
-235.19
-245.03
-253.85
-264.70
-280.14
-300.80
-324.47
-347.85
-365.60
-372.32
-364.93
-344.55
-315.91
-284.46
-253.44
-222.85
-193.10
-164.25
-137.05
-112.66
-92.32
-76.43
-63.93
-52.74
-27.02
18.84
79.82
143.62
199.44
242.32
271.37
285.92
284.47
266.22
231.11
184.03
131.94
83.99
47.68
26.85
21.78
30.82
51.12
77.27
103.74
125.93
141.29
149.01
150.16
145.63
136.49
123.39
105.86
84.45
61.60
41.69
29.12
26.35
32.32
43.02
52.74
55.99
50.55
38.48
25.01
15.28
11.49
11.76
11.65
6.64
-5.79
-25.08
-48.63
-73.38
-96.84
-116.88
-130.73
-134.70
-125.35
-101.50
-65.84
-24.50
15.27
47.95
71.61
87.77
99.76
110.53
121.37
131.70
139.79
143.96
143.61
139.51
133.60
128.33
125.82
127.34
132.86
141.08
149.44
154.61
153.16
142.43
121.37
90.98
54.20
15.06
-22.35
-55.12
-82.04
-103.51
-120.71
-134.85
-146.63
-156.16
-163.53
-169.03
-173.44
-177.84
-183.06
-189.35
-196.13
-202.16
-205.69
-204.86
-198.09
-184.60
-165.15
-142.66
-122.23
-110.17
-112.04
-130.20
-162.46
-202.06
-239.64
-266.14
-275.76
-267.60
-245.36
-215.33
-183.27
-153.12
-126.51
-103.35
-82.91
-64.61
-48.11
-32.90
-17.80
0.06
23.21
52.68
87.24
123.85
159.00
190.06
216.12
237.79
257.89
278.40
299.87
321.74
343.43
365.25
387.76
410.36
430.21
444.45
449.06
441.00
419.86
388.58
352.75
318.20
288.85
252.75
202.47
137.12
64.19
-4.93
-61.97
-104.85
-136.69
-161.97
-182.70
-194.67
-191.33
-167.87
-125.42
-72.49
-20.43
20.42
44.32
51.64
48.16
39.85
29.86
18.10
2.51
-18.01
-42.39
-67.71
-90.67
-107.49
-118.16
-127.78
-140.50
-158.32
-180.50
-204.62
-227.91
-244.87
-253.46
-255.80
-256.54
-259.45
-265.50
-272.35
-276.90
-278.68
-281.81
-293.80
-320.79
-362.54
-410.70
-452.44
-476.45
-478.28
-461.75
-435.83
-409.73
-388.11
-369.95
-350.73
-326.42
-296.03
-261.55
-226.07
-191.81
-159.44
-127.95
-95.94
-62.77
-29.38
1.95
28.64
48.89
62.37
70.24
74.71
78.18
82.85
89.76
98.70
108.56
118.02
126.12
132.48
137.27
141.02
144.80
149.40
155.02
161.03
166.12
168.70
167.40
161.63
151.92
140.98
132.18
128.49
131.52
141.05
155.32
171.50
186.56
198.38
208.83
220.45
234.81
251.52
269.10
286.85
305.62
326.80
350.41
378.61
409.69
438.66
460.24
472.97
480.57
488.98
501.80
517.93
541.08
573.68
616.98
669.98
729.09
787.62
835.50
861.43
857.38
833.21
804.71
786.58
786.00
802.24
829.79
861.24
889.88
847.36
698.80
452.47
157.47
-128.43
-368.48
-552.25
-685.32
-778.16
-839.96
-866.96
-856.63
-812.12
-747.17
-678.56
-619.26
-575.67
-548.29
-534.62
-523.88
-508.78
-488.46
-468.20
-454.80
-450.84
-453.31
-456.46
-455.07
-441.34
-411.73
-368.10
-314.01
-257.34
-206.47
-167.23
-140.90
-124.35
-109.82
-91.59
-68.63
-44.74
-25.87
-15.95
-15.80
-23.11
-34.92
-47.48
-57.87
-63.68
-63.68
-58.88
-51.84
-45.99
-44.24
-47.87
-54.01
-58.90
-58.76
-52.58
-43.87
-39.23
-44.96
-63.13
-89.82
-116.23
-132.87
-133.36
-116.81
-87.25
-50.42
-10.69
30.07
71.45
112.26
148.81
175.68
187.64
182.36
162.00
132.56
102.17
78.67
67.43
69.68
82.18
97.95
108.61
107.11
89.92
58.36
18.03
-23.43
-59.34
-85.96
-102.82
-111.34
-113.55
-111.77
-108.30
-105.28
-104.53
-107.29
-113.43
-121.06
-126.27
-123.99
-110.77
-85.66
-50.26
-8.08
36.06
76.92
106.16
116.81
108.26
85.54
56.37
27.31
1.75
-19.85
-38.04
-52.63
-62.98
-66.17
-61.71
-52.81
-45.54
-45.70
-55.46
-70.71
-82.27
-79.89
-52.58
0.30
67.99
132.18
175.30
187.56
169.52
132.92
86.87
39.69
-1.63
-29.87
-38.84
-25.66
7.10
52.71
99.73
135.85
153.54
148.29
123.77
90.37
63.08
49.07
50.35
64.67
86.50
108.72
123.69
126.43
116.19
96.47
73.34
53.69
41.83
37.85
38.98
41.52
43.17
43.82
45.10
49.16
57.97
71.97
89.62
108.30
125.46
139.55
150.08
157.27
161.64
164.12
165.72
167.30
169.15
170.66
170.33
165.67
153.97
133.47
104.86
71.42
38.17
10.16
-9.38
-20.07
-24.21
-25.47
-27.13
-30.98
-37.30
-45.75
-56.30
-69.24
-84.67
-101.53
-117.56
-130.28
-138.66
-144.14
-150.32
-161.22
-179.08
-203.51
-232.20
-262.08
-290.67
-316.22
-336.92
-350.44
-354.81
-349.90
-338.76
-326.90
-319.39
-317.52
-317.11
-310.36
-290.38
-255.58
-211.08
-166.02
-128.43
-100.81
-79.09
-55.59
-24.23
15.19
56.34
89.80
108.34
111.26
104.98
99.55
103.27
118.45
140.39
160.33
170.18
166.04
149.29
124.60
96.84
69.01
42.24
16.98
-5.70
-24.30
-38.31
-49.08
-59.65
-73.22
-91.31
-112.59
-133.48
-149.65
-157.69
-156.23
-145.19
-125.12
-97.20
-64.46
-33.09
-12.22
-11.19
-35.04
-81.58
-139.92
-193.69
-227.28
-232.16
-209.89
-170.13
-125.23
-84.41
-52.16
-27.65
-7.15
13.39
36.60
63.18
92.11
121.16
147.06
163.95
165.86
149.07
113.78
64.33
7.31
-50.67
-104.39
-139.71
-146.03
-119.89
-67.56
-1.99
64.01
121.52
166.00
196.36
213.87
219.69
215.70
204.36
188.45
170.79
153.09
135.24
116.01
93.74
65.75
30.22
-12.20
-57.82
-99.74
-130.18
-143.37
-137.56
-115.43
-83.54
-48.96
-14.29
18.27
48.67
77.83
106.18
133.48
159.78
185.69
212.36
240.21
267.22
289.45
302.29
302.16
287.97
261.44
225.99
185.16
141.52
96.27
50.33
5.00
-39.03
-82.46
-127.75
-178.16
-236.04
-300.83
-367.81
-427.50
-467.31
-477.57
-456.44
-411.49
-356.84
-306.79
-269.58
-244.77
-223.85
-193.81
-145.96
-79.91
-2.77
75.85
148.88
214.29
273.24
328.53
384.09
440.46
494.42
541.25
577.56
603.04
620.54
633.17
625.41
587.83
521.21
437.67
352.82
276.80
211.14
157.01
105.67
51.34
-4.98
-60.02
-111.09
-157.87
-198.41
-230.49
-251.78
-261.67
-260.37
-248.65
-230.39
-211.91
-199.91
-198.80
-209.54
-229.64
-255.15
-280.39
-298.58
-304.47
-296.09
-276.00
-250.94
-230.09
-221.18
-227.19
-243.67
-260.49
-267.69
-261.02
-244.58
-228.51
-223.47
-234.82
-260.36
-292.04
-320.56
-339.92
-348.86
-348.84
-340.88
-323.85
-295.29
-254.06
-202.40
-145.97
-91.61
-44.30
-5.09
28.80
62.18
99.40
142.17
188.34
232.35
266.85
285.32
284.70
266.69
237.40
204.99
176.77
156.93
146.04
142.18
142.80
146.15
151.39
157.86
164.28
168.72
169.36
165.59
158.48
150.14
142.57
136.45
130.85
123.87
113.90
100.58
84.97
68.97
54.35
42.07
32.17
24.19
17.78
12.91
9.70
7.91
6.66
4.61
0.43
-6.49
-15.81
-26.26
-36.17
-43.96
-48.46
-49.04
-45.53
-38.16
-27.71
-15.64
-4.17
4.07
6.85
3.16
-6.34
-19.44
-33.17
-44.71
-52.03
-54.25
-51.64
-45.65
-38.70
-33.58
-32.51
-36.25
-43.75
-52.73
-60.62
-65.54
-66.64
-63.80
-57.34
-47.90
-36.82
-26.43
-19.61
-18.60
-23.72
-32.80
-41.89
-46.85
-44.93
-35.44
-19.24
2.13
27.03
53.65
79.80
102.77
119.94
129.57
131.37
126.35
116.08
101.71
83.67
61.94
37.08
10.74
-14.42
-35.76
-51.84
-63.00
-71.03
-77.97
-84.86
-91.30
-95.90
-97.24
-94.79
-89.11
-81.45
-72.95
-64.20
-55.21
-45.81
-35.94
-25.69
-15.11
-3.91
8.62
23.28
40.59
60.43
81.96
103.79
124.31
141.97
155.59
164.64
169.33
170.54
169.60
167.80
166.14
165.15
164.97
165.57
166.99
169.38
172.95
177.95
184.40
192.06
200.22
207.74
213.20
215.26
212.99
205.91
193.73
176.07
152.40
122.44
86.75
47.11
6.35
-32.22
-65.79
-92.60
-112.28
-125.61
-134.25
-140.20
-145.32
-150.72
-156.41
-161.39
-164.14
-163.48
-159.18
-151.97
-142.84
-132.26
-119.83
-104.56
-85.66
-63.16
-38.07
-11.76
14.64
40.62
66.11
90.74
113.42
132.28
145.27
150.95
149.24
141.62
130.54
118.88
109.12
102.90
100.93
103.32
110.13
121.48
137.23
156.17
175.37
190.32
196.16
189.60
170.53
142.28
110.24
79.66
53.78
33.32
17.48
5.43
-2.73
-6.30
-5.16
-1.02
2.54
1.18
-8.19
-26.14
-50.04
-75.01
-95.81
-108.65
-112.40
-108.53
-100.01
-89.71
-79.21
-68.47
-56.54
-42.53
-26.39
-8.93
8.59
25.01
39.42
50.81
57.77
58.37
50.46
32.47
4.07
-33.35
-76.61
-121.13
-161.65
-192.99
-211.07
-213.77
-201.49
-177.20
-145.74
-112.70
-83.02
-59.97
-44.67
-36.17
-32.01
-28.92
-23.55
-13.33
3.08
25.55
52.63
81.98
110.84
136.36
155.92
167.36
169.26
161.43
145.09
122.74
97.51
72.25
48.80
27.87
9.43
-6.60
-19.91
-29.91
-36.20
-38.90
-38.76
-36.80
-34.02
-31.05
-28.24
-25.74
-23.82
-22.77
-22.92
-24.43
-27.18
-30.83
-34.91
-38.96
-42.59
-45.52
-47.60
-48.70
-48.80
-47.82
-45.72
-42.42
-38.01
-32.92
-27.96
-24.20
-22.54
-23.24
-25.72
-28.74
-30.93
-31.39
-30.11
-27.82
-25.53
-24.05
-23.67
-24.22
-25.34
-26.73
-28.16
-29.44
-30.21
-30.06
-28.64
-25.82
-21.80
-17.03
-12.06
-7.42
-3.53
-0.75
0.62
0.36
-1.61
-5.11
-9.71
-14.84
-19.92
-24.49
-28.28
-31.16
-33.04
-33.78
-33.21
-31.20
-27.74
-23.13
-17.96
-13.00
-9.03
-6.67
-6.17
-7.44
-10.11
-13.70
-17.87
-22.49
-27.66
-33.47
-39.81
-46.22
-51.88
-55.84
-57.30
-55.87
-51.79
-45.87
-39.39
-33.83
-30.55
-30.47
-33.89
-40.43
-49.17
-59.02
-68.94
-78.25
-86.67
-94.24
-101.16
-107.48
-112.83
-116.28
-116.33
-111.39
-100.44
-83.75
-63.14
-41.52
-21.81
-5.84
6.22
15.55
23.73
31.82
39.94
47.63
54.40
60.24
65.46
70.25
74.29
76.77
76.81
74.00
68.71
61.95
54.89
48.48
43.24
39.30
36.54
34.67
33.31
32.07
30.61
28.75
26.42
23.68
20.55
17.11
13.44
9.73
6.19
2.97
0.10
-2.57
-5.28
-8.26
-11.67
-15.53
-19.75
-24.11
-28.20
-31.40
-32.97
-32.25
-28.98
-23.40
-16.32
-8.80
-1.85
3.81
7.93
10.59
12.00
12.39
11.94
10.84
9.29
7.58
5.96
4.61
3.62
2.99
2.65
2.50
2.39
2.15
1.63
0.76
-0.38
-1.59
-2.66
-3.56
-4.52
-5.99
-8.41
-11.98
-16.51
-21.49
-26.23
-30.03
-32.28
-32.52
-30.49
-26.27
-20.33
-13.54
-6.99
-1.59
2.14
4.15
4.65
3.90
1.96
-1.13
-5.13
-9.45
-13.19
-15.48
-15.90
-14.65
-12.46
-10.19
-8.42
-7.31
-6.57
-5.85
-4.95
-3.94
-3.04
-2.47
-2.31
-2.55
-3.18
-4.27
-5.92
-8.10
-10.51
-12.51
-13.31
-12.26
-9.11
-4.15
1.96
8.41
14.52
19.83
24.00
26.68
27.50
26.26
23.12
18.68
13.85
9.54
6.36
4.47
3.63
3.57
4.02
4.83
5.81
6.58
6.73
5.96
4.37
2.45
0.86
0.03
-0.09
-0.05
-0.54
-2.01
-4.31
-6.67
-8.03
-7.46
-4.59
0.31
6.46
12.92
18.96
24.18
28.49
31.90
34.23
35.12
34.18
31.32
27.03
22.30
18.28
15.78
14.92
15.09
15.35
14.94
13.53
11.37
8.94
6.68
4.72
2.96
1.17
-0.83
-3.14
-5.82
-8.90
-12.29
-15.62
-18.20
-19.06
-17.39
-12.93
-6.29
1.10
7.48
11.43
12.42
10.95
8.22
5.47
3.42
2.03
0.77
-0.92
-3.18
-5.72
-8.06
-9.98
-11.74
-14.05
-17.67
-23.22
-30.99
-41.15
-53.82
-68.93
-85.72
-102.35
-115.88
-123.10
-121.86
-112.12
-96.19
-77.92
-61.34
-49.42
-43.39
-42.61
-44.82
-46.55
-43.75
-32.90
-12.49
15.91
47.47
75.61
94.31
100.48
94.87
81.30
64.63
48.79
35.86
26.34
20.13
17.27
17.96
22.11
28.84
36.38
42.78
46.72
48.12
48.08
48.11
49.17
50.84
51.41
48.56
40.56
27.16
9.90
-8.33
-24.30
-35.39
-40.27
-38.97
-32.45
-21.97
-8.64
6.80
23.83
41.90
60.25
77.92
94.02
107.93
119.60
129.44
138.19
146.42
154.20
160.71
164.31
162.84
154.31
137.61
113.02
82.36
48.72
15.85
-12.53
-33.39
-44.91
-46.90
-40.83
-29.65
-17.14
-6.96
-1.69
-2.30
-8.23
-17.98
-29.81
-42.18
-53.82
-63.58
-70.37
-73.31
-72.06
-66.98
-59.14
-49.95
-40.72
-32.44
-25.73
-20.97
-18.49
-18.53
-21.10
-25.86
-32.11
-38.94
-45.41
-50.65
-53.91
-54.52
-52.14
-46.84
-39.32
-30.75
-22.41
-15.31
-9.85
-5.92
-3.11
-1.14
0.02
0.18
-0.78
-2.76
-5.39
-8.27
-11.20
-14.24
-17.57
-21.24
-25.00
-28.30
-30.58
-31.45
-30.85
-28.99
-26.25
-23.01
-19.65
-16.50
-13.87
-11.91
-10.56
-9.43
-7.91
-5.38
-1.47
3.79
10.05
16.80
23.66
30.50
37.41
44.47
51.57
58.33
64.30
69.28
73.59
78.02
83.35
89.71
96.09
100.42
100.21
93.58
80.11
61.05
38.93
16.81
-2.51
-16.91
-25.15
-27.04
-23.56
-16.85
-9.75
-4.82
-3.35
-4.88
-7.63
-9.60
-9.79
-8.75
-8.12
-9.67
-14.21
-21.29
-29.46
-37.04
-42.79
-46.47
-49.03
-52.50
-59.38
-71.88
-90.95
-115.49
-142.20
-166.34
-183.01
-188.64
-182.10
-164.94
-140.79
-114.07
-88.62
-66.75
-49.21
-35.96
-27.20
-23.98
-27.97
-40.45
-61.20
-88.16
-118.10
-147.76
-174.76
-197.70
-215.53
-226.75
-229.26
-221.00
-201.14
-170.89
-133.39
-92.87
-53.28
-17.31
14.11
41.54
66.56
91.16
117.05
145.04
174.50
203.36
228.56
247.18
257.54
259.73
255.38
246.63
235.00
220.99
204.43
185.48
165.38
146.46
131.21
121.12
115.91
113.71
111.97
108.57
102.42
93.54
82.54
70.13
56.79
42.84
28.58
14.42
0.84
-11.75
-23.15
-33.41
-42.73
-51.40
-59.73
-68.05
-76.63
-85.70
-95.28
-105.20
-115.08
-124.42
-132.68
-139.44
-144.49
-147.85
-149.74
-150.47
-150.18
-148.64
-145.17
-138.76
-128.55
-114.21
-96.38
-76.53
-56.58
-38.42
-23.33
-11.59
-2.09
7.68
21.05
40.88
68.00
100.24
132.61
158.97
174.29
176.68
168.10
153.62
139.47
130.91
130.61
138.04
150.04
162.01
169.65
170.31
163.56
150.72
133.71
113.63
90.32
62.78
30.34
-6.38
-45.34
-83.60
-118.36
-147.65
-170.61
-187.29
-198.43
-205.12
-208.28
-208.29
-204.73
-196.61
-183.17
-164.75
-143.55
-123.59
-109.80
-106.24
-114.54
-132.59
-154.64
-172.89
-179.69
-169.66
-141.20
-96.90
-42.58
14.35
66.86
109.83
140.80
159.64
167.74
167.15
159.89
147.86
132.82
116.55
100.65
86.25
73.88
63.49
54.85
47.93
43.03
40.58
40.92
44.07
49.83
57.95
67.73
77.80
86.09
90.43
89.34
82.94
72.93
61.65
50.86
40.77
30.25
17.82
2.90
-13.42
-28.66
-40.11
-46.04
-46.42
-42.92
-38.04
-33.97
-31.84
-31.41
-31.50
-30.59
-27.57
-22.01
-14.25
-5.31
3.39
10.24
13.88
13.87
11.28
8.85
10.44
19.77
38.90
67.42
102.42
139.62
174.72
204.51
227.23
242.28
249.63
249.68
243.44
232.84
220.74
210.26
203.77
201.88
203.12
204.45
202.46
194.80
180.85
161.70
139.36
115.75
92.07
68.81
46.10
24.20
3.61
-15.13
-31.77
-46.47
-59.65
-71.57
-82.11
-90.70
-96.75
-100.13
-101.43
-101.85
-102.70
-104.71
-107.70
-110.63
-112.00
-110.63
-106.09
-98.83
-89.95
-80.64
-71.87
-64.17
-57.86
-53.23
-50.61
-50.28
-52.22
-55.84
-60.10
-63.72
-65.71
-65.63
-63.74
-60.77
-57.48
-54.29
-51.09
-47.30
-42.22
-35.39
-26.83
-17.18
-7.44
1.28
8.12
12.66
14.90
15.10
13.49
10.23
5.41
-0.69
-7.55
-14.45
-20.81
-26.50
-31.83
-37.38
-43.44
-49.71
-55.34
-59.39
-61.37
-61.63
-61.25
-61.59
-63.65
-67.80
-73.76
-80.94
-88.72
-96.66
-104.42
-111.61
-117.72
-122.26
-124.96
-126.01
-126.13
-126.39
-127.78
-130.85
-135.44
-140.67
-145.15
-147.36
-145.93
-139.97
-129.14
-113.70
-94.45
-72.63
-49.72
-27.19
-6.11
13.05
30.54
47.30
64.67
84.04
106.17
130.48
154.38
173.61
183.69
181.93
169.00
148.77
126.64
107.00
91.26
77.57
62.16
41.35
12.97
-23.39
-67.04
-116.61
-169.85
-223.02
-270.61
-306.44
-325.84
-327.83
-315.95
-296.89
-277.69
-262.80
-252.55
-243.51
-230.66
-209.99
-180.32
-143.36
-102.55
-61.36
-21.94
15.07
50.08
83.86
117.16
150.94
186.30
223.97
263.22
301.00
332.20
351.23
354.26
341.00
315.03
282.31
248.82
218.58
192.91
171.19
152.21
135.22
120.13
107.12
96.10
86.67
78.36
71.09
65.18
61.15
59.44
60.10
62.79
66.97
72.11
77.87
84.21
91.29
99.27
108.07
117.13
125.52
132.28
137.00
140.22
143.38
147.89
153.98
160.03
162.76
158.34
144.26
120.51
89.42
54.79
20.18
-12.02
-40.74
-65.58
-86.06
-101.48
-111.34
-116.01
-116.83
-115.72
-114.32
-113.42
-113.02
-112.81
-112.80
-113.48
-115.53
-119.22
-124.02
-128.43
-130.26
-127.15
-117.15
-99.22
-73.79
-42.68
-8.76
24.41
53.55
76.25
91.12
98.00
97.53
90.92
79.88
66.49
53.06
41.72
33.77
29.14
26.35
22.98
16.74
6.48
-7.32
-22.66
-36.90
-47.87
-54.51
-56.91
-55.87
-52.27
-46.80
-39.95
-32.37
-24.89
-18.47
-13.98
-11.89
-12.23
-14.64
-18.52
-23.21
-28.06
-32.51
-36.19
-38.92
-40.77
-42.10
-43.51
-45.81
-49.69
-55.53
-63.10
-71.42
-78.78
-83.08
-82.52
-76.15
-64.32
-48.44
-30.46
-12.08
5.70
22.58
38.52
53.19
65.51
74.14
78.16
77.58
73.52
67.67
61.41
55.32
49.24
42.63
35.17
27.07
18.93
11.50
5.23
0.04
-4.48
-8.69
-12.60
-15.80
-17.70
-17.99
-17.01
-15.87
-16.19
-19.27
-25.25
-32.88
-39.98
-44.53
-45.33
-42.34
-36.45
-28.66
-19.44
-8.24
5.67
22.41
40.99
59.71
76.94
91.82
104.31
114.65
123.47
130.44
134.08
132.45
124.40
110.66
93.97
78.23
67.15
63.96
69.71
82.76
99.45
115.66
128.51
137.25
143.05
141.51
130.30
109.31
81.21
50.16
19.76
-8.10
-33.00
-54.81
-72.63
-83.74
-83.52
-67.57
-34.50
12.20
64.34
111.46
144.30
156.90
149.69
128.62
102.00
76.56
55.34
37.78
21.58
4.54
-14.48
-35.21
-57.19
-80.47
-105.22
-130.55
-153.75
-170.71
-177.50
-172.12
-155.14
-129.62
-100.06
-70.79
-44.65
-22.81
-5.32
8.02
17.13
21.87
22.33
18.93
12.27
2.90
-8.93
-23.25
-39.90
-58.18
-76.61
-93.29
-106.60
-115.87
-121.52
-124.75
-126.80
-128.27
-128.98
-128.17
-125.13
-119.65
-112.29
-104.16
-96.45
-90.06
-85.40
-82.45
-80.99
-80.74
-81.45
-82.80
-84.34
-85.46
-85.41
-83.46
-79.10
-72.39
-64.01
-55.26
-47.58
-42.05
-39.06
-38.14
-38.43
-39.06
-39.54
-40.06
-41.27
-43.87
-48.35
-54.65
-62.07
-69.16
-73.75
-73.14
-64.75
-47.22
-21.38
9.39
39.91
64.86
80.60
86.33
84.00
76.99
68.53
60.56
53.71
48.06
44.09
42.82
45.16
50.99
58.66
65.57
69.31
68.97
65.62
61.80
60.22
62.29
67.44
73.45
77.47
77.50
73.05
65.00
54.66
43.01
30.54
17.97
6.97
0.23
0.33
7.93
20.71
33.56
40.57
37.60
24.10
3.09
-20.55
-42.34
-59.81
-72.64
-81.61
-87.39
-89.90
-88.60
-83.26
-74.47
-63.63
-52.58
-42.85
-35.08
-29.07
-23.99
-18.94
-13.47
-7.75
-2.46
1.60
3.88
4.35
3.47
1.96
0.46
-0.72
-1.59
-2.39
-3.37
-4.68
-6.17
-7.58
-8.60
-9.08
-9.04
-8.68
-8.30
-8.11
-8.18
-8.36
-8.34
-7.79
-6.39
-3.96
-0.38
4.33
10.10
16.68
23.79
31.06
38.15
44.73
50.54
55.28
58.63
60.23
59.77
57.04
52.01
44.82
35.79
25.47
14.64
4.28
-4.56
-11.08
-14.92
-16.33
-16.12
-15.41
-15.38
-16.91
-20.47
-26.02
-33.06
-40.86
-48.63
-55.79
-62.02
-67.30
-71.70
-75.21
-77.70
-78.92
-78.72
-77.13
-74.31
-70.47
-65.76
-60.14
-53.61
-46.23
-38.33
-30.39
-22.92
-16.29
-10.65
-5.94
-2.10
0.94
3.12
4.44
4.96
4.92
4.70
4.73
5.31
6.59
8.48
10.72
12.97
14.87
16.09
16.37
15.55
13.57
10.57
6.77
2.55
-1.70
-5.63
-9.10
-12.14
-14.93
-17.68
-20.48
-23.19
-25.46
-26.86
-27.00
-25.74
-23.16
-19.60
-15.52
-11.37
-7.61
-4.63
-2.67
-1.86
-2.19
-3.50
-5.59
-8.24
-11.26
-14.47
-17.73
-20.89
-23.85
-26.61
-29.17
-31.55
-33.69
-35.39
-36.37
-36.35
-35.18
-32.90
-29.79
-26.28
-22.82
-19.82
-17.59
-16.32
-16.06
-16.68
-17.89
-19.23
-20.15
-20.15
-18.93
-16.40
-12.70
-7.97
-2.24
4.53
12.38
21.06
29.96
38.10
44.38
48.04
49.01
47.93
45.89
43.91
42.50
41.40
39.81
36.85
32.21
26.47
20.98
17.29
16.76
20.13
27.55
38.71
52.60
67.59
81.41
91.30
94.76
90.92
81.12
68.88
58.59
53.48
54.48
60.14
67.31
72.53
73.62
70.03
62.59
52.63
40.78
27.24
12.71
-1.14
-11.83
-16.48
-13.78
-5.26
6.90
17.12
19.43
11.66
-2.74
-19.36
-33.01
-41.49
-45.84
-48.93
-51.73
-54.69
-56.86
-56.93
-54.49
-49.99
-44.71
-39.87
-35.90
-32.56
-29.18
-24.82
-19.00
-12.21
-5.44
0.03
3.24
4.01
2.85
0.77
-0.82
-0.68
1.75
6.40
12.55
19.21
25.40
30.30
33.42
34.72
34.45
32.85
30.20
26.63
22.36
17.72
13.19
9.22
6.20
4.27
3.26
2.81
2.52
2.16
1.68
1.17
0.69
0.26
-0.15
-0.54
-0.84
-0.91
-0.61
0.15
1.29
2.64
3.89
4.72
4.87
4.24
3.05
1.78
1.09
1.58
3.58
7.02
11.49
16.37
21.07
25.13
28.31
30.47
31.56
31.58
30.62
28.88
26.66
24.29
22.04
20.08
18.40
16.93
15.55
14.15
12.67
11.09
9.40
7.61
5.68
3.61
1.42
-0.83
-3.02
-5.02
-6.80
-8.41
-10.03
-11.85
-14.01
-16.50
-19.14
-21.57
-23.33
-23.99
-23.18
-20.76
-16.80
-11.65
-5.83
0.07
5.48
10.02
13.45
15.74
16.95
17.19
16.61
15.42
13.85
12.17
10.65
9.45
8.61
8.06
7.63
7.14
6.45
5.52
4.38
3.04
1.48
-0.32
-2.37
-4.61
-6.88
-9.08
-11.16
-13.27
-15.60
-18.36
-21.50
-24.74
-27.51
-29.18
-29.24
-27.43
-23.88
-18.97
-13.22
-7.20
-1.36
4.00
8.67
12.55
15.58
17.68
18.86
19.19
18.84
18.07
17.18
16.39
15.82
15.41
15.04
14.55
13.88
13.04
12.12
11.15
10.11
8.87
7.32
5.36
3.04
0.50
-2.09
-4.59
-6.96
-9.25
-11.52
-13.84
-16.21
-18.63
-21.11
-23.69
-26.35
-29.00
-31.35
-32.98
-33.38
-32.13
-29.05
-24.25
-18.09
-11.08
-3.73
3.49
10.14
15.84
20.27
23.19
24.57
24.65
23.85
22.71
21.70
21.11
21.02
21.32
21.79
22.26
22.61
22.82
22.89
22.84
22.66
22.31
21.78
21.05
20.18
19.23
18.27
17.33
16.35
15.31
14.13
12.81
11.35
9.78
8.12
6.36
4.51
2.58
0.60
-1.40
-3.40
-5.38
-7.37
-9.36
-11.33
-13.21
-14.90
-16.33
-17.55
-18.70
-20.02
-21.84
-24.37
-27.60
-31.22
-34.62
-37.06
-37.88
-36.65
-33.35
-28.24
-21.87
-14.85
-7.78
-1.16
4.64
9.40
13.00
15.47
16.92
17.51
17.45
16.94
16.19
15.33
14.47
13.67
12.91
12.17
11.43
10.69
9.98
9.37
8.85
8.39
7.83
7.00
5.75
4.09
2.24
0.55
-0.67
-1.26
-1.41
-1.52
-2.12
-3.61
-6.11
-9.41
-13.10
-16.72
-19.87
-22.40
-24.36
-26.00
-27.68
-29.75
-32.51
-36.02
-40.07
-44.10
-47.29
-48.70
-47.55
-43.46
-36.60
-27.73
-18.01
-8.65
-0.70
5.25
9.09
11.14
11.94
12.10
12.09
12.21
12.53
13.00
13.52
14.01
14.52
15.17
16.14
17.60
19.55
21.84
24.14
25.98
26.92
26.72
25.43
23.39
21.10
18.95
17.03
15.05
12.44
8.58
3.13
-3.90
-12.10
-20.87
-29.57
-37.63
-44.65
-50.51
-55.57
-60.89
-68.04
-78.63
-93.53
-112.17
-132.49
-151.46
-166.09
-174.40
-175.89
-171.33
-162.09
-149.46
-134.34
-117.23
-98.54
-78.90
-59.13
-40.08
-22.34
-6.02
9.20
23.89
38.51
53.14
67.40
80.55
91.89
101.02
108.15
113.93
119.20
124.50
129.72
134.10
136.48
135.89
131.97
125.21
116.76
107.96
99.91
93.15
87.74
83.49
80.18
77.65
75.68
73.87
71.66
68.48
64.00
58.30
51.90
45.48
39.64
34.69
30.58
27.03
23.71
20.44
17.14
13.86
10.68
7.62
4.64
1.65
-1.40
-4.57
-7.86
-11.11
-14.00
-16.07
-16.83
-15.99
-13.65
-10.32
-6.71
-3.49
-0.98
0.87
2.34
3.65
4.79
5.51
5.56
4.87
3.70
2.53
1.86
1.95
2.74
3.93
5.11
6.01
6.51
6.66
6.50
6.00
5.03
3.48
1.29
-1.42
-4.37
-7.23
-9.74
-11.75
-13.25
-14.29
-14.84
-14.78
-13.94
-12.27
-9.89
-7.16
-4.55
-2.44
-0.99
-0.13
0.39
0.72
0.90
0.74
0.01
-1.43
-3.52
-5.96
-8.39
-10.55
-12.34
-13.88
-15.38
-17.00
-18.77
-20.54
-22.06
-23.08
-23.48
-23.28
-22.65
-21.79
-20.78
-19.51
-17.73
-15.14
-11.61
-7.32
-2.79
1.20
3.91
4.90
4.29
2.78
1.37
0.90
1.63
3.08
4.20
3.94
1.87
-1.52
-4.91
-6.63
-5.11
0.76
11.42
26.47
44.31
62.06
75.82
81.66
77.17
62.70
41.76
19.93
2.91
-5.63
-5.15
2.12
12.55
22.83
30.98
36.40
39.25
39.69
37.58
32.66
25.09
15.65
5.76
-3.11
-10.03
-14.92
-18.52
-21.89
-25.86
-30.65
-35.82
-40.58
-44.26
-46.58
-47.75
-48.22
-48.40
-48.33
-47.69
-45.94
-42.58
-37.42
-30.72
-23.12
-15.50
-8.71
-3.35
0.34
2.53
3.60
4.02
4.19
4.28
4.37
4.41
4.37
4.27
4.17
4.12
4.07
3.94
3.63
3.10
2.37
1.55
0.75
0.04
-0.61
-1.28
-2.09
-3.10
-4.30
-5.61
-6.89
-8.03
-8.97
-9.75
-10.47
-11.25
-12.13
-13.15
-14.32
-15.69
-17.34
-19.36
-21.72
-24.25
-26.65
-28.59
-29.89
-30.57
-30.94
-31.45
-32.60
-34.65
-37.54
-40.82
-43.72
-45.38
-45.08
-42.46
-37.56
-30.84
-22.96
-14.70
-6.72
0.47
6.55
11.34
14.84
17.18
18.61
19.51
20.25
21.11
22.17
23.34
24.40
25.12
25.43
25.39
25.19
24.99
24.86
24.74
24.48
23.95
23.08
21.84
20.27
18.40
16.27
13.98
11.65
9.47
7.59
6.04
4.74
3.50
2.15
0.64
-0.95
-2.46
-3.73
-4.68
-5.38
-6.01
-6.75
-7.76
-9.11
-10.80
-12.73
-14.76
-16.73
-18.54
-20.23
-21.96
-24.01
-26.64
-29.94
-33.73
-37.60
-40.86
-42.85
-43.01
-41.00
-36.81
-30.70
-23.22
-15.04
-6.89
0.60
6.94
11.85
15.25
17.23
18.00
17.89
17.23
16.37
15.60
15.15
15.12
15.52
16.29
17.30
18.39
19.39
20.17
20.68
20.89
20.85
20.53
19.91
18.91
17.54
15.89
14.15
12.53
11.14
9.95
8.80
7.45
5.75
3.65
1.27
-1.21
-3.62
-5.83
-7.83
-9.64
-11.39
-13.26
-15.47
-18.25
-21.66
-25.51
-29.30
-32.29
-33.68
-32.85
-29.52
-23.87
-16.46
-8.12
0.26
7.89
14.27
19.15
22.53
24.54
25.37
25.19
24.21
22.69
20.97
19.38
18.22
17.56
17.33
17.34
17.42
17.47
17.50
17.54
17.58
17.53
17.23
16.57
15.51
14.12
12.54
10.89
9.22
7.51
5.71
3.81
1.86
-0.07
-1.92
-3.72
-5.53
-7.41
-9.40
-11.44
-13.44
-15.37
-17.24
-19.18
-21.35
-23.91
-26.98
-30.54
-34.42
-38.16
-41.17
-42.71
-42.18
-39.28
-34.08
-27.00
-18.71
-9.94
-1.39
6.33
12.75
17.62
20.87
22.72
23.59
23.98
24.34
24.88
25.55
26.10
26.25
25.83
24.94
23.88
23.09
22.97
23.66
24.98
26.46
27.42
27.24
25.53
22.33
18.06
13.47
9.40
6.61
5.64
6.55
8.79
11.31
12.97
13.23
12.92
14.45
21.00
35.06
56.91
83.92
111.05
132.59
144.30
144.70
135.47
120.43
103.94
89.72
80.12
76.14
77.62
83.25
90.42
95.52
94.81
86.00
69.59
49.01
29.42
15.30
8.33
6.53
5.25
-0.53
-14.00
-35.52
-63.08
-93.69
-124.47
-153.12
-177.55
-195.58
-205.29
-205.76
-197.81
-184.34
-169.46
-157.20
-150.41
-149.97
-154.93
-163.36
-173.16
-182.74
-191.21
-198.26
-203.89
-208.23
-211.56
-214.27
-216.86
-219.85
-223.63
-228.45
-234.48
-241.99
-251.19
-261.70
-271.93
-278.73
-277.83
-265.01
-237.55
-195.10
-139.38
-73.48
-0.98
74.29
148.03
215.21
270.38
309.07
329.46
333.21
324.98
310.54
294.70
279.96
266.57
253.52
239.64
224.34
207.61
189.69
170.87
151.58
132.77
116.02
103.18
95.70
93.67
95.55
98.62
100.10
98.16
92.35
83.37
72.29
59.72
45.78
30.58
14.90
0.46
-10.58
-16.75
-18.06
-16.09
-13.25
-11.56
-11.85
-13.64
-15.62
-16.45
-15.40
-12.67
-9.34
-7.17
-8.00
-13.04
-22.12
-33.48
-44.18
-51.27
-53.07
-49.88
-43.86
-37.80
-33.78
-32.46
-32.95
-33.56
-32.48
-28.30
-20.38
-8.96
4.76
18.71
30.38
37.60
39.27
35.84
29.16
21.88
16.65
15.54
19.58
28.58
41.00
54.21
65.11
71.10
71.00
65.37
56.23
46.24
37.81
32.43
30.49
31.46
34.22
37.35
39.36
39.10
36.11
30.72
23.65
15.63
7.30
-0.85
-8.25
-14.33
-18.43
-19.85
-17.89
-12.47
-4.02
6.76
19.22
32.50
45.32
56.40
65.07
71.92
77.58
82.18
84.79
83.75
77.27
64.27
45.49
23.56
2.39
-15.32
-28.57
-37.55
-42.39
-40.25
-28.73
-8.26
14.48
35.41
52.18
64.73
73.55
79.58
83.38
84.36
81.67
75.43
67.97
61.94
58.72
56.90
52.21
39.01
12.73
-27.32
-76.95
-128.05
-172.49
-204.78
-223.24
-229.29
-225.81
-215.83
-201.53
-184.38
-165.55
-146.82
-130.18
-117.07
-107.63
-100.78
-94.88
-88.29
-79.96
-69.64
-58.05
-46.41
-35.86
-27.11
-20.18
-14.64
-9.90
-5.48
-1.20
2.77
6.10
8.43
9.60
9.66
8.89
7.72
6.64
5.98
5.84
5.97
5.93
5.20
3.47
0.76
-2.57
-6.04
-9.22
-11.97
-14.39
-16.78
-19.39
-22.24
-25.05
-27.31
-28.47
-28.10
-26.00
-22.23
-17.10
-11.02
-4.50
1.98
7.95
13.02
16.91
19.42
20.47
20.10
18.48
15.96
12.99
10.05
7.56
5.75
4.71
4.38
4.75
5.81
7.55
9.89
12.57
15.21
17.36
18.66
18.91
18.11
16.43
14.07
11.27
8.26
5.23
2.38
-0.19
-2.51
-4.72
-7.06
-9.72
-12.72
-15.81
-18.51
-20.20
-20.41
-18.91
-15.79
-11.41
-6.22
-0.61
5.12
10.72
15.92
20.37
23.72
25.77
26.55
26.32
25.53
24.61
23.87
23.41
23.21
23.13
23.02
22.78
22.32
21.61
20.59
19.19
17.34
14.96
12.02
8.58
4.80
0.95
-2.70
-5.90
-8.54
-10.70
-12.57
-14.40
-16.40
-18.72
-21.41
-24.46
-27.85
-31.44
-34.93
-37.78
-39.34
-38.92
-36.16
-31.14
-24.44
-16.88
-9.33
-2.39
3.65
8.74
12.90
16.16
18.48
19.91
20.56
20.69
20.60
20.58
20.81
21.34
22.10
23.01
23.92
24.75
25.42
25.89
26.15
26.20
26.04
25.62
24.91
23.88
22.57
21.07
19.54
18.10
16.78
15.54
14.26
12.89
11.51
10.35
9.71
9.75
10.42
11.38
12.13
12.18
11.23
9.25
6.44
3.09
-0.51
-4.14
-7.64
-10.91
-13.86
-16.49
-18.89
-21.25
-23.87
-26.97
-30.55
-34.34
-37.69
-39.84
-40.08
-38.00
-33.65
-27.52
-20.39
-13.08
-6.28
-0.41
4.40
8.20
11.10
13.15
14.37
14.79
14.49
13.67
12.63
11.66
10.97
10.67
10.78
11.27
12.11
13.25
14.62
16.09
17.44
18.46
18.95
18.83
18.16
17.13
16.03
15.08
14.36
13.79
13.13
12.11
10.59
8.59
6.33
4.10
2.11
0.40
-1.17
-2.84
-4.90
-7.53
-10.72
-14.29
-17.88
-20.97
-23.00
-23.45
-21.96
-18.50
-13.37
-7.16
-0.61
5.60
11.01
15.39
18.74
21.13
22.65
23.36
23.33
22.69
21.64
20.43
19.34
18.59
18.30
18.50
19.10
19.94
20.78
21.37
21.47
20.94
19.77
18.09
16.06
13.88
11.69
9.57
7.52
5.52
3.49
1.41
-0.78
-3.04
-5.34
-7.65
-9.93
-12.23
-14.67
-17.43
-20.67
-24.45
-28.58
-32.64
-35.97
-37.85
-37.71
-35.32
-30.88
-24.96
-18.33
-11.65
-5.39
0.26
5.24
9.50
12.92
15.29
16.51
16.63
15.97
14.97
14.11
13.68
13.76
14.25
14.93
15.67
16.36
17.02
17.60
18.01
18.10
17.68
16.64
15.00
12.90
10.57
8.25
6.13
4.26
2.59
1.04
-0.49
-2.02
-3.54
-5.07
-6.62
-8.28
-10.10
-12.08
-14.13
-16.08
-17.82
-19.30
-20.64
-22.12
-24.03
-26.65
-30.03
-33.95
-37.84
-40.90
-42.24
-41.17
-37.40
-31.15
-23.13
-14.28
-5.58
2.19
8.53
13.28
16.51
18.47
19.48
19.84
19.82
19.62
19.36
19.10
18.88
18.69
18.53
18.39
18.25
18.11
17.98
17.92
17.94
18.01
18.03
17.86
17.33
16.38
15.01
13.33
11.49
9.63
7.84
6.15
4.57
3.04
1.51
-0.12
-1.92
-3.92
-6.09
-8.32
-10.50
-12.52
-14.35
-16.06
-17.83
-19.88
-22.41
-25.47
-28.85
-32.07
-34.41
-35.15
-33.79
-30.18
-24.63
-17.76
-10.36
-3.16
3.30
8.64
12.68
15.34
16.66
16.84
16.21
15.20
14.21
13.52
13.19
13.16
13.27
13.40
13.52
13.65
13.83
14.02
14.19
14.26
14.19
13.95
13.54
12.92
12.05
10.97
9.74
8.53
7.48
6.69
6.11
5.59
4.96
4.04
2.78
1.17
-0.69
-2.70
-4.80
-6.98
-9.33
-12.00
-15.12
-18.69
-22.49
-26.05
-28.74
-29.92
-29.16
-26.36
-21.78
-15.98
-9.58
-3.16
2.83
8.07
12.35
15.52
17.50
18.34
18.22
17.45
16.40
15.41
14.72
14.41
14.44
14.68
15.03
15.37
15.66
15.81
15.73
15.32
14.49
13.21
11.57
9.71
7.80
5.99
4.31
2.78
1.36
0.02
-1.25
-2.45
-3.58
-4.66
-5.70
-6.70
-7.67
-8.65
-9.68
-10.82
-12.06
-13.36
-14.63
-15.79
-16.87
-18.02
-19.50
-21.53
-24.16
-27.14
-30.00
-32.14
-32.98
-32.16
-29.56
-25.29
-19.70
-13.29
-6.64
-0.34
5.08
9.25
11.98
13.33
13.57
13.07
12.23
11.37
10.71
10.35
10.36
10.73
11.44
12.41
13.48
14.53
15.42
16.14
16.72
17.25
17.76
18.21
18.46
18.40
17.90
16.96
15.64
14.06
12.33
10.53
8.71
6.82
4.77
2.51
0.04
-2.51
-4.97
-7.15
-8.93
-10.37
-11.57
-12.71
-14.00
-15.56
-17.50
-19.88
-22.64
-25.54
-28.17
-29.93
-30.26
-28.72
-25.21
-19.95
-13.49
-6.53
0.26
6.35
11.40
15.26
17.92
19.45
19.99
19.75
18.97
17.88
16.74
15.77
15.11
14.87
15.05
15.58
16.35
17.15
17.78
18.08
17.94
17.35
16.41
15.22
13.90
12.49
10.97
9.34
7.58
5.76
3.99
2.32
0.72
-0.92
-2.78
-4.98
-7.52
-10.26
-12.98
-15.49
-17.72
-19.68
-21.53
-23.47
-25.75
-28.54
-31.91
-35.70
-39.50
-42.70
-44.57
-44.46
-42.01
-37.28
-30.73
-23.08
-15.13
-7.52
-0.68
5.22
10.12
14.04
16.95
18.88
19.90
20.20
20.07
19.76
19.49
19.34
19.33
19.44
19.66
19.96
20.31
20.63
20.83
20.82
20.53
19.97
19.17
18.21
17.16
16.03
14.85
13.58
12.20
10.68
9.04
7.28
5.43
3.53
1.58
-0.40
-2.42
-4.46
-6.56
-8.72
-10.96
-13.27
-15.59
-17.89
-20.10
-22.30
-24.63
-27.30
-30.51
-34.31
-38.47
-42.38
-45.23
-46.20
-44.75
-40.81
-34.83
-27.52
-19.69
-11.96
-4.76
1.69
7.23
11.70
15.02
17.20
18.39
18.82
18.79
18.51
18.18
17.91
17.79
17.90
18.29
18.95
19.82
20.77
21.60
22.13
22.24
21.86
21.00
19.68
17.94
15.84
13.45
10.94
8.53
6.45
4.83
3.61
2.59
1.44
-0.06
-2.01
-4.33
-6.79
-9.17
-11.32
-13.23
-14.96
-16.69
-18.63
-21.02
-24.00
-27.56
-31.44
-35.09
-37.78
-38.81
-37.67
-34.22
-28.74
-21.82
-14.23
-6.72
0.08
5.82
10.30
13.51
15.54
16.57
16.84
16.62
16.24
15.93
15.89
16.13
16.62
17.26
18.01
18.85
19.78
20.73
21.61
22.26
22.52
22.32
21.63
20.52
19.04
17.29
15.33
13.26
11.16
9.14
7.24
5.49
3.85
2.27
0.70
-0.88
-2.56
-4.41
-6.55
-9.04
-11.85
-14.85
-17.80
-20.50
-22.89
-25.09
-27.38
-30.09
-33.38
-37.15
-40.98
-44.24
-46.25
-46.41
-44.42
-40.23
-34.08
-26.44
-17.94
-9.21
-0.84
6.64
12.92
17.81
21.29
23.50
24.64
25.00
24.88
24.55
24.24
24.13
24.33
24.85
25.62
26.52
27.36
28.01
28.37
28.42
28.18
27.64
26.78
25.59
24.08
22.39
20.68
19.08
17.59
16.10
14.39
12.36
10.00
7.51
5.14
3.10
1.43
0.03
-1.34
-2.88
-4.76
-7.05
-9.73
-12.73
-15.89
-18.99
-21.85
-24.41
-26.81
-29.32
-32.28
-35.87
-39.94
-43.98
-47.25
-48.95
-48.51
-45.65
-40.48
-33.42
-25.05
-16.02
-6.99
1.46
8.83
14.75
19.01
21.63
22.81
22.95
22.50
21.88
21.39
21.17
21.24
21.55
22.04
22.67
23.36
24.05
24.68
25.17
25.43
25.40
24.94
23.99
22.52
20.60
18.39
16.07
13.77
11.56
9.42
7.27
5.01
2.58
-0.08
-2.97
-6.06
-9.24
-12.41
-15.46
-18.37
-21.27
-24.34
-27.77
-31.65
-35.90
-40.19
-44.04
-46.83
-47.99
-47.08
-43.89
-38.54
-31.48
-23.38
-15.05
-7.26
-0.60
4.65
8.46
11.03
12.65
13.62
14.21
14.61
14.94
15.30
15.75
16.30
16.96
17.72
18.58
19.51
20.43
21.21
21.67
21.64
21.04
19.85
18.15
16.08
13.78
11.35
8.88
6.37
3.78
1.02
-1.95
-5.12
-8.36
-11.51
-14.39
-16.97
-19.35
-21.80
-24.63
-28.11
-32.24
-36.69
-40.84
-43.84
-44.87
-43.37
-39.27
-32.91
-25.01
-16.43
-7.94
-0.14
6.64
12.19
16.48
19.51
21.38
22.29
22.49
22.25
21.88
21.59
21.54
21.80
22.35
23.13
24.04
25.02
26.02
26.98
27.81
28.41
28.66
28.47
27.82
26.76
25.37
23.72
21.85
19.81
17.65
15.44
13.24
11.09
8.97
6.84
4.68
2.49
0.33
-1.76
-3.78
-5.80
-7.89
-10.16
-12.63
-15.30
-18.11
-20.98
-23.81
-26.50
-29.06
-31.66
-34.61
-38.22
-42.62
-47.53
-52.24
-55.79
-57.24
-55.98
-51.93
-45.47
-37.26
-28.03
-18.42
-8.98
-0.19
7.50
13.69
18.13
20.83
22.03
22.20
21.88
21.53
21.49
21.87
22.66
23.73
24.96
26.23
27.45
28.54
29.42
29.98
30.11
29.74
28.78
27.27
25.28
22.96
20.47
17.93
15.41
12.94
10.48
8.01
5.46
2.81
0.06
-2.76
-5.60
-8.41
-11.19
-13.99
-16.93
-20.17
-23.87
-28.13
-32.92
-38.05
-43.06
-47.27
-49.82
-49.94
-47.13
-41.41
-33.28
-23.64
-13.50
-3.78
4.89
12.10
17.68
21.59
23.89
24.80
24.66
23.90
23.00
22.32
22.08
22.35
23.03
23.98
25.05
26.12
27.08
27.86
28.36
28.50
28.22
27.49
26.33
24.79
22.94
20.82
18.49
16.00
13.41
10.75
8.09
5.45
2.84
0.29
-2.20
-4.65
-7.16
-9.86
-12.84
-16.14
-19.63
-23.12
-26.38
-29.29
-31.90
-34.44
-37.29
-40.79
-45.13
-50.12
-55.18
-59.37
-61.62
-61.05
-57.24
-50.36
-41.12
-30.50
-19.54
-9.04
0.45
8.57
15.17
20.17
23.60
25.59
26.43
26.52
26.31
26.22
26.49
27.19
28.21
29.36
30.46
31.44
32.32
33.11
33.78
34.15
34.04
33.25
31.78
29.79
27.54
25.29
23.19
21.20
19.20
17.06
14.73
12.25
9.75
7.37
5.16
3.09
1.03
-1.21
-3.77
-6.73
-10.04
-13.54
-17.00
-20.21
-23.07
-25.58
-27.92
-30.37
-33.29
-36.97
-41.52
-46.76
-52.13
-56.76
-59.64
-59.93
-57.17
-51.43
-43.31
-33.65
-23.39
-13.28
-3.88
4.46
11.47
16.98
20.90
23.26
24.27
24.31
23.86
23.37
23.17
23.38
23.95
24.75
25.66
26.59
27.53
28.41
29.11
29.47
29.32
28.60
27.34
25.68
23.79
21.78
19.69
17.53
15.27
12.91
10.44
7.84
5.10
2.20
-0.84
-3.95
-7.01
-9.90
-12.55
-15.05
-17.60
-20.56
-24.22
-28.67
-33.62
-38.36
-41.97
-43.58
-42.64
-39.09
-33.30
-25.92
-17.64
-9.04
-0.61
7.27
14.19
19.77
23.73
25.99
26.73
26.36
25.40
24.31
23.41
22.86
22.66
22.77
23.14
23.75
24.51
25.29
25.90
26.15
25.95
25.29
24.26
22.96
21.47
19.80
17.91
15.80
13.54
11.21
8.90
6.69
4.62
2.65
0.76
-1.09
-2.94
-4.87
-7.01
-9.47
-12.30
-15.48
-18.84
-22.16
-25.27
-28.10
-30.78
-33.62
-37.01
-41.24
-46.33
-51.90
-57.09
-60.80
-61.96
-59.83
-54.26
-45.72
-35.11
-23.51
-11.92
-1.12
8.37
16.20
22.18
26.27
28.64
29.59
29.55
28.98
28.29
27.79
27.64
27.90
28.50
29.28
30.10
30.83
31.43
31.93
32.36
32.66
32.72
32.34
31.38
29.79
27.68
25.31
22.95
20.84
19.01
17.36
15.65
13.68
11.37
8.82
6.27
3.95
1.98
0.29
-1.35
-3.18
-5.38
-7.99
-10.90
-13.92
-16.90
-19.76
-22.49
-25.19
-28.08
-31.40
-35.43
-40.22
-45.49
-50.59
-54.60
-56.54
-55.70
-51.79
-45.08
-36.22
-26.10
-15.62
-5.59
3.39
10.90
16.71
20.78
23.25
24.41
24.63
24.30
23.73
23.15
22.71
22.45
22.43
22.65
23.09
23.66
24.21
24.59
24.67
24.41
23.82
22.91
21.66
20.04
18.05
15.81
13.51
11.35
9.43
7.67
5.83
3.66
1.03
-1.96
-5.04
-7.89
-10.30
-12.31
-14.14
-16.09
-18.46
-21.41
-24.99
-29.07
-33.36
-37.35
-40.38
-41.71
-40.72
-37.12
-31.03
-23.01
-13.92
-4.65
4.01
11.54
17.61
22.09
24.99
26.40
26.56
25.77
24.42
22.90
21.54
20.61
20.23
20.41
21.06
22.00
22.99
23.80
24.25
24.26
23.82
23.00
21.87
20.46
18.82
16.99
15.02
12.99
10.94
8.86
6.71
4.44
2.05
-0.36
-2.69
-4.89
-7.05
-9.33
-11.92
-14.86
-17.98
-20.97
-23.48
-25.40
-26.85
-28.20
-29.94
-32.52
-36.18
-40.92
-46.39
-51.91
-56.55
-59.23
-59.05
-55.52
-48.83
-39.76
-29.51
-19.28
-9.92
-1.82
5.08
11.06
16.33
20.92
24.67
27.36
28.86
29.31
29.02
28.42
27.89
27.58
27.49
27.48
27.43
27.36
27.34
27.50
27.82
28.14
28.18
27.66
26.43
24.58
22.33
20.02
17.93
16.19
14.73
13.39
11.94
10.22
8.17
5.87
3.46
1.13
-1.00
-2.89
-4.63
-6.39
-8.39
-10.81
-13.69
-16.94
-20.32
-23.54
-26.37
-28.73
-30.77
-32.84
-35.34
-38.65
-42.88
-47.76
-52.65
-56.62
-58.68
-58.08
-54.47
-48.01
-39.27
-29.06
-18.31
-7.84
1.65
9.69
16.01
20.56
23.53
25.23
26.05
26.34
26.36
26.27
26.16
26.09
26.09
26.23
26.51
26.91
27.34
27.66
27.80
27.66
27.22
26.44
25.30
23.79
21.93
19.76
17.38
14.92
12.48
10.12
7.89
5.79
3.73
1.64
-0.61
-3.12
-5.96
-9.09
-12.40
-15.72
-18.88
-21.71
-24.20
-26.48
-28.84
-31.68
-35.34
-39.87
-44.90
-49.63
-53.03
-54.15
-52.36
-47.59
-40.27
-31.17
-21.18
-11.13
-1.69
6.66
13.56
18.81
22.36
24.35
25.09
25.00
24.53
24.07
23.86
24.01
24.45
25.07
25.76
26.40
26.95
27.39
27.72
27.93
28.00
27.87
27.53
26.94
26.07
24.88
23.35
21.53
19.56
17.60
15.81
14.19
12.60
10.79
8.53
5.79
2.78
-0.19
-2.79
-4.93
-6.74
-8.55
-10.67
-13.25
-16.27
-19.54
-22.86
-26.07
-29.14
-32.08
-34.95
-37.86
-40.97
-44.53
-48.69
-53.40
-58.23
-62.36
-64.77
-64.53
-61.15
-54.72
-45.90
-35.66
-24.98
-14.67
-5.27
2.90
9.72
15.09
18.95
21.35
22.45
22.52
21.97
21.27
20.81
20.90
21.62
22.88
24.46
26.11
27.66
29.05
30.31
31.46
32.44
33.12
33.37
33.07
32.26
31.10
29.75
28.34
26.91
25.36
23.61
21.59
19.37
17.04
14.76
12.60
10.57
8.58
6.47
4.10
1.33
-1.91
-5.61
-9.64
-13.79
-17.83
-21.56
-24.91
-27.96
-30.96
-34.22
-38.03
-42.48
-47.36
-52.11
-55.90
-57.86
-57.32
-54.04
-48.20
-40.37
-31.26
-21.58
-11.90
-2.70
5.59
12.62
18.12
21.97
24.27
25.31
25.49
25.20
24.78
24.43
24.29
24.39
24.75
25.34
26.13
27.04
27.94
28.68
29.05
28.86
27.97
26.35
24.06
21.28
18.27
15.25
12.45
9.93
7.68
5.58
3.45
1.17
-1.34
-4.05
-6.91
-9.85
-12.82
-15.80
-18.80
-21.84
-25.00
-28.42
-32.20
-36.24
-40.13
-43.15
-44.46
-43.37
-39.60
-33.37
-25.28
-15.99
-6.11
3.94
13.75
22.82
30.55
36.33
39.83
41.12
40.58
38.82
36.37
33.63
30.88
28.33
26.21
24.65
23.70
23.18
22.80
22.20
21.14
19.58
17.59
15.38
13.11
10.88
8.75
6.75
4.92
3.34
2.08
1.20
0.61
0.14
-0.51
-1.68
-3.55
-6.17
-9.37
-12.86
-16.35
-19.66
-22.78
-25.79
-28.91
-32.37
-36.48
-41.54
-47.73
-54.96
-62.66
-69.84
-75.25
-77.75
-76.67
-71.97
-64.32
-54.79
-44.59
-34.73
-25.91
-18.43
-12.26
-7.20
-2.96
0.77
4.26
7.76
11.48
15.58
20.09
24.86
29.59
33.88
37.41
40.01
41.78
42.97
43.86
44.61
45.15
45.25
44.61
42.97
40.28
36.66
32.35
27.66
22.81
17.92
13.00
8.01
2.91
-2.28
-7.46
-12.53
-17.32
-21.62
-25.23
-28.00
-29.91
-31.17
-32.18
-33.41
-35.23
-37.73
-40.58
-43.13
-44.56
-44.10
-41.25
-35.85
-28.03
-18.24
-7.10
4.67
16.25
26.86
35.80
42.53
46.76
48.48
47.99
45.76
42.37
38.37
34.19
30.16
26.49
23.32
20.70
18.54
16.62
14.66
12.41
9.77
6.78
3.65
0.60
-2.13
-4.36
-5.96
-6.86
-7.09
-6.84
-6.40
-6.15
-6.37
-7.15
-8.41
-9.89
-11.32
-12.50
-13.39
-14.14
-15.06
-16.56
-19.04
-22.75
-27.61
-33.14
-38.46
-42.55
-44.37
-43.22
-38.87
-31.60
-22.16
-11.53
-0.80
9.02
17.13
22.99
26.29
27.00
25.35
21.90
17.52
13.26
10.22
9.20
10.56
14.05
18.99
24.49
29.71
34.11
37.50
39.94
41.58
42.58
42.93
42.51
41.17
38.88
35.79
32.21
28.51
24.98
21.68
18.42
14.90
10.72
5.65
-0.39
-7.29
-14.78
-22.49
-29.98
-36.86
-42.85
-47.84
-51.90
-55.12
-57.49
-58.81
-58.70
-56.77
-52.81
-46.87
-39.21
-30.17
-20.08
-9.26
1.87
12.69
22.39
30.13
35.35
37.95
38.30
37.15
35.28
33.37
31.82
30.79
30.25
30.09
30.13
30.25
30.35
30.34
30.16
29.73
29.03
28.03
26.78
25.42
24.10
22.96
22.05
21.26
20.36
19.11
17.30
14.88
11.97
8.71
5.17
1.25
-3.29
-8.57
-14.44
-20.47
-26.12
-31.05
-35.21
-38.79
-41.83
-44.03
-44.67
-42.92
-38.30
-30.97
-21.77
-11.81
-2.14
6.66
14.34
20.91
26.27
30.23
32.50
32.86
31.28
28.03
23.62
18.70
13.94
9.83
6.64
4.35
2.77
1.63
0.73
-0.05
-0.76
-1.46
-2.28
-3.33
-4.75
-6.55
-8.66
-10.88
-13.02
-14.92
-16.52
-17.87
-19.11
-20.43
-21.98
-23.92
-26.37
-29.42
-33.02
-36.93
-40.67
-43.46
-44.48
-43.02
-38.80
-32.05
-23.55
-14.32
-5.32
2.76
9.59
15.15
19.55
22.83
25.00
26.01
25.92
24.95
23.46
21.88
20.60
19.76
19.37
19.24
19.20
19.16
19.15
19.27
19.56
19.96
20.26
20.21
19.60
18.38
16.61
14.47
12.19
9.93
7.81
5.78
3.72
1.43
-1.25
-4.37
-7.84
-11.40
-14.79
-17.82
-20.44
-22.81
-25.21
-27.97
-31.32
-35.31
-39.71
-44.01
-47.46
-49.21
-48.52
-44.98
-38.68
-30.23
-20.58
-10.81
-1.81
5.88
12.06
16.80
20.20
22.35
23.28
23.10
22.04
20.49
18.94
17.80
17.29
17.39
17.87
18.46
18.96
19.29
19.48
19.59
19.64
19.58
19.30
18.70
17.72
16.34
14.59
12.55
10.33
8.06
5.86
3.83
1.96
0.15
-1.72
-3.74
-5.96
-8.32
-10.76
-13.16
-15.47
-17.68
-19.87
-22.18
-24.80
-27.86
-31.35
-34.95
-38.05
-39.87
-39.68
-37.08
-32.14
-25.36
-17.51
-9.38
-1.61
5.37
11.29
15.94
19.15
20.80
20.97
19.96
18.20
16.22
14.42
13.04
12.12
11.58
11.35
11.32
11.41
11.53
11.60
11.56
11.33
10.87
10.09
8.90
7.20
4.98
2.31
-0.60
-3.48
-6.05
-8.15
-9.77
-11.08
-12.42
-14.17
-16.65
-19.99
-24.08
-28.46
-32.46
-35.27
-36.15
-34.67
-30.78
-24.84
-17.51
-9.55
-1.68
5.57
11.83
16.88
20.54
22.69
23.29
22.46
20.49
17.84
15.00
12.43
10.44
9.16
8.54
8.37
8.40
8.39
8.20
7.72
6.97
5.96
4.72
3.27
1.58
-0.31
-2.36
-4.48
-6.66
-8.88
-11.15
-13.48
-15.82
-18.09
-20.22
-22.27
-24.35
-26.70
-29.52
-32.86
-36.47
-39.79
-42.07
-42.51
-40.60
-36.25
-29.80
-21.96
-13.53
-5.23
2.43
9.15
14.74
19.06
22.02
23.63
24.02
23.51
22.50
21.38
20.40
19.70
19.29
19.14
19.18
19.40
19.76
20.24
20.77
21.19
21.31
20.89
19.74
17.79
15.15
12.05
8.85
5.85
3.23
0.96
-1.14
-3.33
-5.82
-8.67
-11.81
-15.04
-18.16
-21.03
-23.60
-25.98
-28.38
-31.07
-34.28
-38.12
-42.41
-46.67
-50.11
-51.82
-51.06
-47.52
-41.39
-33.34
-24.23
-14.91
-6.01
2.03
8.89
14.34
18.18
20.37
21.01
20.42
19.06
17.41
15.86
14.72
14.17
14.27
15.02
16.27
17.74
19.09
20.01
20.27
19.79
18.62
16.91
14.83
12.54
10.13
7.67
5.18
2.65
0.04
-2.66
-5.42
-8.14
-10.66
-12.78
-14.39
-15.58
-16.71
-18.36
-21.16
-25.40
-30.84
-36.59
-41.30
-43.61
-42.57
-37.92
-30.19
-20.35
-9.57
1.12
10.94
19.41
26.20
31.13
34.14
35.33
35.00
33.61
31.74
29.98
28.78
28.38
28.76
29.69
30.82
31.83
32.54
32.89
32.93
32.69
32.18
31.37
30.21
28.71
26.95
25.04
23.06
21.09
19.13
17.17
15.18
13.18
11.16
9.10
7.00
4.81
2.53
0.20
-2.10
-4.32
-6.47
-8.66
-11.06
-13.86
-17.16
-20.90
-24.92
-28.98
-32.85
-36.40
-39.61
-42.54
-45.38
-48.42
-52.01
-56.41
-61.56
-66.96
-71.63
-74.30
-73.83
-69.56
-61.47
-50.23
-36.90
-22.71
-8.85
3.74
14.36
22.64
28.53
32.30
34.42
35.49
36.02
36.36
36.71
37.13
37.60
38.10
38.61
39.14
39.70
40.29
40.83
41.19
41.13
40.46
39.03
36.87
34.12
31.04
27.89
24.86
22.06
19.46
16.98
14.51
12.01
9.48
7.02
4.77
2.83
1.28
0.04
-1.07
-2.36
-4.17
-6.75
-10.20
-14.36
-18.83
-23.12
-26.78
-29.60
-31.69
-33.44
-35.45
-38.31
-42.34
-47.45
-53.05
-58.11
-61.39
-61.79
-58.68
-52.07
-42.60
-31.36
-19.53
-8.10
2.24
11.13
18.41
24.05
28.07
30.53
31.59
31.49
30.59
29.29
28.04
27.18
26.98
27.49
28.62
30.16
31.85
33.51
34.92
35.91
36.25
35.66
33.96
31.11
27.34
23.12
19.03
15.52
12.78
10.61
8.57
6.19
3.15
-0.54
-4.64
-8.79
-12.72
-16.31
-19.59
-22.66
-25.63
-28.63
-31.90
-35.72
-40.29
-45.46
-50.59
-54.60
-56.25
-54.60
-49.36
-40.94
-30.32
-18.70
-7.17
3.47
12.70
20.23
25.91
29.71
31.74
32.28
31.75
30.65
29.45
28.51
28.04
28.11
28.63
29.49
30.56
31.72
32.85
33.77
34.26
34.12
33.28
31.79
29.85
27.71
25.50
23.30
21.05
18.66
16.13
13.45
10.71
7.98
5.34
2.86
0.56
-1.56
-3.63
-5.86
-8.49
-11.71
-15.49
-19.63
-23.82
-27.80
-31.47
-34.94
-38.43
-42.24
-46.62
-51.70
-57.40
-63.40
-68.99
-73.24
-75.09
-73.69
-68.65
-60.16
-48.98
-36.22
-23.07
-10.55
0.60
9.93
17.30
22.77
26.52
28.83
30.03
30.45
30.42
30.26
30.24
30.54
31.24
32.26
33.46
34.68
35.82
36.85
37.75
38.46
38.86
38.77
38.04
36.66
34.73
32.46
30.04
27.60
25.16
22.63
19.94
17.07
14.08
11.12
8.38
6.02
4.03
2.29
0.50
-1.64
-4.37
-7.70
-11.49
-15.42
-19.20
-22.64
-25.74
-28.64
-31.66
-35.16
-39.44
-44.65
-50.59
-56.62
-61.76
-64.84
-64.82
-61.14
-53.85
-43.67
-31.73
-19.34
-7.62
2.64
11.08
17.61
22.35
25.48
27.22
27.85
27.75
27.31
26.91
26.87
27.32
28.26
29.62
31.24
32.96
34.57
35.87
36.67
36.89
36.52
35.60
34.23
32.40
30.13
27.42
24.32
21.00
17.64
14.42
11.43
8.64
5.95
3.21
0.26
-2.95
-6.43
-10.08
-13.72
-17.20
-20.42
-23.39
-26.30
-29.41
-33.08
-37.54
-42.83
-48.61
-54.13
-58.36
-60.17
-58.67
-53.52
-45.03
-34.06
-21.80
-9.47
1.96
11.79
19.68
25.51
29.36
31.43
32.02
31.52
30.36
28.99
27.88
27.38
27.68
28.75
30.32
32.01
33.51
34.62
35.32
35.69
35.75
35.42
34.54
32.97
30.76
28.11
25.37
22.88
20.76
18.97
17.27
15.43
13.29
10.86
8.24
5.58
2.99
0.53
-1.82
-4.12
-6.46
-8.99
-11.84
-15.10
-18.73
-22.61
-26.52
-30.31
-33.91
-37.41
-41.10
-45.36
-50.54
-56.76
-63.74
-70.69
-76.37
-79.38
-78.55
-73.37
-64.13
-51.81
-37.82
-23.56
-10.18
1.52
11.09
18.32
23.24
26.08
27.27
27.38
27.02
26.67
26.65
27.03
27.76
28.62
29.45
30.09
30.46
30.62
30.63
30.59
30.54
30.43
30.11
29.44
28.29
26.69
24.76
22.74
20.85
19.23
17.89
16.72
15.54
14.20
12.62
10.79
8.79
6.69
4.53
2.29
-0.11
-2.73
-5.64
-8.84
-12.28
-15.82
-19.30
-22.55
-25.50
-28.14
-30.63
-33.23
-36.27
-40.06
-44.81
-50.51
-56.78
-62.89
-67.75
-70.15
-69.04
-63.84
-54.68
-42.39
-28.33
-14.00
-0.73
10.58
19.47
25.89
30.01
32.13
32.67
32.10
30.95
29.77
28.99
28.90
29.54
30.79
32.42
34.20
35.92
37.42
38.53
39.07
38.93
38.07
36.55
34.54
32.18
29.58
26.71
23.50
19.89
15.97
11.93
8.04
4.52
1.39
-1.43
-4.16
-6.98
-9.98
-13.16
-16.45
-19.76
-22.99
-26.08
-29.04
-31.94
-34.98
-38.51
-42.85
-48.15
-54.22
-60.39
-65.67
-68.85
-68.94
-65.36
-58.15
-47.93
-35.72
-22.72
-10.00
1.58
11.49
19.42
25.30
29.22
31.40
32.23
32.12
31.54
30.86
30.34
30.10
30.19
30.62
31.40
32.54
33.98
35.60
37.14
38.23
38.52
37.79
36.04
33.51
30.60
27.71
25.05
22.65
20.36
17.97
15.36
12.53
9.57
6.64
3.85
1.19
-1.40
-4.07
-6.99
-10.27
-13.96
-17.97
-22.15
-26.30
-30.24
-33.91
-37.37
-40.84
-44.67
-49.22
-54.70
-60.98
-67.39
-72.80
-75.80
-75.18
-70.27
-61.25
-49.07
-35.16
-20.98
-7.73
3.89
13.56
21.23
26.94
30.81
33.04
33.94
33.94
33.51
33.06
32.86
32.98
33.42
34.14
35.12
36.44
38.18
40.29
42.57
44.58
45.81
45.84
44.47
41.88
38.54
35.01
31.74
28.96
26.55
24.24
21.69
18.74
15.40
11.82
8.13
4.40
0.55
-3.52
-7.89
-12.49
-17.12
-21.50
-25.43
-28.85
-31.93
-35.03
-38.59
-43.05
-48.57
-54.91
-61.38
-66.82
-69.94
-69.67
-65.47
-57.53
-46.66
-34.07
-21.01
-8.52
2.65
12.06
19.48
24.84
28.25
29.99
30.50
30.29
29.82
29.40
29.21
29.31
29.73
30.46
31.48
32.73
34.09
35.41
36.55
37.38
37.80
37.72
37.02
35.58
33.35
30.35
26.75
22.81
18.81
15.03
11.65
8.69
6.04
3.45
0.70
-2.41
-5.89
-9.61
-13.37
-16.97
-20.35
-23.58
-26.85
-30.48
-34.79
-40.00
-46.07
-52.54
-58.54
-62.86
-64.33
-62.10
-55.99
-46.49
-34.66
-21.80
-9.15
2.30
11.95
19.52
24.98
28.50
30.34
30.82
30.32
29.24
28.02
27.04
26.61
26.80
27.53
28.58
29.73
30.88
31.98
33.03
33.95
34.54
34.57
33.83
32.31
30.12
27.53
24.77
22.03
19.42
17.00
14.77
12.68
10.64
8.51
6.20
3.71
1.15
-1.37
-3.79
-6.15
-8.62
-11.33
-14.38
-17.70
-21.17
-24.67
-28.13
-31.56
-34.95
-38.34
-41.74
-45.31
-49.31
-54.02
-59.49
-65.34
-70.65
-74.12
-74.46
-70.83
-63.16
-52.17
-39.10
-25.40
-12.25
-0.53
9.30
17.04
22.65
26.28
28.18
28.75
28.47
27.81
27.17
26.85
27.03
27.78
29.08
30.78
32.72
34.66
36.45
37.93
39.00
39.48
39.19
37.98
35.85
33.02
29.89
26.89
24.30
22.15
20.23
18.22
15.87
13.08
9.96
6.73
3.65
0.94
-1.31
-3.14
-4.73
-6.31
-8.15
-10.44
-13.20
-16.34
-19.63
-22.84
-25.78
-28.44
-30.92
-33.45
-36.37
-39.97
-44.37
-49.43
-54.58
-58.89
-61.24
-60.61
-56.43
-48.75
-38.24
-26.04
-13.41
-1.47
8.97
17.44
23.76
27.95
30.23
30.94
30.55
29.59
28.57
27.88
27.69
28.00
28.63
29.35
29.99
30.48
30.85
31.20
31.56
31.87
31.93
31.50
30.44
28.76
26.63
24.29
21.99
19.85
17.85
15.91
13.88
11.71
9.40
7.04
4.74
2.62
0.70
-1.09
-2.86
-4.80
-7.05
-9.71
-12.78
-16.19
-19.82
-23.49
-27.04
-30.34
-33.29
-35.92
-38.35
-40.89
-43.91
-47.70
-52.25
-57.10
-61.32
-63.71
-63.18
-59.03
-51.26
-40.51
-27.88
-14.67
-2.05
9.08
18.14
24.89
29.29
31.50
31.84
30.71
28.63
26.12
23.62
21.45
19.72
18.37
17.28
16.39
15.69
15.22
15.05
15.07
15.12
14.96
14.44
13.50
12.18
10.61
8.90
7.18
5.53
3.98
2.49
0.95
-0.75
-2.63
-4.60
-6.48
-8.13
-9.48
-10.70
-12.02
-13.74
-16.00
-18.81
-21.94
-25.11
-27.98
-30.36
-32.21
-33.72
-35.27
-37.32
-40.25
-44.13
-48.61
-52.84
-55.70
-56.04
-53.08
-46.63
-37.16
-25.64
-13.21
-0.99
10.20
19.79
27.47
33.11
36.74
38.55
38.89
38.21
36.96
35.53
34.21
33.15
32.43
32.09
32.12
32.47
33.08
33.83
34.60
35.22
35.48
35.16
34.08
32.17
29.50
26.29
22.79
19.28
15.94
12.84
9.90
6.98
3.89
0.52
-3.15
-6.99
-10.80
-14.37
-17.54
-20.29
-22.76
-25.19
-27.93
-31.33
-35.52
-40.39
-45.39
-49.61
-52.02
-51.65
-48.04
-41.24
-31.86
-20.87
-9.32
1.86
11.93
20.39
26.91
31.28
33.49
33.76
32.53
30.43
28.17
26.32
25.24
25.01
25.49
26.43
27.58
28.77
29.92
30.95
31.78
32.26
32.27
31.68
30.48
28.69
26.40
23.75
20.94
18.15
15.51
13.04
10.64
8.15
5.44
2.48
-0.58
-3.54
-6.24
-8.68
-11.04
-13.60
-16.57
-20.03
-23.86
-27.79
-31.56
-35.03
-38.19
-41.26
-44.58
-48.53
-53.36
-59.03
-65.03
-70.44
-74.06
-74.75
-71.79
-65.13
-55.33
-43.40
-30.48
-17.60
-5.58
5.03
13.88
20.83
25.91
29.35
31.46
32.62
33.18
33.39
33.43
33.43
33.46
33.55
33.72
33.96
34.33
34.90
35.68
36.62
37.51
38.10
38.10
37.33
35.75
33.45
30.66
27.63
24.56
21.62
18.86
16.28
13.82
11.40
